800,218.49798172175724
801,208.33268892306114
802,210.08995331778897
803,221.8579527299171
804,235.7458644738599
805,243.77986536003846
806,240.5151317003838
807,229.21283931380276
808,215.01616353160352
809,202.9892792028677
810,195.37736069977655
811,190.909581922886
812,188.08411630638147
813,185.7851368232532
814,185.87681599044845
815,191.61432587397394
816,206.25483809394427
817,228.86052382960588
818,247.8805538242941
819,250.11409839035696
820,223.29732741403495
821,173.87541036030416
822,125.51851627764518
823,102.53581380280775
824,122.98647116551183
825,172.3686561930972
826,225.55553631514704
827,257.61127856806525
828,257.12004959959086
829,235.96401567330395
830,208.30234267305605
831,187.46719610738364
832,177.6817411138527
833,177.51714246339725
834,185.4695645645752
835,198.96317146780893
836,211.98212686958868
837,217.81459411660035
838,210.01873620985316
839,189.0507158087421
840,162.9066952350713
841,139.95783647704775
842,127.41630119321053
843,125.49825071635678
844,131.8128460573862
845,143.9652479091401
846,159.81161665017135
847,177.66311234849672
848,195.8808947653015
849,212.72912335859837
850,225.3079572868519
851,229.97055541257032
852,223.06707630583878
853,203.82967824783736
854,180.59751923431577
855,163.50075697899956
856,162.27154891699684
857,177.1930522081493
858,198.88542374034296
859,217.53182013278638
860,225.12739773924113
861,223.2393126512361
862,216.5987207012131
863,209.88577746566443
864,204.71063826821046
865,197.83345818265843
866,185.588392036012
867,165.3175944114355
868,143.2492196512194
869,130.19742185965697
870,137.0003549059238
871,168.07517242690847
872,212.46502782999778
873,256.94307429584114
874,288.9674647810716
875,306.15035202098807
876,313.83788853220904
877,317.5762266152906
878,321.17551835730046
879,322.21691563436434
880,316.8905701141757
881,301.5806332584707
882,278.0862563254741
883,254.0295903722963
884,237.30778625730454
885,234.46399464247406
886,244.9073659956648
887,265.7260505929189
888,293.9971985206794
889,326.5199596780003
890,359.64348377870556
891,389.72792035352177
892,413.3734187522059
893,429.2001281455796
894,436.7281975275837
895,435.5377757172773
896,427.7190113608103
897,420.35205293336185
898,421.06704874103707
899,436.264146922751
900,459.35349545206554
901,476.1252421389963
902,472.3195346318007
903,442.2565204187067
904,401.8663468296472
905,370.4291610379296
906,365.90511006189263
907,387.65434076653037
908,421.37699986507505
909,452.43323392055936
910,470.1131893473648
911,476.11701241268565
912,474.5648492380187
913,469.5268458006012
914,463.9931479348252
915,459.96390133358545
916,459.42925154966724
917,462.1293439970432
918,459.264323952164
919,439.9643365552274
920,394.08952681140545
921,329.46003959204063
922,272.5160196358265
923,250.5776115499575
924,282.65495981122695
925,350.5082087671344
926,425.3775026369349
927,479.0429855126731
928,498.98480136018406
929,491.1730940200705
930,462.60800720864427
931,420.95968451886984
932,377.3682694212166
933,344.08390526456424
934,333.03673527702085
935,345.18690256672926
936,367.41455012266306
937,385.6598208153828
938,387.94285739776024
939,373.593802505693
940,345.8727986587601
941,308.10998826091236
942,267.7055136010549
943,237.5395168536852
944,230.88214007943498
945,256.7135252256412
946,299.1638141268613
947,333.393148505369
948,334.9516699716314
949,298.03952002474944
950,242.79684005288436
951,191.26377133365713
952,162.34045503451853
953,156.5570322130916
954,167.7636438175141
955,189.80043068671694
956,216.69753355071407
957,242.80509303083454
958,262.4732496399811
959,270.77214378280405
960,266.9419157559041
961,251.69270574797338
962,225.7846538399317
963,191.80790000504385
964,154.79258410900002
965,119.93884590999369
966,92.18682505872857
967,74.92666109848142
968,71.03849346507195
969,83.22246148683917
970,107.19870438460202
971,130.03736127157572
972,138.29857115329287
973,121.98247292748238
974,87.98920538392304
975,48.27890720432333
976,14.631716962085193
977,-8.162226877846479
978,-23.122785959230896
979,-33.67982203476822
980,-41.85319696636179
981,-43.69277272540057
982,-33.68841139307733
983,-6.769975160690592
984,31.30267366998669
985,64.17967268635039
986,75.04115936458584
987,52.89727106924147
988,7.788145052820255
989,-45.506081544663175
990,-92.61527169617693
991,-125.77928848811462
992,-142.79799512084355
993,-141.65125490918217
994,-121.91893128300217
995,-87.89088778772748
996,-44.726988084961704
997,2.252904046947151
998,45.64892471225721
999,76.61120989720621
1000,86.27989546937533
1001,71.4751171769949
1002,42.36701064825684
1003,11.085711390613142
1004,-10.238645209958122
1005,-11.925923889697515
1006,-0.8159895078169939
1007,9.46129295270839
1008,5.396058384352727
1009,-17.581558445790506
1010,-51.311422896811564
1011,-86.62340045486235
1012,-114.7873567339957
1013,-129.4031574770761
1014,-124.88066855665056
1015,-95.95975597587494
1016,-48.62028586944689
1017,-1.9821245045441174
1018,24.054861718193933
1019,15.37080626371062
1020,-17.694157538477157
1021,-58.35989649528892
1022,-90.2662775511053
1023,-105.87316778880631
1024,-105.82043443083239
1025,-91.04794484025115
1026,-64.81556652185645
1027,-37.62316712325992
1028,-21.39061443600258
1029,-26.857776396709596
1030,-49.254521088207184
1031,-72.98071674070707
1032,-82.17623173297397
1033,-68.89093459350079
1034,-43.03469400173526
1035,-17.00737878928703
1036,-1.39885794114889
1037,8.520999403037422
1038,25.242323947744808
1039,61.14524624027763
1040,116.09989666948059
1041,170.01640546444833
1042,200.9749026932168
1043,192.2055182614331
1044,155.4583819110194
1045,112.32362321881374
1046,83.98137159523503
1047,79.69175628286757
1048,95.56490635510454
1049,127.08095071473872
1050,167.26001809254376
1051,200.55223704585842
1052,209.47773595714534
1053,178.4666430325451
1054,117.75908630042068
1055,56.39519360987288
1056,23.745092629269493
1057,35.18891084475763
1058,75.37677555873779
1059,124.92881388836031
1060,165.9651527640035
1061,192.4759189277156
1062,203.75123893169985
1063,199.36123913672054
1064,187.2060457105399
1065,186.46578462635807
1066,217.1305816612021
1067,288.8905623943392
1068,368.0258522056465
1069,409.3565762740054
1070,371.0428595756821
1071,265.42482688265227
1072,148.64260276098867
1073,78.05631156917298
1074,82.95607745645066
1075,127.1520243611285
1076,165.12427600891533
1077,158.16295591120615
1078,119.74818736337329
1079,87.36009344307604
1080,97.86879700851387
1081,156.88442069671692
1082,229.50708692178523
1083,278.12691787315816
1084,275.5240355138485
1085,234.50856157868293
1086,177.4506175725328
1087,126.07032476852874
1088,93.33780420626499
1089,86.04317669003831
1090,110.69656278699586
1091,160.5580828253751
1092,203.17785689263474
1093,203.19600483367685
1094,134.46264624899413
1095,24.437900492825065
1096,-80.10811332867524
1097,-134.1452763593079
1098,-132.2934699946636
1099,-108.2425758840127
1100,-97.33247593215674
1101,-120.7930523013274
1102,-162.1141874130517
1103,-198.58576395004638
1104,-210.1676648581324
1105,-198.42977334810712
1106,-175.4119728976766
1107,-153.06414725336435
1108,-137.6461804324208
1109,-128.2079567247547
1110,-123.36936069487092
1111,-121.89027718378384
1112,-123.04059131098256
1113,-126.18018847636631
1114,-130.83895436217972
1115,-138.1267749350027
1116,-150.07353644766954
1117,-168.64912544126673
1118,-192.04342874707982
1119,-212.83633348857256
1120,-223.15772708337136
1121,-218.6674972452456
1122,-209.0055319860785
1123,-207.25171961786873
1124,-224.9359487547281
1125,-255.32810831486677
1126,-279.7580875226049
1127,-279.5657759103615
1128,-252.12106332067742
1129,-220.32383990822018
1130,-209.37399614180504
1131,-235.97142280638582
1132,-281.4860110051104
1133,-318.05765216132204
1134,-320.11623802058784
1135,-289.47166065273086
1136,-246.20381245386125
1137,-210.56258614840408
1138,-193.4378747911378
1139,-190.84957176924036
1140,-197.53757080431387
1141,-209.7517659544319
1142,-229.89205161619975
1143,-261.8483225267755
1144,-308.220473765934
1145,-356.99840075810425
1146,-387.14199927443406
1147,-377.8211654348361
1148,-328.58579571003065
1149,-268.0957869236245
1150,-227.34103625413627
1151,-227.0314412370808
1152,-252.48689976701826
1153,-281.3473100995943
1154,-293.6425708536299
1155,-291.17258101316656
1156,-287.3472399295115
1157,-295.2364473233338
1158,-313.38010328669225
1159,-322.9081082851153
1160,-303.9003631596588
1161,-248.74676912895848
1162,-183.45722779130847
1163,-139.8516411267101
1164,-143.67991149893533
1165,-179.8419416575798
1166,-216.16763474015352
1167,-222.00689427409452
1168,-197.41962417886316
1169,-170.83572876798462
1170,-171.6851127511145
1171,-210.43768123608606
1172,-259.52333973097484
1173,-286.81199414613366
1174,-269.4635507962812
1175,-228.20791640251446
1176,-196.4549980943848
1177,-204.5247034119293
1178,-245.43694030773622
1179,-287.87161714896683
1180,-300.6086427194259
1181,-275.387926221576
1182,-235.42937727858953
1183,-206.24290593639307
1184,-204.04842266568448
1185,-217.4758383639837
1186,-230.09506435764706
1187,-227.91601240390446
1188,-213.65859469288262
1189,-197.02272384962453
1190,-187.2483129361117
1191,-184.70527545328332
1192,-182.08352534303594
1193,-171.8429769902541
1194,-149.6435452248079
1195,-116.8251453235498
1196,-75.32769301232474
1197,-30.191104467969126
1198,1.8447036797042529
1199,1.2598143459053972
1200,-47.11569001110547
1201,-121.66172739201284
1202,-182.26821625841694
1203,-190.3150755348106
1204,-145.04222461055906
1205,-83.42958334184004
1206,-43.96707205364328
1207,-45.36461154168683
1208,-67.59212307440976
1209,-86.13952839489139
1210,-83.41674972280998
1211,-70.15370975637234
1212,-64.23033167426001
1213,-81.20653913754722
1214,-116.08225629164008
1215,-153.2374077681725
1216,-177.3819186869423
1217,-182.55571465780667
1218,-172.08872178260026
1219,-149.68086665701412
1220,-121.21207637249972
1221,-96.49227851815158
1222,-85.79140118259784
1223,-95.39937295586424
1224,-116.99612293124119
1225,-138.82158070716287
1226,-150.55567638904722
1227,-152.3983405911531
1228,-149.39950443844282
1229,-146.28909956838288
1230,-142.14705813281216
1231,-131.25331279974307
1232,-107.83779675520054
1233,-71.44044370501251
1234,-29.811187876637632
1235,8.570035979049862
1236,37.47329258597347
1237,56.918646141051795
1238,68.07616031243742
1239,72.05589823773698
1240,69.64792252225925
1241,61.55229523723392
1242,48.84907791810474
1243,36.93833156274923
1244,33.920116629769836
1245,47.63449303676316
1246,76.59152015859036
1247,109.1312568256908
1248,133.10376132235797
1249,141.27909138506584
1250,135.95730420076507
1251,120.44845640521453
1252,99.01260408132475
1253,78.95980275746479
1254,68.29010740585
1255,74.04357244087078
1256,97.20025171746602
1257,136.3201985295036
1258,189.53346560815407
1259,249.59010512028908
1260,305.55016866686674
1261,346.57370728137175
1262,366.19077142820424
1263,362.9814110011321
1264,335.8256753216938
1265,290.3236131376925
1266,244.76527262161653
1267,218.90070136911527
1268,224.39994639747601
1269,246.69305414411429
1270,265.87007046506005
1271,265.7410406334602
1272,251.3960093381138
1273,235.44502068196743
1274,229.7981181806681
1275,238.87534476111432
1276,262.7267427599909
1277,300.9323539223533
1278,344.01221940019605
1279,373.9763797510368
1280,372.7648749365162
1281,336.99774432101003
1282,285.30502667024484
1283,238.10676014991805
1284,208.8529823243589
1285,194.16373015515637
1286,188.2390399998476
1287,186.3189476105581
1288,187.78348813271623
1289,193.0726961037417
1290,202.33660545173734
1291,214.05524949423489
1292,226.01866093689387
1293,236.61687187227108
1294,250.90991377855607
1295,278.14781751834744
1296,327.01061333742655
1297,393.40833086353814
1298,461.0709991052099
1299,513.3586464505424
1300,538.9413006660543
1301,534.2189888955108
1302,496.16173765876374
1303,430.20957285063923
1304,359.9625197397854
1305,311.4506029675722
1306,302.15384654698937
1307,321.33227386155886
1308,352.425907664252
1309,380.53477007644506
1310,399.53888258684674
1311,406.10826605047987
1312,397.7729406876406
1313,379.1929260829147
1314,358.4082411841464
1315,343.0489043014768
1316,334.9549331063681
1317,331.966344630644
1318,331.94315526554783
1319,335.68538076080404
1320,346.9130362237156
1321,369.2661361182436
1322,397.52469426413336
1323,413.95872383603273
1324,400.008237362621
1325,352.18324672577546
1326,297.0237631597229
1327,264.6497972502402
1328,273.5813589338195
1329,309.56845749690547
1330,352.5211015750956
1331,386.2392991523957
1332,410.3330575604523
1333,428.4223834778404
1334,443.10728292931526
1335,450.957761285139
1336,446.37382326037186
1337,425.48547291419527
1338,399.3427136492628
1339,386.4955482110454
1340,403.6739786872058
1341,444.5280065069728
1342,486.9576324405625
1343,509.53285659856374
1344,509.6536784313921
1345,501.7100967287315
1346,500.302109618975
1347,505.1697145687267
1348,498.3329083822737
1349,461.091687201113
1350,394.97604650344874
1351,333.1759811037573
1352,311.48148515231696
1353,344.30255213480086
1354,402.299174871845
1355,450.7213455186593
1356,465.98905556464524
1357,454.4222958330229
1358,427.27105648049474
1359,395.895326996897
1360,371.895096204893
1361,366.9303522596674
1362,388.5210826486491
1363,425.0572741912256
1364,459.44891303851546
1365,477.3259846731162
1366,480.8184739088865
1367,478.17636489075994
1368,476.2796410945539
1369,471.5982853267815
1370,455.6722797245384
1371,421.69160575532806
1372,379.43624421698587
1373,348.3761752375467
1374,346.4613782751767
1375,369.46183211811876
1376,397.30751488461647
1377,410.55840402291506
1378,406.7444763112235
1379,398.1457078577314
1380,397.0220741006342
1381,404.01354980816177
1382,407.6401090786421
1383,396.25172534057856
1384,371.7283713527395
1385,352.620019204267
1386,358.1766403148122
1387,390.11820543467184
1388,424.49468464496385
1389,435.5360473578039
1390,414.89226231650537
1391,384.10329759580236
1392,367.53912060208495
1393,377.95969807365327
1394,404.83499608099555
1395,434.87498002708526
1396,457.44961464766675
1397,468.23886401162054
1398,463.8026915212904
1399,442.3310599128472
1400,406.45393125669216
1401,359.5212669578432
1402,307.6830277563695
1403,265.63917372782817
1404,249.76966428372543
1405,268.7944581720003
1406,304.65351347752585
1407,333.39678762261246
1408,337.5042373675715
1409,325.1558188112467
1410,310.8614873915958
1411,307.38119788630684
1412,319.36490441338356
1413,349.26256043179455
1414,396.51411874213045
1415,445.93953148726905
1416,477.8187501530738
1417,476.8817255691047
1418,452.0384079093401
1419,420.4087466929559
1420,397.34269078506804
1421,387.91018839753997
1422,393.3711870897969
1423,414.6756337696461
1424,450.6934746941406
1425,499.47465547043794
1426,557.6691210567133
1427,612.3368157630484
1428,646.4776832523785
1429,646.9516665414412
1430,628.6087080017569
1431,618.6787493605989
1432,641.0717317020499
1433,693.8375954679923
1434,762.9962804591942
1435,834.4677258363699
1436,893.4818701212789
1437,924.9386511978519
1438,917.4580063133217
1439,890.3298720793828
1440,877.8341844733732
1441,908.6708788394681
1442,963.2498898899194
1443,997.951151706282
1444,976.0545977406746
1445,920.7901608170887
1446,885.5477731326719
1447,915.9273662590567
1448,989.6788711437312
1449,1050.4222181113819
1450,1047.7673368653013
1451,983.7841564887931
1452,886.6026054466165
1453,784.4126115864365
1454,703.8641021402909
1455,670.917003726112
1456,704.8512423492266
1457,772.1667434039136
1458,814.2334316749548
1459,781.9812313392304
1460,700.8800659673343
1461,630.6398585251754
1462,621.310531375666
1463,651.7520062803633
1464,669.5242044011902
1465,630.8070463021377
1466,551.930451951017
1467,474.294340721206
1468,432.2786313934412
1469,414.98324215764114
1470,393.79809061470405
1471,344.66309377838115
1472,270.738168077145
1473,185.1032293560893
1474,103.16819287883663
1475,52.76297332949434
1476,65.92748481459967
1477,159.2516408651336
1478,273.69535443849963
1479,327.0085379205775
1480,262.85110312777215
1481,139.59296130907933
1482,47.314023148206616
1483,50.684198765684414
1484,113.73339772100371
1485,175.67152901480767
1486,191.3985010910601
1487,170.9942218392771
1488,136.58859859675977
1489,105.3215381508544
1490,78.99294674123666
1491,56.4527300622176
1492,36.77079326508101
1493,19.53704096044021
1494,4.441377220595314
1495,-5.756294418035395
1496,-1.2660709525280254
1497,28.681950089036036
1498,82.17767065001681
1499,131.84099214770504
1500,147.54181547586086
1501,120.24004100723687
1502,77.40556859616117
1503,49.758297581116494
1504,48.44812678734888
1505,55.72495452951989
1506,51.918678614358214
1507,31.769196343335352
1508,8.076404515395552
1509,-5.669800570334701
1510,-6.8595231117651565
1511,-4.432867801091561
1512,-7.229939821962034
1513,-11.910844846664986
1514,-4.425689033272647
1515,28.065420977229223
1516,75.97237806386147
1517,113.24507462855763
1518,116.12340259912162
1519,89.43725343219558
1520,55.21651811627089
1521,33.611087174702334
1522,27.04085066874177
1523,29.285698200646948
1524,33.26551891672898
1525,26.890201510517727
1526,-3.9203657741254574
1527,-65.76629513981788
1528,-128.69769923247804
1529,-151.54469113809137
1530,-108.79738437947526
1531,-34.19589291300326
1532,24.509668874668932
1533,35.419186169943714
1534,12.91254373562333
1535,-20.310374085747753
1536,-45.72968336846316
1537,-54.155500600239975
1538,-37.80794267880265
1539,-0.717126908384671
1540,32.82682900375221
1541,36.99380695083528
1542,5.783688430115944
1543,-40.573645453545396
1544,-80.3483139841046
1545,-99.31043683070675
1546,-90.84013404404504
1547,-50.3175260526823
1548,1.4572663406197535
1549,24.064121962643185
1550,-17.147080726552304
1551,-92.91646362986648
1552,-136.79414900934535
1553,-94.55025948238108
1554,-1.3649180178472307
1555,69.19175206775981
1556,60.86962711422166
1557,4.308583121521224
1558,-42.991504246203476
1559,-43.270759656703376
1560,-28.35930810559148
1561,-45.20727491234902
1562,-115.2547857162408
1563,-196.69196647227545
1564,-238.43894344706496
1565,-220.76584321473092
1566,-179.34279265272926
1567,-154.84991893767437
1568,-163.3973495411392
1569,-190.02521222540963
1570,-218.25363503925837
1571,-241.13274631361674
1572,-260.3426746573077
1573,-276.92354895268363
1574,-280.7754983512714
1575,-254.68865226939488
1576,-187.13314038373755
1577,-109.4190926269348
1578,-71.93663918308266
1579,-109.51591048325463
1580,-181.68703720099074
1581,-225.35015024773384
1582,-199.4353807682819
1583,-132.83286013617726
1584,-68.22271994908624
1585,-33.665092024140904
1586,-26.4801083932889
1587,-40.00790129856068
1588,-63.84860318736355
1589,-82.28234670771053
1590,-80.02926470345301
1591,-59.709490209461364
1592,-41.26315644679562
1593,-43.30039681784547
1594,-60.791344901441335
1595,-73.41613444794166
1596,-64.6448993742888
1597,-46.357773759040356
1598,-42.43489183739257
1599,-67.26638799614011
1600,-94.12239676862191
1601,-85.29305282968562
1602,-23.788490990544233
1603,51.851153806321236
1604,94.18574649233778
1605,81.44515187800243
1606,35.47923465809981
1607,-17.74214058306643
1608,-55.379109366409466
1609,-58.131807312767705
1610,-10.110370137608697
1611,61.46506635433252
1612,98.9543662744145
1613,56.10739365549307
1614,-25.425987542674193
1615,-65.10591342796397
1616,-6.432520170412317
1617,103.63405600328952
1618,190.5636788153115
1619,208.00621194227278
1620,180.79151902079138
1621,144.54946365312026
1622,117.86990941277509
1623,93.102719850207
1624,61.16775849849182
1625,30.75488887904612
1626,27.443974507381427
1627,73.33487889888602
1628,148.55746557460225
1629,208.70159806708034
1630,218.33713992623416
1631,193.18395472519296
1632,166.5819060662543
1633,159.39085758680267
1634,153.63067296526788
1635,124.02121592712683
1636,66.72235025093323
1637,16.413939774341998
1638,10.605848400207833
1639,55.597940102663415
1640,124.42007893327172
1641,189.9221290271762
1642,241.55395460927502
1643,279.2254200004463
1644,303.6463896237801
1645,319.36672801084023
1646,332.31629980798243
1647,346.42496978264535
1648,359.4026028297194
1649,367.8090639779166
1650,370.30421839618066
1651,369.2479314001139
1652,367.27006845843243
1653,364.25049519946697
1654,357.42907741766976
1655,344.7756810801584
1656,332.82017233327133
1657,332.8924175091979
1658,350.9622831325687
1659,366.72963592713495
1660,351.91434282243245
1661,294.06627096050397
1662,220.90528770261335
1663,166.08126063603413
1664,144.78405758082954
1665,146.6935465966617
1666,159.33959598967158
1667,166.4620743192936
1668,148.87085040523198
1669,94.02579333433641
1670,34.68677246757761
1671,22.293657447031364
1672,82.63631820289811
1673,155.5946249605404
1674,163.75844824754313
1675,83.30765890082694
1676,-17.307871926243024
1677,-63.578272756698425
1678,-44.843671782775345
1679,-9.274196858728828
1680,-2.199975493580496
1681,-26.761134843864056
1682,-65.57780170632213
1683,-101.24010251059735
1684,-117.00816331188071
1685,-96.46210978353702
1686,-46.81206720969749
1687,-20.348160477837155
1688,-71.37051407130457
1689,-183.03925206184613
1690,-268.04449810207916
1691,-249.35637541796495
1692,-165.67500680121702
1693,-114.66051460172275
1694,-165.47302071989907
1695,-273.12264659905486
1696,-364.8995132176933
1697,-396.5637410818126
1698,-377.46545021715065
1699,-323.1947601614429
1700,-256.15178995661154
1701,-205.06665814094413
1702,-194.22948274124428
1703,-210.2103812649566
1704,-221.80947069225294
1705,-207.53686746811036
1706,-180.42268749433788
1707,-160.83704612158
1708,-157.23005814131648
1709,-158.53183777781123
1710,-152.92249868001818
1711,-146.90215391350284
1712,-161.7509159522997
1713,-211.45889667075426
1714,-261.73620733534517
1715,-259.6629585964565
1716,-185.10926048014153
1717,-107.90522237984987
1718,-111.13095304814124
1719,-196.91656058833541
1720,-263.72215244617473
1721,-215.76783540143515
1722,-95.61371555952246
1723,-30.669898343026944
1724,-111.63648848324556
1725,-261.27359001170953
1726,-356.56130625165315
1727,-334.80973980945055
1728,-249.43899256605437
1729,-165.31916566837572
1730,-113.24035952065242
1731,-93.41267377579607
1732,-103.07620732668693
1733,-126.78105829745618
1734,-143.8873240347475
1735,-143.6851010989394
1736,-142.8344852553255
1737,-162.06557146532214
1738,-200.74845387756432
1739,-232.06322581903805
1740,-230.11997978617728
1741,-193.70880743590533
1742,-135.40979957665695
1743,-70.63304615940615
1744,-24.818636268606497
1745,-25.34665811315608
1746,-72.37719901731361
1747,-123.04034541158217
1748,-134.1661828235592
1749,-108.42479586879563
1750,-80.81626824158047
1751,-78.7906827057177
1752,-90.52812108528997
1753,-92.68866425536362
1754,-77.31239213268418
1755,-65.91938366635804
1756,-81.54971682846008
1757,-116.78346860467354
1758,-138.80071498485086
1759,-121.89153095357324
1760,-84.79599048067394
1761,-61.714166511743315
1762,-70.46613095858265
1763,-92.94195468967155
1764,-107.22170752054808
1765,-109.90545820422813
1766,-114.67327442153874
1767,-132.2452227714566
1768,-150.65136876141878
1769,-149.28177679757573
1770,-119.84651017506803
1771,-82.80563106821864
1772,-61.82920052073314
1773,-59.36727843586414
1774,-57.49992356654366
1775,-42.25719350550571
1776,-30.339144675335774
1777,-50.4158323185402
1778,-108.06731048758775
1779,-154.86363203486871
1780,-137.2748486026885
1781,-58.641010613204344
1782,23.89783274166075
1783,58.591633510341126
1784,39.78034499176647
1785,-20.856078254480963
1786,-98.62768039794173
1787,-140.45450432707912
1788,-93.84659163901415
1789,12.316017370756526
1790,78.09328371866468
1791,27.105169743403167
1792,-76.3683608837
1793,-121.2773431482965
1794,-62.1918106826015
1795,19.468204245060406
1796,33.82267074072479
1797,-18.44844070471845
1798,-68.11515820497698
1799,-62.97750846781673
1800,-35.28551678447002
