800,119.70573140850865
801,77.59171924819566
802,64.24765623444455
803,76.22970363178956
804,95.00502234087253
805,101.82977289906103
806,84.96211548104748
807,56.82620989944735
808,35.05521560540001
809,36.85829168916098
810,64.69059688069046
811,102.51828955024212
812,133.14652770893917
813,141.69646900936368
814,131.301270746123
815,113.5650898564254
816,100.12608292064942
817,98.280406162904
818,104.34621545159371
819,112.9286662999748
820,118.8279138667067
821,120.70411295640952
822,120.76941802020428
823,121.37198315625483
824,124.11896211031672
825,126.7815082762645
826,125.86977469662816
827,117.94491406312136
828,102.80107871716609
829,85.80042065042198
830,72.85309150529247
831,69.31124257545162
832,74.39202480634776
833,83.51458879571601
834,92.04008479408367
835,96.62566270526713
836,98.08647208687125
837,98.07066215078794
838,98.20338176367932
839,99.36477944747185
840,101.63000337983794
841,105.0302013946748
842,109.42052098257773
843,113.5851092913299
844,115.91311312635116
845,114.81367895118001
846,111.03695288792824
847,109.68608071774634
848,116.34020788127691
849,135.81847947910956
850,164.33004027222887
851,192.59203468246233
852,211.23760679292172
853,213.7729003484419
854,202.7780587560219
855,182.62022508524933
856,157.64354206874032
857,131.60915210255735
858,107.68919724663192
859,89.02881922518918
860,78.29715942716302
861,75.64935890660581
862,80.41355838309846
863,91.90089824215647
864,108.23751853563863
865,125.69955898213175
866,140.39115896736712
867,148.96945754459557
868,152.88959343498573
869,156.09770502801257
870,162.5479303818338
871,173.83840722367313
872,185.91027295019467
873,193.87266462788193
874,193.18971899340067
875,184.59257245396748
876,172.82236108772395
877,162.7262206440746
878,158.37628654406853
879,161.0466938807367
880,171.39257741944857
881,189.92407159826234
882,213.4523105282642
883,234.8124279939093
884,246.63855745336605
885,243.87883203884758
886,233.55238455693598
887,226.61334748892477
888,233.84485299113658
889,257.07903289523983
890,285.0130187085824
891,305.29194161449504
892,307.39293247260593
893,294.2941218191572
894,275.0266398673084
895,258.63061650743566
896,251.54518130743418
897,255.1614635130254
898,270.2805920480314
899,296.96469551469
900,327.6109021939192
901,350.1213400456245
902,352.3621367089627
903,329.8024195026319
904,297.05131542514937
905,271.67495115510974
906,270.0014530514736
907,291.0189471538206
908,320.9505591826255
909,345.72441453950705
910,354.40963830749206
911,346.00035525127623
912,321.4526898174636
913,282.146766134827
914,237.55270801454753
915,204.33763895046286
916,199.4186821193034
917,232.15196038092927
918,282.86759627857646
919,324.92771203906614
920,332.6404295730608
921,303.7128704752631
922,260.1361560246587
923,225.0304071847304
924,216.1377446036704
925,227.01228861460277
926,244.40515923579005
927,255.35147617084021
928,255.8673588089241
929,252.48992622496007
930,252.3562971798301
931,260.73959012057094
932,273.4129231805691
933,283.14741417975256
934,282.86918062478344
935,271.54533970923876
936,255.88900831379942
937,243.11330300642476
938,238.70934004253832
939,238.60623536520143
940,235.44610460527474
941,222.04306308161358
942,198.74322580120588
943,176.11670745935498
944,165.4626224398353
945,175.03008481505913
946,195.37320834622005
947,210.6791064834597
948,205.42489236601432
949,177.76967882235385
950,144.90057837034783
951,125.41070321739426
952,133.54616526055906
953,158.04907608672875
954,178.4065469727302
955,174.4346888854716
956,141.37661248207223
957,95.78742810998938
958,55.774245807145235
959,36.10017530204732
960,32.39632601391531
961,33.516807052785225
962,28.518727219637185
963,15.038195006504793
964,2.108318596589015
965,-0.4457941356458832
966,14.437964375644697
967,39.04270138778793
968,60.719523849683355
969,67.11553840191482
970,56.50685137684195
971,40.32456879867914
972,30.825796383609486
973,36.85463953985709
974,50.67520336778125
975,59.53459265995025
976,51.10591190123705
977,25.507265268883202
978,-3.214243367414383
979,-20.25451044543479
980,-15.161432710355257
981,4.035092785309644
982,24.39616868178382
983,33.38989731208767
984,27.701380702111237
985,13.093720570655023
986,-4.285981670488582
987,-19.17062491649631
988,-29.470108369451737
989,-33.80433153829654
990,-31.015194238785625
991,-23.60459659342996
992,-17.158439031461057
993,-17.35362228878421
994,-25.935047407942875
995,-33.02761573806947
996,-26.62022893486028
997,3.9802110394621195
998,52.37180191618245
999,100.2996411201193
1000,129.2918257696556
1001,128.2414526767643
1002,103.45561834702949
1003,63.75341897966791
1004,17.958950467547766
1005,-25.37069160279043
1006,-59.53141195111766
1007,-78.57711560351345
1008,-76.71770789234688
1009,-55.71609445626473
1010,-28.19118124018587
1011,-7.60987449530694
1012,-4.219080779082105
1013,-10.77470695523607
1014,-14.110660193754484
1015,-1.5258479708936648
1016,24.684821930817634
1017,44.60944142257449
1018,37.315102109279906
1019,-10.55210471045848
1020,-80.30608804434269
1021,-144.79875720639666
1022,-177.97102181698847
1023,-176.05179180284267
1024,-155.91697739705705
1025,-135.23348913913196
1026,-126.31223787498493
1027,-124.58613475698894
1028,-122.17109124397757
1029,-111.66801910129743
1030,-92.03183040081785
1031,-66.68043752097856
1032,-39.12775314681585
1033,-13.076690269996107
1034,7.333837811143894
1035,17.899917491549786
1036,15.467634859427562
1037,5.796075696192929
1038,-0.8416745235845156
1039,5.764469367788479
1040,28.212592231082454
1041,56.94777862008232
1042,81.32111278155026
1043,92.51667865516902
1044,91.95155987349426
1045,84.57583976187561
1046,75.2796013384359
1047,67.11192731399206
1048,61.10990009199304
1049,58.20460176846973
1050,57.60111413196137
1051,52.42751866346225
1052,34.46189653634792
1053,-3.2076713836941053
1054,-49.52010453871662
1055,-80.36632267860477
1056,-71.4172458611356
1057,-15.067794452046655
1058,59.665110874881066
1059,118.90354913774172
1060,133.52959904645286
1061,110.34233900264553
1062,72.4648470996126
1063,42.84220112220282
1064,32.724478546753744
1065,37.61175654100953
1066,51.90011196402702
1067,70.5326213660901
1068,90.82536098863784
1069,110.7044067641491
1070,128.06483431607376
1071,140.27371895873512
1072,144.2771356972371
1073,137.0101592273677
1074,117.95486393551437
1075,92.5233238985511
1076,66.97661288375821
1077,47.029804348718244
1078,34.156971441205314
1079,27.88918699911119
1080,27.701523550307684
1081,31.616053312583972
1082,35.74884819350882
1083,36.08597979033948
1084,29.886519389925525
1085,19.29853796858515
1086,7.642106192010033
1087,-1.9477055848565215
1088,-8.787827317915799
1089,-13.924189274035598
1090,-18.432722031144294
1091,-22.151356478367234
1092,-22.52002381612874
1093,-16.711655556266123
1094,-2.9721835221371293
1095,14.219460151241947
1096,28.137343017104286
1097,32.15453231679385
1098,22.02309497965507
1099,-4.146902377075094
1100,-48.14639344841453
1101,-106.16131224172932
1102,-159.46059307687574
1103,-186.84417058631334
1104,-171.06497971523459
1105,-126.85495572167565
1106,-84.41203417665747
1107,-73.39215096430962
1108,-99.59124228197834
1109,-138.7882446403837
1110,-164.8270948637146
1111,-159.8327300897854
1112,-134.04408777015306
1113,-103.66410567024286
1114,-83.91972186946987
1115,-79.84287476140526
1116,-90.47450305387429
1117,-114.6695457690912
1118,-145.241942243807
1119,-166.0996321294333
1120,-160.41455539217895
1121,-119.61365231317359
1122,-67.67086348861812
1123,-36.58912982990478
1124,-55.07239256376488
1125,-112.48459323239877
1126,-172.50267369360517
1127,-198.71257612093905
1128,-179.90024300381083
1129,-145.01261714767497
1130,-126.60964167411657
1131,-147.43026002102306
1132,-189.31541594270857
1133,-223.47605351005768
1134,-223.5681171106644
1135,-193.12455144896194
1136,-155.56130154637322
1137,-134.45231274144862
1138,-139.8075306899973
1139,-160.22890136524256
1140,-182.41837105794184
1141,-195.75788637655387
1142,-200.3363942473443
1143,-198.89384191456156
1144,-194.18417694055825
1145,-189.00734720592664
1146,-186.19930090966045
1147,-188.54198656927656
1148,-195.82535302096767
1149,-203.56034941973667
1150,-206.92092523954125
1151,-201.90203027343887
1152,-187.2966146337185
1153,-162.52062875203956
1154,-128.13802337959714
1155,-95.22674958723655
1156,-80.46275876560503
1157,-99.98800262528857
1158,-150.44243319696034
1159,-205.07100283151158
1160,-235.7406642002079
1161,-225.63437029480156
1162,-189.03507442770024
1163,-145.5287302320976
1164,-112.77229166210418
1165,-95.2457129928971
1166,-91.95394882085748
1167,-101.6999540636989
1168,-119.48768396063315
1169,-136.82909407247098
1170,-145.1301402817935
1171,-140.53877879306856
1172,-128.74196613280037
1173,-116.5696591496635
1174,-109.2078150146317
1175,-104.13439122112322
1176,-96.57734558514312
1177,-82.32163624539317
1178,-63.75022166344206
1179,-47.55006062382745
1180,-40.4381122342038
1181,-46.84733592548582
1182,-68.06969145196126
1183,-105.17613889144013
1184,-155.07763864537992
1185,-202.38715143901027
1186,-229.44663832148035
1187,-222.06606066596578
1188,-189.74738016982337
1189,-151.88255885470062
1190,-127.15355906667719
1191,-120.63434347637667
1192,-125.5548750791113
1193,-134.75911719500073
1194,-141.69603346908116
1195,-140.87958787146636
1196,-126.93474469742978
1197,-97.78246856756414
1198,-63.76372442787033
1199,-38.14647754991347
1200,-32.05869353090384
1201,-38.50433829386384
1202,-41.37837808769655
1203,-25.282779487335574
1204,7.284490606134568
1205,35.99146496539106
1206,39.83417603673115
1207,12.060655939969365
1208,-26.153063531677617
1209,-50.36895091169936
1210,-43.40097506040729
1211,-17.444105165042856
1212,7.865689260108411
1213,15.086438373626152
1214,6.10717200682484
1215,-7.187080336334475
1216,-13.079289479353974
1217,-5.817426573299599
1218,14.470536903088941
1219,47.363629143301296
1220,88.41987801297
1221,125.69931104974967
1222,146.4269554632374
1223,142.17183813486008
1224,120.54998561780485
1225,92.8854241369063
1226,69.35217958855173
1227,51.44727754060841
1228,36.69174323232073
1229,22.844601574226544
1230,11.980877148074796
1231,9.862594206730137
1232,22.251776674105713
1233,48.503448145062066
1234,78.11363188534051
1235,99.7393508314799
1236,106.98862759074291
1237,107.6354844410289
1238,111.97494333081522
1239,127.39202587907494
1240,145.20975337520576
1241,151.22314677896793
1242,133.20122672039906
1243,101.06801349977286
1244,78.66252708751927
1245,89.16778712416271
1246,131.42981292025615
1247,177.58262345634648
1248,198.52223738288558
1249,183.11067302018637
1250,154.68894835837455
1251,140.50808105733995
1252,157.2110884466747
1253,184.69398752562302
1254,194.89979496305568
1255,166.27952709739475
1256,118.9991999365975
1257,89.66082915811239
1258,111.62143010881664
1259,176.56501780501276
1260,247.8196069323676
1261,289.0202118458983
1262,289.84684656992977
1263,269.60252479806695
1264,249.14525989317917
1265,240.71606488736325
1266,240.19595248192672
1267,241.63193504737137
1268,241.03202462337322
1269,240.80623291875418
1270,244.664571311494
1271,255.18605084869523
1272,268.47068224659415
1273,278.329475890534
1274,279.13844183498077
1275,271.1205898035041
1276,257.9489291887876
1277,243.3244690526335
1278,230.65121812596226
1279,223.05518480881437
1280,223.57137717037222
1281,231.21980294897912
1282,238.99146955211836
1283,239.39038405647625
1284,228.3655532079374
1285,210.13198342160285
1286,190.11968078183054
1287,173.62765104224854
1288,165.45289962580136
1289,170.25843162476485
1290,191.55325180079853
1291,225.24936458496813
1292,264.2217740777978
1293,301.4324840493118
1294,330.9434979390735
1295,347.5118188562428
1296,346.32544957962455
1297,331.42239255772074
1298,315.2726499088003
1299,310.48222342093504
1300,319.79211455208133
1301,331.8363244301563
1302,334.207853853075
1303,322.7967032888446
1304,311.41987287563643
1305,316.2423624218609
1306,345.9781714062501
1307,384.6782989779367
1308,411.27574395654847
1309,409.4145048322898
1310,386.9045797660401
1311,359.27896658945065
1312,341.0386628050437
1313,338.3176655863008
1314,353.24297177779226
1315,386.89557789527316
1316,427.2004801257881
1317,452.8836743278025
1318,443.5991560313032
1319,404.71592043793316
1320,367.1989624211237
1321,362.59927652619444
1322,397.1758569705089
1323,441.59169764360377
1324,463.9457921073281
1325,448.67013359597877
1326,412.74571501645914
1327,377.0105289484072
1328,356.3535676443644
1329,348.74682302993097
1330,349.18428670391586
1331,354.91294993850715
1332,372.3908036794328
1333,410.423838546134
1334,473.7590448319479
1335,543.4054125042603
1336,591.760931204708
1337,596.0285902493652
1338,574.1903786289095
1339,564.7102850088431
1340,602.5612977296605
1341,676.8534048070724
1342,745.5095939321909
1343,767.7298524717498
1344,739.4091674683004
1345,689.6615256404548
1346,648.1479133830635
1347,622.7053167674821
1348,595.1257215417645
1349,545.9861131309062
1350,475.67047663708763
1351,415.51679683990005
1352,399.4350581965882
1353,438.0692448423142
1354,494.47334059038076
1355,525.8773289325181
1356,505.6561930391108
1357,450.5349157594974
1358,384.4474796221966
1359,328.7118668352141
1360,295.3960592863059
1361,294.54003854324947
1362,329.77278585415115
1363,375.1982821477068
1364,396.4205080335123
1365,367.0954438023655
1366,309.149069426554
1367,262.3843645601719
1368,260.4703085394285
1369,289.0808803829532
1370,311.4170587921435
1371,294.93382215144993
1372,251.7241485287359
1373,219.87701567559998
1374,234.3924010277151
1375,284.3462817051659
1376,326.0246345128053
1377,317.65343594059414
1378,265.4666621639826
1379,217.2202890442295
1380,220.23429212881274
1381,276.7046466517695
1382,342.00832753408395
1383,370.3123093840677
1384,350.6545664977457
1385,315.1110728592339
1386,298.06180214115375
1387,314.10672770501515
1388,348.9748226016309
1389,386.1410595715224
1390,412.4484110453359
1391,420.53984914425564
1392,403.66734568044376
1393,363.0538721574503
1394,315.8843997706663
1395,281.2248994077472
1396,271.63434164907267
1397,284.524696768176
1398,315.1489347322331
1399,355.2860252024893
1400,387.3819375347448
1401,392.331640779812
1402,361.5651036840027
1403,319.00129468961495
1404,294.8281819353924
1405,309.03173325705393
1406,345.728916187767
1407,381.1456979586419
1408,396.7240454992734
1409,394.6799254382295
1410,382.3813041035701
1411,366.6211475233904
1412,351.58642142632743
1413,340.74209124211484
1414,338.138122102122
1415,350.67247883988784
1416,386.1261259916846
1417,446.64502779708164
1418,503.7661481994928
1419,518.6624508467648
1420,463.5308990917383
1421,375.9374559928365
1422,317.44408431465126
1423,337.2177465285349
1424,404.5794048131993
1425,457.37802105532137
1426,443.9515568501538
1427,385.3229735021432
1428,332.990232025546
1429,331.57929314506873
1430,374.72811729648674
1431,433.5276646272996
1432,481.5358949973688
1433,512.1057679795758
1434,527.7222428604728
1435,531.273278640956
1436,528.4188340369383
1437,526.146867480009
1438,530.574337118147
1439,540.5792008163753
1440,551.4874161574935
1441,559.1559404427553
1442,564.1327306925741
1443,569.3007436472617
1444,577.5209357677231
1445,591.2812632362129
1446,612.8866819570376
1447,643.4291475573191
1448,673.8326153877351
1449,689.894040523277
1450,680.1803777639961
1451,656.7615816357866
1452,643.4146063911485
1453,659.6584060099776
1454,689.3709342003385
1455,699.0011443992698
1456,660.3969897735806
1457,589.3374232206588
1458,522.5213973692717
1459,492.04586458040467
1460,493.85277694808974
1461,507.2670863002095
1462,513.6067441993782
1463,509.3477019437578
1464,497.6209105679336
1465,481.08532084376384
1466,458.94388328125024
1467,428.95754812941595
1468,390.2982653771942
1469,351.08298475430274
1470,322.93265573215467
1471,314.7262275247522
1472,319.0946490896076
1473,322.7498691286546
1474,314.6098360891774
1475,295.62749816474025
1476,270.78880329613276
1477,244.1336991723074
1478,215.06613323134297
1479,181.56805266140327
1480,142.39240440171125
1481,99.71813514351561
1482,56.6681913310822
1483,17.631519162690893
1484,-8.022935408384
1485,-9.687226672846009
1486,16.76959083562724
1487,52.813462341402555
1488,74.94833282793297
1489,68.02814703877993
1490,42.59784947866683
1491,14.142384414531989
1492,-3.3753041234176635
1493,-0.0752723406367295
1494,33.198423322844974
1495,91.65272619348798
1496,138.0135793653426
1497,130.5929257011594
1498,60.114707833472494
1499,-17.543131834267115
1500,-39.236651126571815
1501,10.634091905201785
1502,65.6120389840089
1503,52.20113160824985
1504,-42.83368894706109
1505,-143.91348162915165
1506,-170.07530560630767
1507,-105.75422026668821
1508,-17.187285217163662
1509,26.24543971791718
1510,8.6688944978996
1511,-29.300981132955712
1512,-45.9282476442404
1513,-29.510965718183797
1514,5.112803751588217
1515,42.17799966130042
1516,66.03556069827755
1517,61.11742534221594
1518,15.276531866446021
1519,-47.24518166078633
1520,-80.26577737502703
1521,-45.18531761432678
1522,31.978135082072185
1523,93.65151797504404
1524,91.91976812691064
1525,41.46782240276298
1526,-18.61338252819587
1527,-55.883910191303585
1528,-70.92482430507516
1529,-74.41018877984789
1530,-73.04406771638969
1531,-58.48052540453864
1532,-18.816626321788135
1533,48.49856486810677
1534,118.87498331653114
1535,162.84956399143994
1536,162.3492416787849
1537,124.72895098395566
1538,60.86362633320823
1539,-12.53079802485263
1540,-68.72438801782391
1541,-80.70920974803539
1542,-51.44932949105532
1543,-23.527813694196084
1544,-40.35472897503041
1545,-99.61014211985366
1546,-152.56812008219094
1547,-151.76072998124528
1548,-100.73603910036763
1549,-42.46511488552005
1550,-17.10402494369555
1551,-25.478837041361658
1552,-45.56061910289009
1553,-58.35843920895513
1554,-68.35636559495197
1555,-90.11646664938326
1556,-131.47281091224795
1557,-166.66446707341038
1558,-159.5205039709699
1559,-92.99899058962274
1560,-17.123996058993725
1561,3.4614103480116682
1562,-61.133840783099004
1563,-154.76381900675005
1564,-208.59859401557242
1565,-192.88623563872807
1566,-146.82581384017976
1567,-115.97239871697093
1568,-119.41706049749882
1569,-142.7668695397624
1570,-169.64489632962068
1571,-186.96521147901694
1572,-184.6278857242114
1573,-154.48998992399993
1574,-109.88459505791252
1575,-77.92777222442146
1576,-82.0985926391104
1577,-117.33912763286662
1578,-165.87044865003554
1579,-210.41462724657777
1580,-236.4877350882207
1581,-230.42484394857183
1582,-187.69702570727077
1583,-132.6823523480807
1584,-95.40989595700285
1585,-90.11372872035736
1586,-97.77192292287691
1587,-95.50155094576894
1588,-78.53368526478152
1589,-67.83739844824868
1590,-85.01176315512748
1591,-122.56685213303444
1592,-144.99773821625604
1593,-119.842494323756
1594,-63.93819345717293
1595,-26.04290869880242
1596,-45.60771320957792
1597,-93.46568022702286
1598,-111.31888306321162
1599,-59.591395102704155
1600,20.31171019951762
1601,65.27935932013315
1602,40.87547866957448
1603,-10.595005405863049
1604,-34.52316662191424
1605,-10.19807875422157
1606,25.510184363812186
1607,31.427548843163095
1608,3.0309407413478766
1609,-24.048713935399974
1610,-15.04848922995734
1611,25.772540767885403
1612,66.6593019236334
1613,79.98072006029906
1614,72.62972096063186
1615,66.77323036935195
1616,78.14517399540819
1617,94.72947751423908
1618,97.13706657004514
1619,79.00586677807314
1620,66.87180372691728
1621,91.96680298082265
1622,158.7397900820115
1623,230.4326905530179
1624,268.18842989901805
1625,263.9229336102044
1626,238.83112716413962
1627,213.981936028149
1628,197.08328566170167
1629,188.0661015188216
1630,187.12730905049557
1631,196.4708337071097
1632,218.99060094088964
1633,252.52253620834108
1634,279.2065649727301
1635,278.3236127065493
1636,248.411604894005
1637,222.5284670335286
1638,236.00012464028168
1639,288.2405032486813
1640,340.4605284149393
1641,355.7161257196194
1642,339.2972207701887
1643,323.0647392036044
1644,333.9726066888834
1645,368.0757489297257
1646,410.36309166711544
1647,446.9675606819401
1648,467.6800817976391
1649,463.11958088285337
1650,435.2099838540789
1651,405.40721667835805
1652,396.184205375951
1653,408.35987602305704
1654,421.3211547545079
1655,416.0449677665156
1656,398.1232413193975
1657,386.97890174033364
1658,397.5608754261384
1659,422.1800888460293
1660,446.27846854443396
1661,460.34994114377787
1662,467.72943334731826
1663,473.7128719419625
1664,480.8151838011263
1665,487.7192958875821
1666,492.66813525632824
1667,491.6126290574839
1668,478.73470453917344
1669,449.9822890504547
1670,413.4883100442248
1671,382.40669508017436
1672,366.2313718277237
1673,362.1242680690002
1674,364.6403117018126
1675,364.5224307426424
1676,345.98955332964306
1677,294.07860772567255
1678,223.61652232131655
1679,176.92922563793945
1680,190.54064633073904
1681,244.71771319182608
1682,292.2893551533107
1683,296.0885012904073
1684,258.5540808245396
1685,191.75302312648364
1686,114.91325771950233
1687,60.898714282501714
1688,62.12732265321665
1689,104.96401283137584
1690,130.16071498191923
1691,86.06435943819724
1692,3.8368767052106705
1693,-43.127802537153
1694,-6.051747430862633
1695,65.70397306352515
1696,99.01529017015673
1697,59.72613530117815
1698,-13.089559939954597
1699,-73.57886375514317
1700,-104.30184414830728
1701,-114.75056892202792
1702,-114.69910567416446
1703,-107.62752179449308
1704,-94.07088446127727
1705,-77.34326063787466
1706,-70.53571706929324
1707,-88.61032027875626
1708,-126.50113656423582
1709,-146.2892319949815
1710,-110.5136724080312
1711,-39.378523404707266
1712,0.2781496529087235
1713,-44.586718354507866
1714,-131.95319229995403
1715,-183.15433680655042
1716,-152.3602162439547
1717,-84.06689472477228
1718,-37.28243610094614
1719,-36.92190396013393
1720,-64.21236162206515
1721,-98.53487213488734
1722,-130.61249827149913
1723,-158.11430252586615
1724,-178.99834710931282
1725,-192.09669394681805
1726,-196.47140467327154
1727,-190.6905406297392
1728,-172.36016285969254
1729,-139.4233321052361
1730,-98.16110880330871
1731,-62.3515530818795
1732,-45.23672475612693
1733,-54.56568332458937
1734,-95.83648796531361
1735,-162.54519753198656
1736,-215.2078705500444
1737,-209.90956521276894
1738,-146.21233937737634
1739,-76.93725056106723
1740,-52.75135593709092
1741,-71.50071233077233
1742,-101.61837621552695
1743,-117.93640370887078
1744,-120.59485056839276
1745,-115.60377218773283
1746,-107.41322359253718
1747,-97.99525943638582
1748,-88.89593399671958
1749,-78.88230117074363
1750,-64.75941447131027
1751,-46.479327022801044
1752,-39.10409155697289
1753,-62.015760408799906
1754,-114.11338551229255
1755,-155.11901839631355
1756,-142.848710180353
1757,-78.88451157031432
1758,-1.2394728542576559
1759,54.39835610184582
1760,72.0419258584061
1761,42.626187406493045
1762,-24.8359078278354
1763,-81.92640797922104
1764,-78.06136073865491
1765,-25.26881334911559
1766,6.587187398804417
1767,-37.87040482869361
1768,-110.10463590422205
1769,-121.9395512347619
1770,-36.64719575722938
1771,62.02138606600511
1772,77.43115025158022
1773,9.163053299643252
1774,-50.49694780162281
1775,-23.45589557148105
1776,53.06516796791675
1777,96.75420129609302
1778,61.50316339883011
1779,-13.658986227228525
1780,-78.86528756996177
1781,-113.39178009712668
1782,-124.07650275171545
1783,-118.55349394728
1784,-102.65879156323354
1785,-81.5764329401618
1786,-61.78445487508088
1787,-52.595893616706235
1788,-62.83978486068918
1789,-85.54116374483965
1790,-99.92106484432952
1791,-88.98552216687767
1792,-58.866569147926384
1793,-23.446238645782614
1794,6.185437063245445
1795,24.359426289733165
1796,26.69769793604428
1797,18.703221501250482
1798,13.388967086072626
1799,19.040905397842835
1800,21.918007755468352
