800,183.1012662361145
801,170.4740475458657
802,150.08924511943496
803,126.33406133472181
804,103.39869807033665
805,85.46935670473886
806,76.02723811539636
807,76.12754267795572
808,86.30347026541858
809,106.9702202473436
810,134.46699148904736
811,160.01098235082463
812,174.50839068717687
813,170.47741384606252
814,153.07124866814138
815,133.3790914860556
816,122.50613812369465
817,126.64058389549791
818,139.5176236057523
819,152.93445154791152
820,158.95826150391895
821,154.97624674354756
822,143.2776000237509
823,126.33751358802238
824,107.04117916577525
825,90.47278797172112
826,82.41453070526586
827,88.57859754992569
828,108.26417817273432
829,129.75246172368315
830,140.2396368351565
831,128.43189162138606
832,99.55241367792041
833,69.06339008108625
834,52.57300738748472
835,59.26545163348783
836,77.63590833474245
837,92.02256248568301
838,87.32859855907463
839,63.50520050553769
840,36.92055175310725
841,24.763835206791555
842,40.75223324814306
843,77.67492773483445
844,120.51010000026054
845,154.30493085313628
846,171.3756005771038
847,177.57128893036315
848,180.20617514530295
849,186.05943792813923
850,195.7402554585742
851,205.9198053894561
852,213.21226484645467
853,215.59181042773525
854,215.31561820366733
855,215.48786371651477
856,218.9957219801454
857,223.633367479767
858,221.96897417164655
859,206.34271548285415
860,171.69676431101288
861,126.73029302406576
862,84.6894734600337
863,58.69647692679882
864,54.099474201898374
865,63.95963553231013
866,80.25313063426893
867,95.59812869307916
868,108.23079836293255
869,119.29130776675174
870,129.94082449602774
871,140.93951561067024
872,152.07454763887017
873,162.9950865769615
874,173.37929788931342
875,183.45234650820657
876,193.8433968337249
877,205.19761273366476
878,217.34315754345243
879,227.18519406604992
880,230.9758845719016
881,225.1833907988539
882,212.11387395211568
883,200.3434947042051
884,198.76341319491348
885,213.34278903127688
886,234.78578128754725
887,248.8265485051943
888,241.48524869288303
889,213.48803932648843
890,187.16207734910222
891,186.54551917105164
892,230.52352066992262
893,299.81423719059694
894,358.0218235452958
895,368.88343401362727
896,321.4752223426385
897,254.19434174689104
898,211.1179449085239
899,231.55818397733583
900,305.88321057087524
901,395.74417577453005
902,462.4572301416347
903,481.28252369357506
904,462.536205919906
905,421.9544257784737
906,374.82733169555286
907,330.15307156597373
908,292.30579275327636
909,265.5466420898565
910,252.9947658771298
911,254.14830988569156
912,267.7924193554927
913,292.4952389960208
914,322.72791298647917
915,349.3225849759883
916,362.98439808378134
917,356.9474948994084
918,334.1950174829526
919,300.04010736525015
920,259.8319055481097
921,219.7865525045545
922,187.01718817904748
923,168.67695198775255
924,170.29998281876942
925,190.1294190324079
926,224.35039846143263
927,269.06305841135327
928,317.56153566068224
929,359.8659664612287
930,385.7964865383792
931,387.6172310914026
932,369.93533479373673
933,341.2809317933006
934,310.1291557128134
935,282.8541396500941
936,263.1510161784072
937,254.53491734676936
938,259.07597468030235
939,270.84731918056605
940,281.17108132590147
941,281.51139107179097
942,269.75137785120205
943,252.47317057497003
944,236.87489763214398
945,229.0416868903758
946,228.59566569628896
947,232.82696087587283
948,239.03469873486483
949,244.83300505914303
950,248.28700511513307
951,247.49482365020958
952,240.94658489310314
953,229.45841255431787
954,214.685429826558
955,198.26175938513825
956,180.57252338842864
957,160.29484347827474
958,135.97684078045495
959,107.11363590510791
960,78.5923489471943
961,57.20609948694073
962,49.57800659030545
963,55.121188809440355
964,63.6757641831573
965,64.41685023740138
966,49.10756398572448
967,23.37902192977799
968,-2.511659940219033
969,-18.512366144972475
970,-21.779981715623762
971,-18.419392193265594
972,-15.08348362840843
973,-17.407142580504114
974,-25.998256117411074
975,-39.9557118148914
976,-58.28339775608492
977,-77.3482025309886
978,-90.56801523592458
979,-91.19972547300767
980,-74.45722334961465
981,-43.87439947783787
982,-5.191144973944574
983,35.741648542177245
984,70.81008894756269
985,89.6662836167252
986,81.86133942222659
987,42.30636273523032
988,-14.812540573923798
989,-70.95826513515931
990,-108.23870607808112
991,-119.85475903139559
992,-108.30532012233562
993,-76.39128597607305
994,-29.152553715131944
995,21.74997904121119
996,63.42941417750808
997,83.86785308275284
998,82.32939665097547
999,65.8841452818433
1000,41.771198881282544
1001,16.71165686207769
1002,-3.777381855508793
1003,-14.354818843114117
1004,-9.67455616366442
1005,13.142503629263047
1006,40.39245749205202
1007,51.5304018916986
1008,26.367432806419856
1009,-36.39235427368931
1010,-110.91586434602777
1011,-169.26700289484324
1012,-188.52267589057828
1013,-173.12678978924305
1014,-136.77025153174327
1015,-93.06796854323602
1016,-52.60984873247344
1017,-22.4358004911428
1018,-9.390732693203972
1019,-17.890554694223283
1020,-42.10017633071311
1021,-73.47550791945378
1022,-103.48146025683036
1023,-123.89594461814431
1024,-126.78587275695554
1025,-104.2301569043857
1026,-54.78970976844357
1027,2.5475554666563767
1028,44.77272514118886
1029,51.031885120601146
1030,28.768120796207768
1031,5.299517085878506
1032,8.283158434740471
1033,48.02112881587436
1034,95.35251173101369
1035,115.65139021124924
1036,79.92084681773213
1037,7.341963642381415
1038,-58.48217769140774
1039,-74.20449602805456
1040,-27.963910679072796
1041,41.777658577629154
1042,92.02629149848326
1043,88.73206737496821
1044,47.66406503433518
1045,1.7873628403240218
1046,-16.72196130610064
1047,1.6021700339651943
1048,41.33683383809512
1049,85.77110662327232
1050,120.35206444660162
1051,138.1557829060621
1052,133.93533714122987
1053,103.4268018340199
1054,55.8722512094173
1055,10.313759036225747
1056,-14.027601372195022
1057,-8.444757157189997
1058,12.754364085941233
1059,32.200834308684534
1060,35.154725010063885
1061,26.658107237383774
1062,20.742051586987145
1063,31.236628204997942
1064,60.79990678808099
1065,97.07395658419046
1066,126.63484639333547
1067,139.36564456831638
1068,139.1504190155065
1069,133.5582371955943
1070,129.90716612435608
1071,131.29327237340476
1072,137.39162207096524
1073,147.77628090262078
1074,159.79931411210418
1075,165.63378650203776
1076,156.70876243471866
1077,126.35530583287527
1078,82.40948018043855
1079,39.395348523320536
1080,11.669973470177865
1081,5.627417193182737
1082,17.32174142880376
1083,42.11300747856694
1084,74.58427620984276
1085,106.36860805661854
1086,128.38506302027054
1087,131.99070067034154
1088,114.48958014532946
1089,77.39076015345017
1090,22.34129897343155
1091,-43.289745544718244
1092,-101.11431597892624
1093,-131.4703553342615
1094,-119.78180704217266
1095,-80.95761495968873
1096,-40.518723368642895
1097,-23.12207697489248
1098,-33.325620907519806
1099,-55.86830071806162
1100,-74.64906237971718
1101,-78.80785228656532
1102,-71.44061725276606
1103,-57.95030451178991
1104,-43.66586171562085
1105,-33.29823693396793
1106,-31.26437865347725
1107,-41.8952357769449
1108,-66.38775762253135
1109,-101.99489392296346
1110,-145.71059482474175
1111,-191.96581088737003
1112,-226.48049308254213
1113,-233.11359279335647
1114,-198.52906181353865
1115,-138.24885234663543
1116,-84.7639170052189
1117,-70.33420881011443
1118,-102.29068118959185
1119,-151.1302879785835
1120,-184.35998341787763
1121,-179.15272215334335
1122,-150.843459235125
1123,-124.17815011685343
1124,-121.76375065485536
1125,-140.70721710736325
1126,-161.46050613371244
1127,-164.3675747935531
1128,-142.30738054605445
1129,-108.150881249132
1130,-76.56203515860943
1131,-59.85080092748285
1132,-60.48613760507942
1133,-78.39600463628813
1134,-112.74736186076188
1135,-153.60716951213362
1136,-184.97838821720507
1137,-190.94497899516682
1138,-168.35890325680793
1139,-134.22512280371484
1140,-107.32859982748778
1141,-102.49529690894451
1142,-118.70417701732185
1143,-151.00720350950724
1144,-194.24634012921888
1145,-241.02155100623077
1146,-282.54980065557993
1147,-310.12605397677726
1148,-320.5902762530113
1149,-318.73543315036477
1150,-309.9714907170219
1151,-298.4474153824731
1152,-283.919173956745
1153,-265.2007336295901
1154,-241.36906196970995
1155,-213.93212692396446
1156,-185.68889681658584
1157,-159.50034034839337
1158,-139.80342659599773
1159,-132.91612501102463
1160,-145.2644054193279
1161,-177.55523802019707
1162,-214.7705933855741
1163,-239.20744245928472
1164,-236.05075655622568
1165,-210.13450736160848
1166,-174.45466693015987
1167,-141.81420768534372
1168,-120.38910241857593
1169,-114.09632428845907
1170,-126.64584681997803
1171,-155.73964390373294
1172,-187.01668979516398
1173,-204.64995911375445
1174,-197.21242684226854
1175,-173.8390683259695
1176,-149.6698592718385
1177,-138.6957757477976
1178,-141.1527941819404
1179,-148.29489136174925
1180,-151.354044433323
1181,-147.7872309006034
1182,-143.56342862459678
1183,-145.27161582261215
1184,-155.54577106747456
1185,-165.25787328676233
1186,-163.128901762042
1187,-140.3188361280827
1188,-104.73865637209201
1189,-71.2863428329565
1190,-54.15187620046527
1191,-54.161237514545064
1192,-60.50440816448645
1193,-62.0503698881912
1194,-53.284104771397324
1195,-38.59259524692243
1196,-23.38082409388153
1197,-12.498774436959138
1198,-8.715429745605434
1199,-14.304773833313448
1200,-30.680790856826206
1201,-51.91046531539723
1202,-68.37478205003572
1203,-70.76372624272517
1204,-57.66828341568544
1205,-35.55543943061093
1206,-11.227180487916485
1207,8.718506874027298
1208,18.12663577962121
1209,10.88021901682805
1210,-14.180730962099915
1211,-38.13520203987537
1212,-36.97318243339396
1213,8.467339306978829
1214,74.82137429817885
1215,116.72193332518873
1216,90.86502684177321
1217,5.3006649712442595
1218,-81.16414249282025
1219,-107.88038608579154
1220,-52.71305667129491
1221,34.45885455956886
1222,95.83335608895504
1223,90.67445607300397
1224,41.33916234260141
1225,-15.25851759589932
1226,-46.043576559924986
1227,-47.09100768995995
1228,-27.788804448799056
1229,2.5640393791782117
1230,37.47052968875869
1231,72.81267205461154
1232,104.53147173203251
1233,127.58793365766178
1234,135.45506245024262
1235,121.47486241131264
1236,86.59533752596872
1237,53.48149146356991
1238,48.67232757848251
1239,91.85984891078988
1240,164.86305818703113
1241,236.50595782092205
1242,277.95054991406687
1243,286.9908362567094
1244,278.1358183284192
1245,265.83449729883796
1246,255.65787402838396
1247,243.42894906898255
1248,224.51172266478352
1249,199.2791947528567
1250,177.7323649639493
1251,170.96223262315652
1252,184.86479675066767
1253,207.36505606245555
1254,222.48700897101662
1255,217.6746535860584
1256,202.29798771521928
1257,194.36300886477875
1258,210.4117142403611
1259,248.1771007476509
1260,292.59516499309757
1261,328.58690328461853
1262,348.27931163229914
1263,352.0143857491148
1264,340.60112105161716
1265,317.8905126606405
1266,293.50255540201033
1267,277.7092438072359
1268,277.0805721142151
1269,286.09853426792324
1270,296.7861239211288
1271,301.7273344350797
1272,296.7001588801995
1273,278.60159003677836
1274,245.61062039568424
1275,208.98124215903772
1276,187.6714472409094
1277,199.5952272680297
1278,238.54657358045188
1279,275.5524772322624
1280,281.12992899226447
1281,247.5629193446639
1282,199.72043848976318
1283,165.12647634464156
1284,161.0150225438465
1285,179.8990664400717
1286,210.66059710485933
1287,243.95360332926248
1288,277.41607362453396
1289,310.4049962228255
1290,341.55535907784724
1291,364.7911498655558
1292,372.1533559848376
1293,356.85996455818713
1294,325.41696243238766
1295,292.6513361791822
1296,273.1590720959448
1297,273.7931562063841
1298,294.03557426119005
1299,332.92831173872037
1300,382.0513538456744
1301,422.3416855177711
1302,433.9602914204097
1303,408.7511559493523
1304,363.76626323139135
1305,319.3565971250264
1306,292.6181412211208
1307,289.8478788435823
1308,315.11179305003134
1309,368.30586663246686
1310,427.969082117932
1311,465.80542176918243
1312,457.805867585359
1313,414.38140130263855
1314,362.4590043949229
1315,327.76165807447796
1316,318.9043432926137
1317,332.55904074034333
1318,364.94473084904166
1319,407.55939379112715
1320,447.20400948069255
1321,470.69855757419646
1322,475.61201747109953
1323,474.63736831454844
1324,481.5465889920197
1325,501.1236581359826
1326,520.2625541245561
1327,523.7412550821846
1328,504.8537388802706
1329,481.08998313785014
1330,474.2089652222512
1331,498.18866224973135
1332,535.2090510861635
1333,559.348108347669
1334,549.7158104012833
1335,514.9881333656103
1336,474.54505311148023
1337,446.39154526260063
1338,436.53458519621563
1339,444.9801480437527
1340,471.0912086914941
1341,506.8427417812054
1342,539.1807217108089
1343,555.5481226350366
1344,554.9909184660737
1345,547.0560828742127
1346,541.4685892885191
1347,541.1304108974691
1348,540.7785206496137
1349,534.7098912542224
1350,518.8674951819412
1351,491.7693046654422
1352,452.2042917000781
1353,404.61942804453065
1354,365.06068522147325
1355,350.97203451820496
1356,369.0824469873187
1357,397.32089344734595
1358,408.82234448341114
1359,386.3627704478786
1360,346.64614146101303
1361,313.8584274116256
1362,306.62059795772984
1363,317.90062252718417
1364,333.2954703183641
1365,341.0471103007967
1366,345.30951121581165
1367,356.1256415772168
1368,381.0504696719272
1369,408.2229635606236
1370,416.6920910784138
1371,388.5298198354849
1372,337.16011721774885
1373,294.2589503875042
1374,288.94628628408645
1375,312.81209162451887
1376,330.65033290418614
1377,308.8749763974665
1378,253.72998815839674
1379,205.88633402133382
1380,205.68697960160353
1381,256.6048902961629
1382,323.8580312842478
1383,371.45736752804805
1384,383.9048637733431
1385,371.02148455018323
1386,344.16619417353286
1387,313.1169567439392
1388,285.3437361481865
1389,268.0954960599629
1390,265.22319994051395
1391,274.76681103931514
1392,294.17229239472726
1393,318.71960683465295
1394,339.3567169772232
1395,346.53558523143874
1396,338.48517379785335
1397,331.5154446692213
1398,344.49135963118533
1399,384.7348802629258
1400,428.5329679378392
1401,447.00858382421393
1402,423.6426888858805
1403,380.078243882901
1404,345.30420937223425
1405,339.9065457084125
1406,354.90921304420226
1407,374.8411713313071
1408,386.70138032100476
1409,387.3647995648589
1410,376.14638841538
1411,355.24710602669984
1412,339.6499113552709
1413,347.91076316053477
1414,391.61262000559327
1415,447.8654402579159
1416,483.14918209000825
1417,471.73780348010587
1418,430.3112622128501
1419,389.88951587999327
1420,376.5705218810763
1421,387.12823742412
1422,407.5816195263196
1423,425.46462501474343
1424,438.13721052702203
1425,446.8453325120372
1426,453.09694723064604
1427,460.1840107563439
1428,472.1414789759983
1429,492.1533075905263
1430,517.1454521156156
1431,541.2728678824205
1432,559.0355100382694
1433,567.6523335473867
1434,565.6002931915737
1435,552.9273435709565
1436,542.0904391046679
1437,551.4825340315929
1438,596.2965824110506
1439,665.0255381235456
1440,733.0743548714727
1441,777.679986179839
1442,792.3793853969946
1443,778.8295056953557
1444,740.507300072124
1445,695.7737213500459
1446,670.4747221781035
1447,685.9002550322748
1448,724.1672722162748
1449,747.7157258622738
1450,724.423567931648
1451,669.0167502157256
1452,619.5542243365271
1453,609.3359417475076
1454,631.0878537343178
1455,657.707911415544
1456,664.737065743464
1457,649.8722675048102
1458,621.3684673215121
1459,587.4676156514779
1460,555.8376627893394
1461,533.8785588672326
1462,527.3722538555467
1463,530.3536975637107
1464,531.6868396409627
1465,521.888629577119
1466,502.93501670335354
1467,481.5809501929889
1468,463.1703790622669
1469,443.95125217113855
1470,416.60551822405614
1471,375.44812577075754
1472,324.4410232070677
1473,271.0711587756923
1474,222.7714805670148
1475,186.69093651990534
1476,169.8854744225182
1477,176.08304191310435
1478,192.7065864808319
1479,202.1810554665817
1480,191.1393960637779
1481,164.89355531920683
1482,133.90648013383634
1483,106.63711726364636
1484,83.56741332046204
1485,63.212314772774334
1486,43.63276794659305
1487,21.29871902627292
1488,-7.666885944637215
1489,-41.949101062547925
1490,-64.27998056298566
1491,-54.338578819730174
1492,-3.7119503439607797
1493,64.00885021659724
1494,119.94276807854021
1495,143.82374832365986
1496,135.46273589979864
1497,97.59467562174359
1498,41.73451217208367
1499,-2.9768098978938724
1500,-5.579346167318363
1501,38.726847655138045
1502,89.58771573217746
1503,102.72820209875135
1504,64.98325066297002
1505,9.028805207012738
1506,-29.39719061197593
1507,-37.7757932609602
1508,-32.64305933011201
1509,-31.87104553187328
1510,-40.12580870004422
1511,-48.125405788848184
1512,-46.57789387199955
1513,-38.349330141769315
1514,-37.063771908045055
1515,-55.28927659736928
1516,-85.59190175200911
1517,-105.85770502899959
1518,-96.00774419916615
1519,-61.34007714618656
1520,-22.443761865602937
1521,2.1531435361421245
1522,12.549580842679461
1523,17.950491728704037
1524,25.000817760949758
1525,23.764500399192002
1526,-2.168519002764697
1527,-61.80229919608246
1528,-127.8048990358875
1529,-161.7123774802585
1530,-139.34979358920918
1531,-90.69020652367453
1532,-58.51267554448168
1533,-70.67326001131732
1534,-111.62601938169973
1535,-158.0020132099371
1536,-190.03230114607595
1537,-196.0369429348557
1538,-165.61099841465875
1539,-104.13952751643683
1540,-44.13159026265566
1541,-20.22724676621965
1542,-44.09955722939412
1543,-97.03658194272703
1544,-158.32138128395218
1545,-209.46701571691028
1546,-234.25854579043516
1547,-218.12703213726218
1548,-170.12653547290665
1549,-117.55811659455867
1550,-85.58783637995384
1551,-72.66775578625129
1552,-61.71793584889747
1553,-38.89943768048852
1554,-14.588322469626291
1555,-9.561651479762986
1556,-37.92248604805354
1557,-80.4118875841832
1558,-107.43891756920584
1559,-100.28563755436426
1560,-78.37910915991142
1561,-69.48039407392298
1562,-87.14355405110291
1563,-109.77565091158522
1564,-110.6147465397271
1565,-79.91790288289121
1566,-37.956181950241444
1567,-7.733645811490533
1568,0.9676434042976325
1569,-4.915376490024755
1570,-17.7437677384587
1571,-37.173592640599054
1572,-69.46091355038607
1573,-119.43979287482671
1574,-172.63329307273216
1575,-202.16847665343812
1576,-186.02640617550696
1577,-139.568144245457
1578,-94.79975351644043
1579,-77.29429668694775
1580,-81.20883649949428
1581,-91.260435739292
1582,-95.217157232928
1583,-90.55506384702312
1584,-76.67721848689689
1585,-55.2676840952081
1586,-32.80452365060137
1587,-16.317800166345478
1588,-9.731576688953282
1589,-12.569916296810334
1590,-23.857882098775008
1591,-39.122537232799914
1592,-50.54394486451292
1593,-51.10716818581568
1594,-44.9842704134644
1595,-43.59131478764084
1596,-55.45136457051558
1597,-68.11048304481392
1598,-60.2047335123616
1599,-19.037179292623478
1600,30.694116278757974
1601,54.26408985143917
1602,33.546678061854436
1603,-5.199182465289596
1604,-28.57455511550961
1605,-21.687503283052138
1606,-1.100090369366626
1607,14.173620218411997
1608,22.08356506900327
1609,39.17168076851431
1610,81.02790390199607
1611,138.04817105499387
1612,182.85241881512684
1613,192.05258377365135
1614,174.23260252705222
1615,152.11541167863106
1616,144.28594784011693
1617,151.29414763327168
1618,168.91194769150843
1619,195.24128466152888
1620,234.29209520494896
1621,290.7213159999619
1622,352.97188374298275
1623,384.5557351503212
1624,349.2738069598572
1625,262.79803593271754
1626,190.162358854981
1627,191.51071253937607
1628,256.6830338269956
1629,334.56125958901794
1630,380.86232672844653
1631,392.1071721818371
1632,378.82373292106877
1633,355.3579459550938
1634,347.83874833171103
1635,384.4390771393473
1636,468.5518695088522
1637,559.0930626153004
1638,611.4525936797945
1639,611.1003999712984
1640,575.5174188084629
1641,524.2415875614706
1642,482.2028436538885
1643,477.7291245645247
1644,531.5253678293147
1645,619.8555110431907
1646,703.0424918619929
1647,752.6102480043555
1648,775.0857172536435
1649,783.6908374598534
1650,783.3355465415816
1651,764.5377824879433
1652,717.4714833605522
1653,656.7775872954826
1654,621.3270325052426
1655,644.7077572807857
1656,698.8136999934941
1657,720.8487990972053
1658,666.2019931302348
1659,580.9972207174042
1660,538.890420572111
1661,579.0455314983637
1662,652.93349239287
1663,699.0272422471071
1664,690.505720149431
1665,648.5028652871688
1666,597.0786169487419
1667,551.168914525796
1668,518.72769751534
1669,506.8159055219048
1670,517.6624782597
1671,551.4973555547958
1672,598.685477347316
1673,616.7647836936276
1674,556.9332147685718
1675,415.95471086767157
1676,269.02721240938354
1677,195.69765993733927
1678,205.12199412261907
1679,241.48115576601413
1680,253.03108580032222
1681,241.8177252926489
1682,236.10401544672004
1683,253.7008976052066
1684,271.22731325206405
1685,255.51820401488385
1686,194.98451166725863
1687,119.27117813116001
1688,61.86014547933337
1689,36.95835593769425
1690,39.69175188774989
1691,63.54427586902966
1692,95.00287058152753
1693,116.97147888816198
1694,114.34104381723955
1695,80.01650856495144
1696,9.006816497855652
1697,-86.59708884459906
1698,-162.65326374755114
1699,-173.5907643181954
1700,-119.45764648321983
1701,-43.54496598624337
1702,12.909221614762828
1703,38.72786095007268
1704,36.87889684080892
1705,12.368274301574274
1706,-23.05206145691409
1707,-56.17316502518497
1708,-75.88109079233072
1709,-74.53189294333788
1710,-46.092625456387395
1711,-5.635342100148591
1712,14.701903568946364
1713,-9.9209417905613
1714,-55.41593130240199
1715,-78.84311786981198
1716,-57.812554172746786
1717,-26.447292665083296
1718,-27.59438557181693
1719,-69.32188488621887
1720,-115.13584236700353
1721,-128.8693095354647
1722,-110.25533767260822
1723,-81.05497781625672
1724,-60.5502807581488
1725,-55.55329704101496
1726,-69.40707695565015
1727,-98.68067053795403
1728,-126.9301275659709
1729,-137.11449755690774
1730,-129.6258297641234
1731,-120.48217317413219
1732,-123.52657650356105
1733,-134.29008819611136
1734,-140.810756419487
1735,-135.3946290623262
1736,-122.17475373110119
1737,-107.22017774700635
1738,-93.45094814283766
1739,-79.92611165983726
1740,-66.01571474453795
1741,-56.24780354559698
1742,-58.03742391058222
1743,-74.89862138278113
1744,-95.65144119795423
1745,-105.81892828111086
1746,-101.3291272432316
1747,-94.50508237800113
1748,-98.1928376585056
1749,-112.8224367339235
1750,-130.07392292619625
1751,-142.90633922668076
1752,-151.2197282927882
1753,-156.94013244458802
1754,-158.1495936614292
1755,-145.59515357850978
1756,-110.20485348344846
1757,-60.14073431282304
1758,-17.918836648713295
1759,-3.380200715200772
1760,-18.62586637487493
1761,-59.52487312529411
1762,-111.91226009545426
1763,-139.76606604222889
1764,-106.81832934678187
1765,-30.942088010980115
1766,19.97162034622852
1767,-9.807241507549406
1768,-88.30471041450983
1769,-150.03082282297146
1770,-152.73861478368963
1771,-108.77612194614358
1772,-38.80437955481375
1773,25.8265775545633
1774,43.46171495876479
1775,-17.00100134913282
1776,-116.47460495595624
1777,-188.3941290246048
1778,-192.49460629021905
1779,-150.33906905630738
1780,-91.98654919087312
1781,-39.609078122507526
1782,-7.92668683647662
1783,-7.916405870779272
1784,-29.403265312182157
1785,-54.30129479224979
1786,-69.60052348333465
1787,-73.52298009456626
1788,-66.32569286780745
1789,-58.23268957359778
1790,-68.17299750706843
1791,-105.9606434838488
1792,-130.6336538359419
1793,-84.55305440758457
1794,36.684129448914064
1795,134.70987287735443
1796,107.79515152185559
1797,-20.628058468938434
1798,-132.29478043759354
1799,-136.92703721363432
1800,-80.91585110924825
