800,105.42517235180367
801,69.51667349640411
802,35.35716521818722
803,7.367844050124404
804,-11.658093824545176
805,-18.95345257428926
806,-13.201036721239689
807,1.901348856864388
808,21.579898924765075
809,41.1778078877669
810,60.12026978985341
811,82.9614783118086
812,114.573626769361
813,158.11290811134404
814,203.31951491786185
815,233.62863939849103
816,232.4744733904745
817,193.22820835695256
818,134.4460353851946
819,78.59814518484745
820,47.24272808621936
821,44.00797403854722
822,55.995072608308874
823,69.69821297752424
824,74.12858394210252
825,71.47937391017331
826,68.22777090045292
827,70.80196254062321
828,80.85913606571648
829,91.88947831652422
830,96.56717573802052
831,88.34041437778978
832,69.09737988448796
833,45.96425750630169
834,26.131232089428522
835,15.1704880765692
836,13.430209505446328
837,20.202580007311553
838,34.70178280550681
839,53.95600071398985
840,72.6094161359224
841,85.1892110622448
842,87.60756707026394
843,84.14666532227056
844,82.19968656416131
845,89.122811124078
846,107.32421891104605
847,130.02508941366432
848,149.44960169875594
849,158.35193441007868
850,155.5662657670291
851,143.80177356336026
852,125.8346351659111
853,105.11602751335886
854,87.24712711498432
855,78.24811004943331
856,83.8421519635067
857,102.61642807097269
858,125.85611315136521
859,144.51638154882494
860,151.3704071709235
861,148.74036348752088
862,142.11342352964675
863,136.9257598883596
864,135.3745447136389
865,134.54794971331103
866,131.08514615193417
867,122.1393048497539
868,109.44259618163414
869,97.08419007601151
870,89.17025601386922
871,88.25796302770323
872,93.1924797005322
873,102.26897416488828
874,113.85061410183698
875,127.27456674000314
876,142.62099885462703
877,159.99107676658605
878,178.65796634149774
879,194.9218329887699
880,204.4178416606901
881,203.04115685154284
882,193.52194259670432
883,185.94636247178096
884,190.7645795917324
885,214.96775661003085
886,247.48905571780233
887,271.379638643024
888,270.000666649672
889,243.12830053695143
890,214.63370063846378
891,210.30602682145582
892,251.17543848602145
893,323.0980945643587
894,396.1591535200023
895,440.5007733470993
896,441.97511156965993
897,417.0263252408731
898,385.61857094236075
899,366.1250047835092
900,360.600782400772
901,361.5200589569995
902,361.2449891407705
903,354.5487271657439
904,342.28142677001415
905,326.23724121548184
906,308.3343232872194
907,292.3298252928762
908,283.3328990620721
909,286.4776959457995
910,303.56236681584596
911,325.82106206423305
912,342.4099316026459
913,343.0181248618883
914,327.27979079133183
915,303.6830778584008
916,281.02113404804913
917,266.0611068622402
918,257.7981433194491
919,253.3483899541843
920,249.95099281649163
921,247.5520974714891
922,248.91984899890303
923,256.9553919926202
924,273.09487056023863
925,292.2004283226415
926,307.2862084135704
927,311.5783534792008
928,305.0800056777589
929,295.7373066791024
930,291.94439766434516
931,299.962419325484
932,315.2045118650258
933,329.64481499561407
934,335.4124679397064
935,330.7756094292072
936,321.85837770515354
937,315.3009105173751
938,315.8943451241994
939,318.18081829212315
940,313.1964662955306
941,292.1594249164009
942,255.00282944402716
943,213.45781467473898
944,180.102514911654
945,164.8580639644024
946,162.23959514890885
947,161.22924128712293
948,151.00513470681653
949,130.67940724134132
950,113.15519022943408
951,112.35361451500467
952,138.2098104469278
953,177.27390787887634
954,207.6060361691234
955,207.64632418038127
956,173.73990027962282
957,126.94789233794108
958,90.14842773038981
959,81.89863333584617
960,96.13563553687891
961,118.08156021962168
962,133.12753277364754
963,134.27367809187672
964,124.62512057045387
965,107.986984108662
966,88.21439210884819
967,69.44146747631203
968,55.8843326192673
969,51.638109448749674
970,56.0279193785791
971,62.49088332529027
972,64.08912170810981
973,55.397754448895284
974,38.33090097213062
975,17.028680204890406
976,-4.488789423174239
977,-25.422389979839863
978,-48.598004030320226
979,-77.03351463723993
980,-111.17880536065604
981,-140.58776025799853
982,-151.90926388407206
983,-132.51820129101725
984,-86.17945802825852
985,-32.783920142479474
986,7.08652582245486
987,18.62699282554422
988,7.8295933287135995
989,-14.629560703097013
990,-38.3293578018729
991,-57.305686996418444
992,-69.33643781227511
993,-72.31150027163312
994,-64.57276489320793
995,-45.78012269214378
996,-15.838465179884224
997,24.724315635936364
998,67.36532725164398
999,97.98267666763422
1000,102.39047038853096
1001,75.07581442333685
1002,31.026814285567525
1003,-11.80942500655874
1004,-35.47079892999136
1005,-25.777203456640564
1006,5.997464946771288
1007,38.088309318907704
1008,48.968432204004785
1009,30.97693565206646
1010,-3.6510787809420435
1011,-41.132510032884966
1012,-69.3262575352328
1013,-85.04422121287462
1014,-88.12430148385829
1015,-78.53139925919459
1016,-60.19741594260813
1017,-41.7052534302984
1018,-31.92381411070346
1019,-37.07900086424161
1020,-52.29271706306463
1021,-69.7588665707899
1022,-81.73335374224553
1023,-82.0420834231918
1024,-65.95096095004737
1025,-28.787892149608524
1026,28.333216661232655
1027,86.05745867578298
1028,121.43092659784452
1029,113.61871264201181
1030,69.53890853397752
1031,15.591605510844602
1032,-21.44910567855368
1033,-25.21613477334722
1034,-3.004392000288135
1035,34.61321192657488
1036,77.50276580620994
1037,119.26435795097495
1038,155.3870761869439
1039,181.37600785425093
1040,193.1602398074465
1041,187.32985841586742
1042,160.53794956397724
1043,112.08059865174619
1044,55.9538905950285
1045,11.229909825919094
1046,-3.6552597068566683
1047,11.745465462445281
1048,38.165168316972995
1049,55.31793135766202
1050,49.309836603646545
1051,28.8389655926494
1052,7.586399381398223
1053,-1.6027814539847896
1054,2.5255031824599428
1055,12.80833290692317
1056,21.908786856249208
1057,25.474943688383064
1058,25.701881582775968
1059,25.64767824082992
1060,27.79841088633293
1061,30.356156265901518
1062,29.560990649435553
1063,21.76598983054464
1064,8.422229127018
1065,-2.164216618721184
1066,-1.1982730391518999
1067,17.05013375879571
1068,45.362077194222366
1069,73.09863021272577
1070,90.02486528686859
1071,92.53785441666878
1072,82.3976691300868
1073,61.52838048348167
1074,34.16805906213813
1075,9.950774980732604
1076,-0.7144021161584533
1077,10.93959694644036
1078,41.067840874400645
1079,80.01539790500283
1080,118.09033580744472
1081,145.11472188334847
1082,150.30462296729092
1083,122.83010542730517
1084,59.393235165420265
1085,-14.39192238182477
1086,-65.97230224284976
1087,-65.53183991049082
1088,-19.733471341478435
1089,38.93886704410761
1090,77.55123836338134
1091,78.61070527119409
1092,54.38432996067422
1093,20.53717416379004
1094,-8.90770084810174
1095,-29.512234263693244
1096,-40.2763657311898
1097,-40.44903535771846
1098,-34.69018370876802
1099,-32.99775180764482
1100,-45.58968113487208
1101,-76.25891362763105
1102,-111.66539167918563
1103,-135.64305813829742
1104,-134.57085630865004
1105,-115.45672994825873
1106,-95.283623268886
1107,-90.76748093545575
1108,-106.29024806545203
1109,-130.71387022833187
1110,-151.89929344492703
1111,-160.53346418684305
1112,-156.87332937584688
1113,-143.21183638328512
1114,-122.41493302945128
1115,-103.26156758299112
1116,-97.99768876029339
1117,-118.64024572485323
1118,-161.93318808668846
1119,-202.05646590168362
1120,-211.3580296709988
1121,-172.91483034043085
1122,-112.16481929978727
1123,-64.9929483822616
1124,-63.75216986380292
1125,-98.62143646247387
1126,-132.24270133784012
1127,-127.22891809028806
1128,-77.27504076043988
1129,-25.610023828463454
1130,-19.92782221347079
1131,-90.78939127283047
1132,-197.47068680155462
1133,-280.7076650316285
1134,-286.5742826313708
1135,-226.3964967047632
1136,-154.92626479082537
1137,-127.15154486291067
1138,-161.33729532809048
1139,-217.7794750264693
1140,-251.63204323052378
1141,-231.98295964444515
1142,-183.42518440345702
1143,-144.36767807316392
1144,-149.46840164886999
1145,-191.5503165548962
1146,-237.42738464394097
1147,-253.9595681963474
1148,-230.88782991948756
1149,-190.76213294702575
1150,-158.68744083828824
1151,-153.08671757752927
1152,-169.2299275732912
1153,-197.39003565769235
1154,-228.35500708573454
1155,-257.73280753463223
1156,-283.6924031031158
1157,-304.3397603107187
1158,-315.11484609710715
1159,-308.2546278213722
1160,-275.816073261336
1161,-217.02615061284632
1162,-150.80282848907882
1163,-99.4380759198375
1164,-81.62486235084725
1165,-91.60415764305253
1166,-113.44993207189873
1167,-131.75415632663862
1168,-142.16880150962243
1169,-150.58583913555776
1170,-163.24124113085236
1171,-181.21997983283836
1172,-195.26502798910587
1173,-194.86335875675468
1174,-173.2899457016938
1175,-141.5137627979202
1176,-115.67378442678455
1177,-110.59098537628961
1178,-125.31734084035452
1179,-148.62482641808674
1180,-169.18341811307437
1181,-180.12509233263518
1182,-180.66082588710378
1183,-170.44259598911412
1184,-150.89438025283016
1185,-128.66915669326045
1186,-111.38990372548687
1187,-104.90860016395527
1188,-102.99222522172931
1189,-94.36375850976037
1190,-68.53918003614854
1191,-29.824470205387115
1192,4.622390182339586
1193,17.351419931939745
1194,4.132637454114956
1195,-15.949939233858458
1196,-21.421292507417093
1197,0.9885948660576105
1198,33.66073972796585
1199,51.70415852924816
1200,34.275867331136396
1201,-5.2031181941038085
1202,-36.08978276243761
1203,-29.09811147727123
1204,10.638910171257521
1205,43.68629630706346
1206,29.331060668844657
1207,-43.705783389148564
1208,-129.03222289635414
1209,-173.5262452651641
1210,-140.03483829014476
1211,-56.11799014728058
1212,34.26931060676361
1213,90.94007503543071
1214,107.0093138230186
1215,92.79203727543609
1216,58.865255320979486
1217,18.08797751108432
1218,-14.413786978901044
1219,-23.521029348965385
1220,-5.826741173645132
1221,20.188085598723774
1222,33.62445864678193
1223,21.159385276903777
1224,-2.557127576024868
1225,-16.420073347822836
1226,-2.453445844274029
1227,33.53576075966885
1228,74.87855192064853
1229,105.31193272767632
1230,116.63090790289425
1231,107.47348180238441
1232,76.87165841689057
1233,34.17344137265172
1234,4.572833932132198
1235,14.617838994823614
1236,75.49245909802812
1237,154.42869641760808
1238,210.8385527687933
1239,212.50902960695203
1240,173.56912802836996
1241,124.05884877103381
1242,92.59519221541268
1243,91.52815838524475
1244,123.00074694830982
1245,188.3229572172295
1246,270.45178815023974
1247,332.16723835198354
1248,335.4613060742904
1249,272.80198921697047
1250,195.13128532859992
1251,160.0431916073012
1252,203.47670490154815
1253,286.39682171094137
1254,353.52953818700735
1255,358.94985013397127
1256,316.6957530095824
1257,264.4292419258727
1258,237.14831164996758
1259,235.42295660487252
1260,236.38217087026715
1261,217.4949481833046
1262,179.98828193940608
1263,152.12516519305063
1264,163.48059065857342
1265,222.88155071096844
1266,299.7710373866812
1267,359.16104238440494
1268,376.9295570658851
1269,364.39157245671777
1270,340.05807924714827
1271,320.0530677928673
1272,306.77252811582
1273,297.75944990500466
1274,290.86582251727486
1275,287.10563497814474
1276,289.3598759825891
1277,300.32253389585276
1278,318.2845967542489
1279,337.3890522659676
1280,351.6788878118896
1281,358.84509044637525
1282,362.04864689810165
1283,364.8875435708287
1284,369.56776654425084
1285,374.9113015747789
1286,379.24813409635135
1287,380.25124922126633
1288,372.994631740974
1289,351.9122661268739
1290,313.79013653117727
1291,270.7552267876654
1292,241.0755204125362
1293,241.12700060520547
1294,265.88765024912755
1295,296.93545191261364
1296,316.3163878496325
1297,320.5164400006506
1298,319.75458999342845
1299,324.650819143857
1300,338.36710845676134
1301,353.39943862672953
1302,361.45979003892353
1303,361.26614276991677
1304,366.66447658850484
1305,393.4767709565167
1306,448.3530050296704
1307,507.53415765835234
1308,540.9572073884883
1309,526.176132462333
1310,479.7899108193051
1311,430.8895200968327
1312,405.15093763115146
1313,400.7571404581522
1314,402.7211053142091
1315,396.96480863699253
1316,382.51822656631884
1317,367.5503349449791
1318,360.18610931954936
1319,363.20052494124866
1320,374.03955676677106
1321,389.9541794590914
1322,409.8583673883386
1323,435.00309463259873
1324,466.77733497878035
1325,500.40906192341936
1326,518.9012486735555
1327,503.80786814752537
1328,449.9298929758497
1329,389.69229550204
1330,362.17004778345836
1331,393.18312159213747
1332,454.420488415657
1333,503.76811945796544
1334,506.0819856402177
1335,467.1640576016489
1336,407.64030570039176
1337,347.88370001434305
1338,305.7652103420005
1339,297.90680620333114
1340,338.35645684059455
1341,408.9621312192103
1342,469.6777980286097
1343,482.05942568309183
1344,447.4299823226647
1345,403.0914358139162
1346,386.734753750854
1347,405.4989034557857
1348,430.0618519801483
1349,429.331566105393
1350,395.32501234383017
1351,356.1991569394977
1352,343.1779658690157
1353,370.734404842462
1354,419.089439304229
1355,464.2620344338866
1356,488.27015514705636
1357,489.23376609627667
1358,467.9438316718715
1359,428.7113160028166
1360,388.21718295761457
1361,365.87739614517886
1362,374.78791891567744
1363,398.9067143614393
1364,413.8097453178216
1365,400.4149743640701
1366,371.69736382421615
1367,352.48787576795985
1368,363.48347201153047
1369,392.94911411858993
1370,413.9727634011033
1371,402.57538092022696
1372,365.56492748720666
1373,327.68436366424066
1374,312.2006497653929
1375,319.5377458574658
1376,333.80761176091437
1377,339.6252070507053
1378,337.08749105724746
1379,339.6714228672645
1380,360.67796132470176
1381,397.9720650316194
1382,433.3996923491013
1383,448.5348013981511
1384,441.7573500605922
1385,432.20229597998514
1386,439.96759656252107
1387,467.79820897793616
1388,493.13609016041846
1389,491.5881968095273
1390,454.2364853910876
1391,398.69991213812864
1392,345.1714330517825
1393,307.4410039022023
1394,286.48458022949853
1395,281.7391173446358
1396,292.1305703303806
1397,315.3808940421968
1398,349.0410431092023
1399,386.6909719350824
1400,411.29263469901343
1401,404.02598535660945
1402,358.6049776408436
1403,307.37456506297895
1404,290.1257009135352
1405,330.2973382631917
1406,393.7964299637497
1407,433.88392864906564
1408,417.8847867360055
1409,369.10595642537737
1410,324.7623897028989
1411,314.3920383401273
1412,333.30085389543456
1413,367.27878771494034
1414,403.1627909334875
1415,433.04581447558303
1416,450.6288090563812
1417,451.60172518261606
1418,442.46551315360557
1419,433.3781230621862
1420,432.6525047956984
1421,437.5786080369562
1422,441.42038226521436
1423,438.64177675715837
1424,431.51474058787244
1425,425.3902226318223
1426,424.97017156383845
1427,430.4335358601056
1428,440.05726379914813
1429,452.1913034628142
1430,465.7626027372844
1431,479.93410931405015
1432,494.33977069091816
1433,512.1155341730064
1434,538.0143468737679
1435,575.5401557159603
1436,618.1459074326795
1437,654.4735485683632
1438,674.6340254798033
1439,681.0632843371532
1440,682.2352711249641
1441,685.6229316431964
1442,689.8362115082255
1443,689.0800561539054
1444,678.7804108325654
1445,665.0562206160521
1446,659.3984303967736
1447,671.7129848887216
1448,698.1488286285166
1449,727.9449059764556
1450,750.5951611175587
1451,758.3075380626069
1452,744.6299806492043
1453,705.9374325428289
1454,661.6188372378911
1455,642.3461380587942
1456,672.6062781610035
1457,727.2372005320995
1458,757.4218479928568
1459,722.0901631983234
1460,640.4790886388855
1461,559.5435666413559
1462,520.0805393700502
1463,517.0529488278698
1464,525.2737368574071
1465,522.2898451420187
1466,504.9962152069329
1467,478.34078842034796
1468,446.16350599452016
1469,404.99830898690925
1470,348.5301383012302
1471,273.45993468861525
1472,194.30263874870252
1473,132.06019093076975
1474,104.08353153484859
1475,107.82960071286288
1476,134.10133846974531
1477,172.93168466458155
1478,210.7575790117462
1479,232.8839610820396
1480,227.79977030383998
1481,198.05894596425242
1482,150.10142721025295
1483,91.57015304985543
1484,34.83306235326927
1485,-6.559906145939749
1486,-23.398813849677026
1487,-21.619722294148232
1488,-10.49069314868575
1489,2.72821178544109
1490,16.919930576197658
1491,32.14940116197795
1492,46.77656135280631
1493,54.57134883152139
1494,48.557701154973984
1495,25.325555755252935
1496,-10.21215005913291
1497,-51.94247910201557
1498,-91.57249430836418
1499,-116.41225873306394
1500,-113.37983554968014
1501,-80.71928804924391
1502,-36.233679638993635
1503,0.4889261588505178
1504,18.477465708325326
1505,19.476875260996167
1506,6.3710909571800585
1507,-13.61795117276597
1508,-27.828315207212654
1509,-23.96206533196164
1510,-7.664265838993742
1511,-3.5319811251793
1512,-35.03927569100597
1513,-87.3022141392903
1514,-111.54786117388721
1515,-62.49428159838499
1516,39.604459685189795
1517,126.4122976776689
1518,135.15416728406854
1519,74.49500331489799
1520,-3.87425951251862
1521,-53.036686572711915
1522,-70.35534333074975
1523,-74.78829534088072
1524,-83.28360824521405
1525,-99.08534777234127
1526,-120.0905797360283
1527,-143.23937003381616
1528,-160.85078464568505
1529,-163.82288963267092
1530,-147.74475113550216
1531,-125.938435373213
1532,-115.92800864176388
1533,-128.3675373126498
1534,-153.9230878315011
1535,-179.66472671668816
1536,-195.70452055790884
1537,-198.96353601478222
1538,-187.33283981542263
1539,-163.22949875502127
1540,-136.82757969441082
1541,-118.91014955863648
1542,-113.19427533550879
1543,-114.05402407416113
1544,-115.29346288358829
1545,-112.35465893119544
1546,-102.34567944132323
1547,-83.22359169378979
1548,-64.50446302239652
1549,-64.64836081345311
1550,-98.89435250429051
1551,-147.30150558175228
1552,-169.4728875807159
1553,-132.48556608254148
1554,-57.979608713609196
1555,8.982916856246447
1556,32.25894291524128
1557,20.56340171118609
1558,-3.506774546976885
1559,-24.179653687624523
1560,-49.67930357489968
1561,-93.44379210714942
1562,-156.47818721534622
1563,-209.0075568615366
1564,-216.84396903724246
1565,-170.9974917618747
1566,-106.92619308114081
1567,-64.01614106544548
1568,-57.6764038082747
1569,-73.00504942458247
1570,-93.3501460491807
1571,-106.21376183508164
1572,-102.8599649518901
1573,-75.81882358413895
1574,-30.861405929645116
1575,17.75221980214883
1576,56.69498539184133
1577,80.64182261175301
1578,87.82966322759057
1579,78.4134390001509
1580,61.68508168700828
1581,49.6885230442258
1582,50.7036948280529
1583,61.077528796655315
1584,74.78495671184282
1585,85.1259103407956
1586,83.96332145780252
1587,63.21112184601952
1588,26.147243299232287
1589,-7.813382376404661
1590,-18.860823360559152
1591,-5.676147816971024
1592,15.249576108359179
1593,27.797280288949878
1594,28.905896619652594
1595,23.965357018470968
1596,17.43859342836913
1597,6.352537819110694
1598,-15.42687781090899
1599,-48.000721432800674
1600,-65.55106098534998
1601,-35.31296437314177
1602,55.26850053532144
1603,164.71526590948088
1604,242.86426395862418
1605,263.4244269337787
1606,240.68168712961688
1607,193.0689768863749
1608,144.33122859176729
1609,124.02137468294404
1610,158.79234764839475
1611,232.7500800299349
1612,299.996504424641
1613,320.15255348683513
1614,297.98215993005397
1615,258.2042565290367
1616,223.47777612172467
1617,207.16165161126173
1618,220.1298159680191
1619,262.2712022316009
1620,305.70474351289795
1621,318.59937299611283
1622,292.7950239408283
1623,256.56462968405594
1624,240.58612364231794
1625,260.07043931371754
1626,315.5105102800371
1627,404.238270208838
1628,497.54065285557226
1629,551.4985920656918
1630,534.4970217767977
1631,484.08687602076225
1632,461.5810889258846
1633,504.2175947190608
1634,574.2283277279394
1635,619.5842223831078
1636,616.9012132202815
1637,594.2162348825113
1638,584.1832221223895
1639,599.4951098042666
1640,631.578832906489
1641,670.5843265236454
1642,704.0435258688076
1643,717.8223662758091
1644,702.6967832015034
1645,677.9777122280657
1646,673.2120890652732
1647,704.3368495528221
1648,744.8509296626398
1649,760.2712655012137
1650,738.4087933119336
1651,705.6504494774372
1652,691.1941705219733
1653,700.1628931137811
1654,713.8565540674581
1655,713.9580903463739
1656,696.024439065056
1657,663.4055374916297
1658,620.9633230502295
1659,580.4897333234503
1660,555.8797060547886
1661,553.4531791511181
1662,560.2810906851564
1663,560.5733788979514
1664,545.8369822013947
1665,517.6678391807127
1666,478.75888859699535
1667,437.11006938973514
1668,404.7933206793723
1669,391.8585817698504
1670,394.01779215118495
1671,401.06389150204996
1672,404.93481969237564
1673,404.80251678594414
1674,401.3619230430204
1675,397.0979789229805
1676,397.57462508695426
1677,407.77980240048055
1678,415.02645193618264
1679,390.3095149764449
1680,310.5539330161091
1681,206.32064776518018
1682,134.35360115155163
1683,133.56073532373466
1684,173.0669926535984
1685,205.27131573914357
1686,202.44264740726067
1687,174.82393071652132
1688,136.88510895997842
1689,101.51212566797221
1690,80.0329246109577
1691,81.41644980234378
1692,94.81264550134529
1693,99.26345621584642
1694,79.05982670527828
1695,39.508701983512765
1696,-8.913972678232312
1697,-54.15525174846971
1698,-81.23118943251575
1699,-75.7838396695397
1700,-43.92025612960606
1701,-11.137492210690652
1702,-0.9686010357036139
1703,-15.160635449473375
1704,-45.19664801574527
1705,-80.38169101413314
1706,-102.69881643708504
1707,-92.75307598681684
1708,-48.47252107224176
1709,3.789797194120183
1710,36.26482799924452
1711,41.72552083272603
1712,29.54682548990786
1713,8.202692075021332
1714,-22.50392899563576
1715,-66.10708699053794
1716,-119.11483085972486
1717,-158.79320923160867
1718,-159.80727040973852
1719,-123.3870623695766
1720,-84.78863275523145
1721,-77.70102887620487
1722,-93.94929770409544
1723,-99.65248586931102
1724,-71.01663965774969
1725,-30.4268050074661
1726,-12.84102750533566
1727,-33.86535238368833
1728,-71.8668245169365
1729,-101.78148841817983
1730,-114.47738823578948
1731,-115.09956775000319
1732,-110.16907036947214
1733,-111.92193912780658
1734,-134.9342166801025
1735,-180.27494529946216
1736,-211.81916687348166
1737,-188.33892290073163
1738,-113.45925448722573
1739,-45.7452023428541
1740,-39.69980677783133
1741,-77.66210769909503
1742,-101.75814460671518
1743,-74.60295659025724
1744,-37.20758232516437
1745,-48.18506006909138
1746,-117.91042765823659
1747,-180.6947225036629
1748,-170.0839815875779
1749,-99.20924145962545
1750,-37.23853823313948
1751,-37.199907581396474
1752,-69.58538473382669
1753,-80.6980044722377
1754,-51.27780112700293
1755,-27.970808573230897
1756,-61.022060226922804
1757,-134.4465890411193
1758,-177.13442750200647
1759,-133.58260762503596
1760,-45.994160950998776
1761,9.47688145790562
1762,-4.823510977985279
1763,-42.292368351821096
1764,-47.77872026625755
1765,-19.323595829449914
1766,-4.100023651021729
1767,-40.7640318380345
1768,-103.31864799092
1769,-141.0868991994039
1770,-128.3308120384063
1771,-97.76341256392789
1772,-88.9447263089105
1773,-107.87677827908738
1774,-128.224592948809
1775,-126.7571942568502
1776,-108.6706056021967
1777,-90.27284983982736
1778,-80.58294927644693
1779,-71.48792566622978
1780,-52.690800206530184
1781,-19.79159353356772
1782,26.024674281885382
1783,79.2979837388657
1784,110.05731591057611
1785,79.25965244877534
1786,-16.37602441182389
1787,-101.64573184911478
1788,-95.88148644916782
1789,-11.650304201753897
1790,57.12479950413854
1791,35.26180988480701
1792,-35.73728723364184
1793,-75.5425054107327
1794,-50.36885758707194
1795,-16.41735607974988
1796,-35.19001257773107
1797,-93.97483813723738
1798,-123.8388431770918
1799,-76.75703747404259
1800,-4.971430158082512
