800,58.633334470283444
801,54.31370454350963
802,48.53835381868339
803,43.539471291899645
804,43.034245483572704
805,50.75386443658863
806,68.62551571450786
807,92.31238639976073
808,116.13166309188
809,134.48553190575058
810,144.5441784698678
811,146.96178792462706
812,142.6075449206237
813,132.64663361697967
814,120.52823767968493
815,110.78254027994808
816,107.93372409259064
817,112.88097129443395
818,117.35046356271505
819,111.6353820735294
820,86.6169075002772
821,44.637220012133184
822,-1.3875007274591553
823,-38.15607556227951
824,-54.45232584481073
825,-49.95007343768884
826,-27.874140715145586
827,8.520649435572523
828,53.073473612802445
829,94.62950789907791
830,121.54792785976224
831,123.56490854169715
832,105.57962447187583
833,81.8692496561207
834,66.85995757779074
835,69.84492119649713
836,83.63831294684223
837,97.73530473717346
838,101.94506794834706
839,94.17077343253186
840,81.15259151199552
841,70.08069197793702
842,66.58824408931832
843,66.96341657172252
844,64.00337761621995
845,50.55829487826759
846,25.141335476595486
847,-3.2213340078596957
848,-24.352547533021607
849,-28.936139596728935
850,-17.39594523775395
851,3.621199963170511
852,27.373459882356656
853,48.29299785218154
854,64.51597666010821
855,74.90355854774953
856,78.3929052099129
857,75.68217779370025
858,69.26353689758253
859,61.71014257052411
860,55.37315431110255
861,51.418731066647524
862,50.633031232400754
863,53.785212650684116
864,61.39043261008919
865,73.5378478446728
866,90.28461453317504
867,111.26288829825717
868,132.45382420573333
869,147.94257676384404
870,151.8122999225252
871,142.63114707269233
872,129.73127104556443
873,124.03282411194778
874,135.5789579816137
875,161.5738238025915
876,189.41457216058552
877,206.25435307831322
878,203.62431601490607
879,188.74760986531146
880,172.39038295971295
881,165.00678306296322
882,169.2089573740177
883,179.16905252541073
884,188.63021458271214
885,192.52958904402294
886,191.9913208394646
887,190.15255433071434
888,190.12843331049953
889,193.80910100216533
890,201.29070005921312
891,212.52637256486742
892,226.91026003166007
893,239.72050340102032
894,244.3942430428815
895,234.40961875528774
896,209.53276976405323
897,181.78383472236783
898,164.58495171048526
899,169.85825823537925
900,194.11589123042359
901,224.82098705508724
902,249.33168149465018
903,260.11810975990556
904,262.4894064869095
905,263.74270573670947
906,270.6741409951155
907,283.0588451724434
908,295.4999506033291
909,302.48858904649023
910,300.94989168454777
911,295.5339891238327
912,292.40001139421656
913,297.4390879489565
914,311.28434766453756
915,329.89791884054284
916,349.08292919951236
917,364.19750588685383
918,368.940775470719
919,356.6028639419201
920,320.9848967138514
921,268.6589986224135
922,219.43229392596004
923,193.72690630525722
924,205.46795886342807
925,239.30157412595509
926,271.6608740406391
927,279.5579799776242
928,258.67201272937746
929,226.54509251073068
930,201.96033895889195
931,199.23487113350347
932,209.91480751667405
933,218.3392660130503
934,209.22136394989138
935,181.38921807713814
936,151.7749445675163
937,138.49865901663907
938,154.96547644310522
939,188.5065112886423
940,217.4958774182287
941,220.68768812022972
942,194.00605610657112
943,156.6470935128691
944,129.47891189864094
945,129.43262224746468
946,150.62833496716485
947,178.98415989003297
948,200.51420627303378
949,206.35358279801585
950,194.7423975719521
951,164.4527581271741
952,116.41577142162168
953,64.21154383911198
954,26.010181189589275
955,19.622788709415545
956,45.90347106165245
957,82.31533233635673
958,104.60847605087838
959,93.37600515018858
960,56.926022007188294
961,13.365628423043745
962,-19.402074372477728
963,-32.81098572064002
964,-30.679005533414966
965,-17.677034293079487
966,1.3950269481283613
967,21.103276568414003
968,35.789812376808186
969,39.990731613563185
970,34.88213095057836
971,29.880106491793413
972,34.90875377362863
973,56.42316776541884
974,84.04644286984876
975,102.30167292340593
976,96.15795119683389
977,63.5733703955957
978,17.071022660371455
979,-30.052000432495333
980,-66.70860787048878
981,-91.21870920442416
982,-104.40121454794826
983,-107.18003457701889
984,-102.80608052939533
985,-96.81226420410167
986,-94.83849796089817
987,-100.4986947197358
988,-110.12076796019755
989,-118.4046317209577
990,-120.11820059920683
991,-111.38238975007516
992,-89.45011488606906
993,-51.61229227645708
994,-0.016838746709254337
995,48.85832832212509
996,75.88329099402472
997,63.84713077860033
998,20.212928631726754
999,-30.443235043834648
1000,-63.225280397799
1001,-63.918128131710546
1002,-43.509699498305054
1003,-16.636916300840312
1004,2.052299107555882
1005,0.3210238245646906
1006,-17.899665600669323
1007,-42.004693166825746
1008,-61.46698341974661
1009,-70.80346145172734
1010,-71.76705290081554
1011,-66.67468395010837
1012,-57.829281327043645
1013,-47.48077230266608
1014,-37.860084690915755
1015,-31.140146847877986
1016,-27.893887671069024
1017,-26.799236598670177
1018,-26.42912360878836
1019,-25.694479218702327
1020,-24.939234484088956
1021,-24.896320998263036
1022,-26.27767089140798
1023,-29.502216829789177
1024,-34.72089201496783
1025,-42.06463018301292
1026,-50.289365603708575
1027,-53.77303307975126
1028,-46.03556794593169
1029,-21.589906068325945
1030,12.009016156498546
1031,38.05926180235292
1032,39.702893414218124
1033,10.990973009087611
1034,-29.23643792317489
1035,-58.71827841902086
1036,-57.78148804032753
1037,-29.055006873586535
1038,13.532224470987785
1039,56.023264860317795
1040,88.7491726393182
1041,108.89900563179799
1042,114.28282114130889
1043,103.66467595206086
1044,81.16562632978821
1045,52.749728022663476
1046,24.40303626217792
1047,2.4776057640629006
1048,-6.2675092708086595
1049,4.950744844489236
1050,38.242421283861404
1051,79.25657270909869
1052,109.99225127082718
1053,113.79450860942416
1054,92.57439585595057
1055,61.7079636331182
1056,36.87526205619906
1057,29.493340733995865
1058,41.68624876979993
1059,74.33903476231899
1060,126.569746806681
1061,184.21443249537333
1062,227.05513891921146
1063,235.2639126683298
1064,206.96879983314102
1065,164.47084600533708
1066,131.79109627886282
1067,127.05759525090252
1068,143.51938702289226
1069,167.85751520150006
1070,187.30702289963665
1071,198.27695273745303
1072,204.56834684335809
1073,210.19624685503186
1074,215.7116939204334
1075,213.5997286988204
1076,195.19039136179526
1077,154.39372159429695
1078,104.79375859566426
1079,69.0295410806466
1080,69.24310728046112
1081,105.6604949438115
1082,150.0607413379621
1083,172.31488324974816
1084,151.8239569866655
1085,104.58099837789814
1086,55.35004277538974
1087,27.40512505489278
1088,24.04627961705046
1089,34.44554038844217
1090,47.49594082266958
1091,56.64051390142413
1092,64.08829213556783
1093,73.05230756620585
1094,85.45659176576737
1095,95.79717583910679
1096,95.88309042456967
1097,77.94236569510213
1098,43.63803135933449
1099,3.933116662679822
1100,-29.813349611560625
1101,-49.600339141108634
1102,-56.358824063589054
1103,-52.4967769754312
1104,-41.111170930757
1105,-30.771979440265568
1106,-32.70417647012437
1107,-57.69473644084246
1108,-99.66763422615986
1109,-131.34984515191172
1110,-124.08834499491604
1111,-62.918109981839734
1112,20.67388321193357
1113,85.33965746342619
1114,93.8812352032146
1115,52.149638416560265
1116,-8.718111355447036
1117,-57.528993014768275
1118,-78.50798590523118
1119,-78.69206981142452
1120,-66.95622495752832
1121,-52.124432006157804
1122,-42.80067205723935
1123,-47.54892664682484
1124,-73.62517774594926
1125,-112.85140775947002
1126,-146.97859952491126
1127,-157.78473631129964
1128,-141.9838018179853
1129,-120.08678017349666
1130,-114.74765593436678
1131,-140.84141408394862
1132,-180.87604003126035
1133,-208.93851960980828
1134,-201.5258390764011
1135,-164.4669851099843
1136,-123.13994481046029
1137,-103.02670569749716
1138,-113.83625570935328
1139,-140.36858320171086
1140,-165.21267694644666
1141,-175.38552613049433
1142,-175.54812035462055
1143,-174.74144963225262
1144,-181.09650438827884
1145,-192.50527545785917
1146,-200.48975408523074
1147,-196.59993192250295
1148,-178.6668010284775
1149,-153.52135386743248
1150,-128.6985833079343
1151,-110.2334826216229
1152,-98.93904548202045
1153,-94.51026596333031
1154,-96.63613853921197
1155,-105.00665808159283
1156,-119.30881985945962
1157,-139.08561953762728
1158,-159.22605317556918
1159,-169.04011722615724
1160,-157.51580853449013
1161,-121.73312433665524
1162,-81.01606225852811
1163,-58.49362031453893
1164,-72.58179690647376
1165,-109.70359082225332
1166,-142.9760012347033
1167,-146.76202770034615
1168,-121.51067015816807
1169,-91.76492892840906
1170,-82.88780471133214
1171,-105.40729858600935
1172,-140.04541200908534
1173,-163.9331468135515
1174,-159.76250520753456
1175,-136.2174897730565
1176,-109.57310346481245
1177,-95.15534960893456
1178,-96.90723190177232
1179,-111.33075440865468
1180,-134.71592156266524
1181,-159.66773816340356
1182,-173.73720937575854
1183,-164.1103407286755
1184,-126.87813811391788
1185,-84.49060778483727
1186,-64.29075635513436
1187,-87.7835907976314
1188,-136.66711844302336
1189,-176.03134697865607
1190,-172.78628444727656
1191,-128.19593924580295
1192,-73.37532012407428
1193,-40.25343618363877
1194,-42.596296876479755
1195,-62.14691200380548
1196,-77.36329171479156
1197,-72.6074465053407
1198,-54.49538721684985
1199,-34.858125034974364
1200,-24.34967148836222
1201,-23.46503844743711
1202,-27.608238123140836
1203,-32.288283065698124
1204,-36.31618616337073
1205,-41.806960641213664
1206,-51.00162005982929
1207,-64.43217831412949
1208,-79.27264963208836
1209,-92.31104857348873
1210,-100.15339002869587
1211,-98.68868921739886
1212,-83.62396168736814
1213,-52.119223313200564
1214,-14.10749029510589
1215,13.882220842375318
1216,16.04689325160507
1217,-5.364490236910569
1218,-30.257947113279442
1219,-37.87749518695637
1220,-19.515152585527176
1221,11.054062246572357
1222,37.57313054927181
1223,46.73303324813605
1224,36.12575095559623
1225,5.861263972205052
1226,-41.95644771211664
1227,-90.13540441683654
1228,-114.59862676956618
1229,-92.9921357048006
1230,-34.02895246269327
1231,27.24990141221315
1232,55.37740407222191
1233,40.77453336772851
1234,13.653266848466956
1235,7.612581764766219
1236,40.83345506878686
1237,87.409863415769
1238,113.5797831652817
1239,93.7061903824706
1240,47.04906083929927
1241,8.281370015800348
1242,8.833093101320628
1243,43.40820499575602
1244,83.66068031082068
1245,101.75749337127672
1246,94.23461821617639
1247,84.38002860011693
1248,96.73469799448503
1249,138.52459958869622
1250,183.80570629144313
1251,202.85599073194317
1252,178.17242526117843
1253,134.54698195313904
1254,105.94663260607376
1255,119.79734874372662
1256,161.64810161658897
1257,200.53186220313546
1258,207.9496012110685
1259,186.89328907856725
1260,161.81289597551768
1261,156.8543918047726
1262,174.58574620338004
1263,193.02892854383026
1264,189.0029079353062
1265,155.69865322489568
1266,117.4241329988763
1267,101.98031558391813
1268,125.56316904834603
1269,166.54266120337525
1270,195.5847596043459
1271,188.9824315519636
1272,155.0636440935541
1273,113.4933640242798
1274,82.69355788840221
1275,68.03519198049071
1276,67.21823234669864
1277,77.74664478596424
1278,95.24439485127368
1279,113.53344785089575
1280,126.45076884960326
1281,131.80232266992607
1282,133.34907389337968
1283,135.3329868617093
1284,140.3360256781125
1285,146.9361542084862
1286,153.11933608265826
1287,157.64553469562452
1288,162.32071320877913
1289,169.69383455115167
1290,181.1278614206367
1291,190.28675628523888
1292,187.73748138429255
1293,165.7799987297076
1294,136.18127010718126
1295,122.89225707746846
1296,148.75292097756392
1297,208.7802229219833
1298,271.52912380395355
1299,304.9125842966696
1300,298.03756485452504
1301,270.2960257143186
1302,243.3789268965138
1303,231.23522820645485
1304,231.08688923558475
1305,237.98286936270415
1306,247.15812775517225
1307,254.50162337015172
1308,256.03531495582683
1309,249.26916105263626
1310,239.36611999450542
1311,233.92814991006526
1312,239.33020872388806
1313,252.0502541577007
1314,263.823243731631
1315,266.697134765418
1316,257.3408843796424
1317,235.6314494969556
1318,201.72978684330155
1319,160.62085294913777
1320,122.09760415068376
1321,96.06899659110422
1322,87.7759862217772
1323,95.89552880348674
1324,118.5925799076631
1325,151.5650949175979
1326,185.60002902967972
1327,210.91833725460128
1328,222.6669744185965
1329,230.0248951646554
1330,244.64605395375474
1331,271.77240506606176
1332,290.46990260218445
1333,273.1185004843737
1334,201.11015245774615
1335,108.5788120915222
1336,48.76643278022857
1337,67.27996774492749
1338,144.58037003444042
1339,228.4305925265653
1340,269.7095879293047
1341,261.8163087820758
1342,227.05270745693815
1343,187.77973615982228
1344,156.59434693172625
1345,137.24149164996925
1346,133.03612202937802
1347,143.4511896235399
1348,163.3596458259981
1349,187.32444187148394
1350,207.22952883713515
1351,210.75685764371883
1352,185.31137905684045
1353,131.45204368818486
1354,76.67480199671445
1355,51.75860428990927
1356,72.87840072496692
1357,116.97314131004532
1358,154.46777590546117
1359,164.50225422492622
1360,156.94252583676644
1361,148.4225401651329
1362,151.84424649122593
1363,162.85959395453392
1364,172.1755315540213
1365,172.67400814938082
1366,170.35997246223087
1367,176.08337307735746
1368,198.11715844392165
1369,224.6122768766836
1370,234.30167655723199
1371,208.71530553519733
1372,158.48011172947918
1373,111.16604292946431
1374,92.71304679625973
1375,104.235070863906
1376,129.1310625406004
1377,150.90896910992706
1378,162.05073773208096
1379,162.80831544508146
1380,153.81864916601626
1381,138.96568569224291
1382,125.50737170263528
1383,120.65965375879568
1384,124.48647830628579
1385,128.24379167586085
1386,122.78554008467836
1387,106.5976696375401
1388,89.31712632812014
1389,81.39685604018814
1390,87.31180454883543
1391,101.27391752171206
1392,116.49314052025511
1393,126.4554190009112
1394,125.22069831637782
1395,106.94492371682827
1396,72.90304035115696
1397,40.94899326818086
1398,31.28772741791363
1399,53.54018765277215
1400,88.88231872881443
1401,113.76106530698598
1402,112.23137195434902
1403,91.85018314531408
1404,64.69644326289381
1405,42.113096599923665
1406,32.83308736030449
1407,45.0283596602585
1408,81.66785752954638
1409,125.09252491272855
1410,152.5043056703944
1411,147.647143580416
1412,123.39898233917847
1413,100.75576556284796
1414,96.795436788585
1415,109.21493947582348
1416,129.74021700750745
1417,150.88021269132696
1418,169.42286976098512
1419,183.58713137744417
1420,192.02794063017973
1421,195.8932405384203
1422,197.2509740524256
1423,198.49908405471615
1424,204.1575133613569
1425,219.5802047231864
1426,248.05310082710093
1427,278.7171442973031
1428,294.7522776965543
1429,283.3304435274549
1430,260.7495842337066
1431,256.1936422013605
1432,293.57455976010533
1433,355.89627918451515
1434,407.27874269534186
1435,417.02489246075856
1436,396.78567059765555
1437,378.4330191729114
1438,390.02688020464484
1439,427.10319566352337
1440,469.2489074740133
1441,497.62595751568915
1442,507.6412876244831
1443,501.7828395939923
1444,483.551555176753
1445,464.4333760855261
1446,459.9272439945926
1447,482.74710054103525
1448,521.6608873260266
1449,553.3965459161427
1450,557.2690178446319
1451,535.0482446127262
1452,499.66916769094314
1453,463.29472852037
1454,430.8398685139837
1455,403.7105290579493
1456,383.4206515129208
1457,372.61517721535165
1458,374.4770474788111
1459,390.5772035952923
1460,410.26758683652406
1461,417.2781384552909
1462,397.7797996867466
1463,355.9125117497442
1464,303.7242158481549
1465,252.9738531721814
1466,213.2113648997056
1467,193.06469219760584
1468,197.69377622308093
1469,210.21355812501497
1470,205.09397904527032
1471,163.39198012006818
1472,105.08350248129864
1473,64.33248725788326
1474,66.67287557711279
1475,90.89460856599908
1476,100.08962735263049
1477,66.63087306751368
1478,8.568286844936665
1479,-42.06419017565713
1480,-59.642616848346734
1481,-46.98805201931464
1482,-14.77955452553033
1483,25.7978168066511
1484,61.582003162851834
1485,78.91794574204505
1486,68.50058575793446
1487,36.29486444034046
1488,-8.395276963423385
1489,-55.018897187155744
1490,-89.22005494438417
1491,-95.91980892696301
1492,-70.11521780369185
1493,-33.860340218892816
1494,-13.676234791035313
1495,-22.568960111311753
1496,-42.11457474223607
1497,-49.49313721622093
1498,-35.78170603418039
1499,-19.990339664105704
1500,-24.258096539626422
1501,-52.64803505860982
1502,-77.9902135817083
1503,-70.4886904309551
1504,-25.861523888301235
1505,22.561227805806993
1506,39.19150645387708
1507,16.564253902815835
1508,-17.587587954625633
1509,-34.032077178389954
1510,-22.540271779660543
1511,7.051770280597339
1512,43.9629910931053
1513,78.0253328017352
1514,99.59073760498723
1515,99.69514775746393
1516,78.70750557135034
1517,43.832753417900676
1518,2.697833728911064
1519,-34.398311001759794
1520,-55.54473821671854
1521,-51.64450529352871
1522,-36.85366954320489
1523,-36.68328820870374
1524,-70.80541846341657
1525,-121.39311740964331
1526,-155.99344207707873
1527,-150.11544942128967
1528,-118.50619632217058
1529,-87.93073958242348
1530,-77.87013592601215
1531,-80.23744199661814
1532,-80.41671435609715
1533,-70.01300948292192
1534,-58.690383770624976
1535,-59.33389352624363
1536,-75.58159496874032
1537,-90.43454422744799
1538,-84.29279734047668
1539,-54.6854102531488
1540,-28.545438816399837
1541,-35.05093878519256
1542,-75.356965816929
1543,-113.57857546983178
1544,-112.74482320136121
1545,-71.10076436658528
1546,-22.647454216570623
1547,-1.019947896764279
1548,-9.899300445364133
1549,-29.811566791688165
1550,-41.939801754539076
1551,-40.478060040557466
1552,-27.171396242581977
1553,-4.7638648379816
1554,17.67647981297887
1555,28.352583468826197
1556,18.115392008538038
1557,-8.965148566785501
1558,-44.73309213223547
1559,-80.91049243740781
1560,-108.83540310470562
1561,-119.77287762766355
1562,-110.60096936921218
1563,-92.09473155999149
1564,-77.07421729662929
1565,-71.47347954001452
1566,-69.07957111357791
1567,-62.57354470155042
1568,-49.71145284722297
1569,-34.67234795121658
1570,-21.98228226970423
1571,-14.735307912671487
1572,-14.7274768421521
1573,-23.570840870448592
1574,-41.257451658349964
1575,-66.74036071336559
1576,-97.8826193879213
1577,-124.75127887756662
1578,-133.92539021916946
1579,-117.12000428911142
1580,-90.8651718014662
1581,-79.1469433061693
1582,-95.99036918721049
1583,-123.8114996607701
1584,-138.836384773389
1585,-128.64307440012453
1586,-104.73561824266835
1587,-81.50906582751486
1588,-66.63046650405704
1589,-58.203869442733776
1590,-53.54532363312046
1591,-48.68587788205423
1592,-38.41958081173016
1593,-18.52848085777987
1594,3.0773737326271657
1595,10.626934902720677
1596,-8.043845211957887
1597,-39.08601428160182
1598,-57.59761978019105
1599,-46.03970898356329
1600,-18.696328967420413
1601,1.6214733946098931
1602,0.207651432970124
1603,-15.895841315852522
1604,-36.085051107324944
1605,-52.68602398688381
1606,-63.006805787915255
1607,-64.87444212973969
1608,-57.255978415591926
1609,-40.37245983059074
1610,-15.096931339691764
1611,9.911562314355251
1612,20.504976613065992
1613,5.208267264285496
1614,-27.049609795732977
1615,-58.30969840025682
1616,-72.50904214997172
1617,-61.90068441089261
1618,-20.96366831224168
1619,46.03796325564781
1620,110.14616764348102
1621,138.87090244511546
1622,120.35812549970979
1623,74.50879489388262
1624,23.813868963870846
1625,-12.13469370231087
1626,-16.51093426267471
1627,23.990106380915677
1628,87.85838758494629
1629,133.28386896646862
1630,127.38551040529364
1631,88.19327204624096
1632,51.21011430136514
1633,40.56899785218866
1634,44.9188836519761
1635,46.173732927975834
1636,40.66850718371188
1637,50.58816820125685
1638,99.64867804352343
1639,180.58099905657218
1640,253.15009387192185
1641,279.2839254088667
1642,263.94745687681916
1643,239.16765177764046
1644,232.11947390799833
1645,239.3348873617324
1646,246.37085653222402
1647,244.14634611477777
1648,240.3203211090149
1649,245.68674682128858
1650,260.66958886707107
1651,267.76581317341333
1652,248.90038598135652
1653,213.77627384838343
1654,199.60344365087894
1655,238.8258625865974
1656,305.85949817713845
1657,342.49931827043747
1658,305.74829104326545
1659,228.70238500374126
1660,167.55656899385758
1661,155.0028121920077
1662,163.96008411553794
1663,158.56235462329187
1664,129.64259391819724
1665,104.90877254982752
1666,112.40486141699603
1667,144.46083177036508
1668,166.0566552150558
1669,148.10830371326847
1670,106.42774958692462
1671,75.32196552032019
1672,76.7539245627695
1673,91.21260013129904
1674,90.76496601332019
1675,66.62999636932273
1676,43.022665735590635
1677,46.33694902692332
1678,80.71282153936318
1679,129.7392589529445
1680,176.08523733444963
1681,201.4077331401786
1682,186.84972321873465
1683,123.72118481382222
1684,42.665095567042954
1685,-16.28356647927194
1686,-30.513822879235704
1687,-10.720694780552549
1688,28.42779707833597
1689,67.59463237112232
1690,82.82579118652211
1691,54.228254031168035
1692,-1.1479981674756345
1693,-47.41398405819018
1694,-59.913721863063984
1695,-58.77422937453866
1696,-74.92252395245032
1697,-116.55862252104907
1698,-149.2185415660024
1699,-135.7412971313979
1700,-82.34990481671684
1701,-36.38037977380736
1702,-40.11373670383091
1703,-82.90098985421082
1704,-129.11715301554796
1705,-149.98023951854066
1706,-141.27426223087332
1707,-104.28223355410864
1708,-50.6061654205505
1709,-8.780069290096435
1710,-6.811956147086676
1711,-38.16583649711447
1712,-68.35872036385808
1713,-67.98561728585537
1714,-44.64853631330243
1715,-20.210486004812083
1716,-13.079474424162981
1717,-32.02250913704938
1718,-83.54759720778748
1719,-150.27574519603695
1720,-184.23995915348132
1721,-142.07524462051333
1722,-53.08460662289144
1723,8.808950331610504
1724,-11.053577743425194
1725,-79.31819430967607
1726,-138.5529023006784
1727,-152.9687041184161
1728,-128.45360162988072
1729,-76.12759616363383
1730,-16.378688506335493
1731,22.08312110072893
1732,15.881832965149442
1733,-20.54955205310671
1734,-57.317032538157946
1735,-73.68160651467042
1736,-74.31827144429371
1737,-67.99902422209198
1738,-55.05986117294378
1739,-25.498778047940505
1740,27.930229979247088
1741,79.92916831600724
1742,87.0370429544455
1743,24.213860475061665
1744,-63.90337194955555
1745,-116.910646551024
1746,-111.22895496143246
1747,-81.372288209609
1748,-64.67863671734813
1749,-67.59099029563549
1750,-74.8003381408571
1751,-73.36466883098456
1752,-63.81097032173602
1753,-50.63322994273949
1754,-36.067434393658914
1755,-18.033569740316125
1756,5.540378589217653
1757,28.283425808534048
1758,36.79058777682894
1759,20.572881002860413
1760,-13.163677351087244
1761,-51.036069465199034
1762,-81.40427685813029
1763,-96.46928038296846
1764,-89.56806022319506
1765,-66.87159588861414
1766,-46.399866211269
1767,-42.22484934134445
1768,-40.96052274303656
1769,-18.753863190419906
1770,31.624153236715756
1771,78.52155115704045
1772,86.1633558918893
1773,50.820593469466985
1774,-0.3567093709052642
1775,-41.69352517454354
1776,-65.27582576711211
1777,-70.14158225035044
1778,-58.05376499774502
1779,-37.12434365019453
1780,-16.01228711166641
1781,4.385436455183481
1782,30.51685963339969
1783,65.69401575614393
1784,92.49293891112575
1785,85.74466394505089
1786,36.04222646810831
1787,-31.37733714155638
1788,-87.29098973330474
1789,-114.50869337948825
1790,-106.34740937088463
1791,-60.99409821212339
1792,-1.0247196170921598
1793,42.84676749568462
1794,50.69140500768026
1795,23.46723560503233
1796,-33.77769721679033
1797,-91.27834914827054
1798,-100.50667506113405
1799,-31.594629003592672
1800,59.47783580441046
