800,71.04835662245205
801,75.70972801388598
802,68.74492246703994
803,52.280133709076836
804,32.54255533012292
805,15.812380779756495
806,7.864803363510873
807,12.7160162394066
808,34.009212414503054
809,75.14158474147371
810,130.81532591520045
811,184.85662846937157
812,220.41568477314468
813,223.25268702777248
814,199.6978272632914
815,165.68129733522437
816,137.22328892127916
817,124.5739935181009
818,123.52360243801922
819,127.58230680583074
820,130.5402975555935
821,131.13776542743835
822,132.68490096441928
823,138.67189450934893
824,151.10893620170464
825,164.15621597449172
826,169.46392355118587
827,158.76224844265926
828,130.82137994411823
829,96.59150713211784
830,68.17281886152159
831,56.40550376252213
832,57.849750237674016
833,60.25574645896086
834,51.2536803648436
835,24.55373965736544
836,-6.543888200745641
837,-24.779015988946412
838,-13.581456731732032
839,26.07897629852232
840,74.04246957876967
841,109.18920933246045
842,114.98938152678602
843,102.51317186991582
844,93.17076580825415
845,108.23234852372298
846,154.80810493103672
847,213.7282196750475
848,262.96287712805315
849,282.20226138715225
850,271.02655627162494
851,241.64594532030242
852,206.49061178897682
853,176.31073864783684
854,156.58650857887733
855,151.7881039733984
856,165.97570692943918
857,193.64949924930443
858,219.60966243704934
859,228.18637769603083
860,207.92982592643784
861,169.87018772285955
862,132.37764337186672
863,113.67237284960356
864,120.73455581941562
865,142.74437162947288
866,167.32199931041396
867,183.10761757302498
868,187.86140480591894
869,184.03353907322708
870,174.12419811232758
871,161.75355933157698
872,153.25179980805115
873,155.32909628532434
874,173.93562517125247
875,204.00156253576824
876,231.98708410869403
877,244.162365277587
878,231.61758108558206
879,202.88290622925524
880,170.3685150565143
881,146.35458156449204
882,139.0612793974542
883,152.36878184474335
884,189.93726183871877
885,252.1868919527169
886,322.4978443990385
887,378.7002910269239
888,398.9744033205916
889,378.450352397238
890,337.15830900509354
891,297.1384435214677
892,277.48092595084563
893,275.7759259229442
894,279.9136126908397
895,277.8241551290703
896,264.6377217317877
897,249.4344806108893
898,242.9545994941891
899,254.69824572360812
900,281.70558625334706
901,313.72678764811644
902,340.41201608134725
903,354.52143733344565
904,356.61521679002544
905,348.4735194402019
906,332.0165098748512
907,311.27435228493596
908,291.8272104597945
909,279.2852477854849
910,276.5286272431076
911,277.73751140719287
912,275.3920624440416
913,262.47244211012367
914,241.2288117504886
915,222.14133229716026
916,216.00016426757065
917,229.1454677630063
918,250.89740246706788
919,266.5061276441338
920,261.8218021378434
921,237.88458436960173
922,211.48463233708026
923,200.1821036127567
924,217.12715534245217
925,255.8099442438688
926,304.1906266051792
927,350.30935828358633
928,385.2262947039362
929,403.5215908573082
930,399.9654012996434
931,372.15788015038925
932,331.96918109112084
933,295.779457364235
934,279.6488617715913
935,286.3075466732207
936,301.4656639860186
937,309.69336518246746
938,298.960801289335
939,275.88812288645386
940,253.51548010543593
941,244.6530226284649
942,251.85089968705142
943,263.7792600608482
944,268.0982520764319
945,255.02802360611895
946,229.71872206681473
947,202.66049441883297
948,184.19348716476088
949,176.9678463483142
950,172.89371755322463
951,163.1112459021315
952,140.87057605547307
953,111.93185221041131
954,86.55521809975289
955,74.8508169908946
956,79.41879168476953
957,92.4892845148097
958,105.50243734592914
959,111.13839157349685
960,109.06728812234724
961,101.41926744578996
962,90.36446952462757
963,78.92303386618914
964,71.2550995033871
965,71.61080499375385
966,82.65028841854291
967,98.66368738177152
968,111.14113900934353
969,111.70277994813296
970,97.72874636511733
971,73.70917394648313
972,44.54419789678286
973,15.103952938068687
974,-10.041426690937442
975,-26.39180723568097
976,-29.60705542658434
977,-20.067038479850453
978,-3.3916240982816817
979,14.509319527966
980,28.065923720587307
981,33.128319312372696
982,25.93663664646192
983,3.0810055755937356
984,-30.978444538626718
985,-64.04158482643652
986,-83.57828691063878
987,-81.14842290727756
988,-63.12186542636482
989,-39.168487572513186
990,-18.668162945645236
991,-5.440765641613325
992,1.3438297471238911
993,2.66574813088846
994,0.5051139221395715
995,-0.10794896513834829
996,6.376682883974354
997,24.729132384720288
998,49.23952195207494
999,66.94797350019508
1000,64.76460844183202
1001,37.56954768778269
1002,-0.9770883536493784
1003,-34.51517977719959
1004,-46.66460718115923
1005,-24.98525166790023
1006,16.283005155626597
1007,51.930281177395955
1008,57.12669377980819
1009,26.87235983923165
1010,-15.25260427448302
1011,-43.47808269845336
1012,-38.03396007720221
1013,-12.000121563120047
1014,10.493547183119517
1015,5.917159992139204
1016,-28.789169814554043
1017,-72.63532942497295
1018,-103.25120653704289
1019,-103.09668935898662
1020,-75.05166660968644
1021,-27.36602751906321
1022,31.610338171563853
1023,91.81754020914923
1024,141.61568782857285
1025,169.29488975230015
1026,168.40525419008372
1027,149.0468888386331
1028,124.55990088132239
1029,107.61439698789218
1030,101.64048331417143
1031,103.62826550178761
1032,110.39784867791604
1033,118.08933745499962
1034,121.20283593053318
1035,113.99844768677394
1036,92.27627579055115
1037,64.95642279302047
1038,47.58899072944587
1039,55.55408111900215
1040,90.25179496456803
1041,130.69223275253535
1042,153.85549445262222
1043,141.7116795177135
1044,103.92088688368312
1045,59.713214969220644
1046,27.91876167571172
1047,16.227624387076503
1048,20.04989996963559
1049,34.20568477198685
1050,52.49507462489055
1051,65.32816484115756
1052,62.34505021554287
1053,34.445825024644364
1054,-9.989416973159678
1055,-49.91058253781193
1056,-64.01757894764341
1057,-42.72031399943444
1058,-2.008696008459083
1059,38.69736619144169
1060,62.09796324784111
1061,66.53318528967975
1062,57.503121927251414
1063,40.51786225217438
1064,20.58749483739666
1065,2.0421077371665888
1066,-10.848211512940907
1067,-14.493375896010548
1068,-8.323298913788676
1069,7.442105413358149
1070,32.18292254647349
1071,58.51923742805411
1072,73.62113448209493
1073,64.53869761414353
1074,28.92201021135952
1075,-10.818844857409204
1076,-28.733785241549413
1077,-3.1727291086135665
1078,54.51440485578132
1079,117.79769744806254
1080,160.47722894677645
1081,172.52307911272874
1082,164.9353271890759
1083,150.09405190147845
1084,137.15933145819872
1085,122.83124355027758
1086,100.81986535164651
1087,65.59527351928773
1088,21.48754419340912
1089,-20.183247002420103
1090,-48.007024961067145
1091,-57.4037150916829
1092,-56.96324331950382
1093,-56.7755360856645
1094,-64.80052034699838
1095,-76.44812357584124
1096,-82.65827375981462
1097,-74.8008994016127
1098,-54.7459295187673
1099,-34.66329364344165
1100,-27.162921822171484
1101,-39.16474461564212
1102,-62.30869309843001
1103,-85.70469885875173
1104,-100.01269399820194
1105,-108.07261113148525
1106,-118.65438338615604
1107,-140.25794440232312
1108,-170.69322833237675
1109,-194.2501698406977
1110,-194.35870410334974
1111,-162.10876680779438
1112,-114.5602941525649
1113,-74.3132228469658
1114,-61.9674901107428
1115,-77.61303367377877
1116,-109.27979177571979
1117,-144.8477031656821
1118,-173.2867071018827
1119,-185.2067433512948
1120,-171.30775218931194
1121,-128.2996743993499
1122,-76.48245127252449
1123,-41.986024607240324
1124,-48.38033670884579
1125,-88.34533038923473
1126,-134.44094896645402
1127,-159.11713626432538
1128,-152.32383661202948
1129,-131.98099484372142
1130,-118.44855629809899
1131,-126.19646681799713
1132,-144.87467274997834
1133,-157.71312094389032
1134,-149.52175875243847
1135,-124.82053403075406
1136,-101.2293951359552
1137,-96.4182909266874
1138,-116.48717076268076
1139,-149.30598450429716
1140,-181.12468251205064
1141,-201.87321564616468
1142,-216.26153526607413
1143,-232.64959322996037
1144,-258.17734189427574
1145,-286.08473411323575
1146,-301.0617232383411
1147,-287.9282631178794
1148,-247.6543080964184
1149,-204.3098130142971
1150,-183.75473320711353
1151,-201.2790245052165
1152,-235.56264323316464
1153,-257.325546209222
1154,-241.26769074480399
1155,-198.22903464396222
1156,-158.2995362028214
1157,-151.01915420904334
1158,-181.82784794129475
1159,-227.24557716864183
1160,-262.0823021500528
1161,-270.1079836337831
1162,-259.76258285682525
1163,-243.65606154433954
1164,-232.3383819090668
1165,-222.02950665074604
1166,-202.9993989555278
1167,-166.27802249538763
1168,-117.92534142751902
1169,-77.95132039374039
1170,-66.8059245198765
1171,-90.17911941517195
1172,-124.16087117164716
1173,-141.2911463635155
1174,-121.86991204651167
1175,-82.55713575731352
1176,-50.6427855128768
1177,-50.85682980981619
1178,-77.56923762375118
1179,-105.3099784086753
1180,-108.67902209629574
1181,-81.55633909538847
1182,-44.24190029113379
1183,-18.955677044459662
1184,-19.91764119137042
1185,-37.63776504228554
1186,-58.236021381357205
1187,-69.6923834657955
1188,-72.40682502518212
1189,-71.97932026079798
1190,-73.79984384491581
1191,-79.13837092010726
1192,-85.70487709855843
1193,-91.02933846135602
1194,-91.39173155778371
1195,-80.77203340460801
1196,-52.930221485372385
1197,-6.436273749674001
1198,41.96983138756514
1199,71.2781150468054
1200,63.57859788463975
1201,27.211300094517355
1202,-16.283758592517188
1203,-45.76655890708571
1204,-51.84708204072558
1205,-36.84530964514306
1206,-3.6212238314637943
1207,40.30519283052854
1208,78.28395731315322
1209,92.60508613158527
1210,72.99859534463758
1211,39.40450055553447
1212,19.402816912655908
1213,36.18355911035178
1214,74.29674138971495
1215,98.28237753935719
1216,74.29048089619937
1217,8.2310643462788
1218,-54.64585967446692
1219,-67.6502791794046
1220,-14.072182630381576
1221,66.76844106306635
1222,129.39160254452327
1223,142.12731201152747
1224,124.44557921635169
1225,107.63641346687109
1226,118.21982362734707
1227,146.93581811928198
1228,168.16440492224137
1229,157.68559157468917
1230,117.55938517482173
1231,72.13579238141392
1232,46.24481941467093
1233,51.03647205706511
1234,76.62075565419582
1235,111.33767511563747
1236,144.36723491580779
1237,167.35943909482012
1238,172.42429125935814
1239,154.9817945835348
1240,128.75195180976152
1241,113.79476524964957
1242,128.14023678485137
1243,167.1883678679642
1244,212.1591595234131
1245,244.462612348334
1246,257.6387265134654
1247,258.5875017640483
1248,254.8489374207129
1249,251.7030323803956
1250,250.08978511722307
1251,250.4691936834388
1252,253.2612557102948
1253,258.72596840898404
1254,267.1233285715407
1255,278.39333257176804
1256,290.5859763661538
1257,300.99125549481323
1258,307.09916508239803
1259,308.96969983903364
1260,308.4128540612637
1261,307.15862163297606
1262,303.9669960263527
1263,294.2279703028089
1264,273.18153711393825
1265,242.247688702475
1266,214.56641690322613
1267,204.5977131440468
1268,220.77156844679848
1269,251.84797342829188
1270,282.5969183012767
1271,300.6983928753889
1272,310.5023865581461
1273,322.2588883558856
1274,345.07788687478023
1275,376.5893703217953
1276,407.60332650567034
1277,429.0597428379242
1278,436.32860633382006
1279,428.93990361336546
1280,406.66362090231814
1281,372.99974403317174
1282,337.04825844615334
1283,308.3391491902421
1284,293.05240092414897
1285,289.28799791735764
1286,293.97592405111754
1287,303.89616281944836
1288,315.40869733018735
1289,324.73351030598315
1290,329.2905840853291
1291,334.38990062359153
1292,348.46144149403335
1293,378.87518788885063
1294,420.4711206202046
1295,460.29922012125644
1296,485.7594664472108
1297,494.50183927635953
1298,493.89631791112515
1299,491.61288127910666
1300,489.7315079341388
1301,482.38217605733917
1302,463.1348634581718
1303,431.78954757549764
1304,401.726205478637
1305,388.07481386845393
1306,400.255349078403
1307,428.6877870756016
1308,459.8721034619175
1309,482.09827347503233
1310,492.96627198952774
1311,492.9960735179611
1312,483.7676522119582
1313,475.0709818632913
1314,480.64603590498336
1315,512.492787412375
1316,559.3712091042526
1317,593.8812733439245
1318,589.5629521403298
1319,550.396217149133
1320,510.5710396738523
1321,505.00739066694223
1322,539.5952407309287
1323,579.3345601195051
1324,586.3553187386606
1325,545.5174861478063
1326,487.06103156087374
1327,446.61592384747746
1328,446.57213153400335
1329,471.79962280476866
1330,500.5283655031526
1331,516.4983271327183
1332,525.8894748583625
1333,540.6117755074556
1334,569.4851955709946
1335,603.3997012047384
1336,626.6852582303582
1337,625.60183213661
1338,602.6693880804542
1339,568.5778908882567
1340,533.6073050569248
1341,502.14759475506435
1342,474.5787238241701
1343,451.28065577978305
1344,434.09335381265737
1345,426.12678078994213
1346,430.3908992563611
1347,444.7256714353898
1348,460.7810592304395
1349,469.91702422603703
1350,468.4535276890274
1351,460.49053056975936
1352,450.7679935032629
1353,441.88587681048375
1354,432.0541404994401
1355,418.9427442664619
1356,402.13164749736825
1357,386.34080926869865
1358,377.1401883489034
1359,377.3197431995741
1360,379.79943197665307
1361,375.3092125316525
1362,358.0990424128686
1363,338.618878866635
1364,331.92867883850886
1365,350.03839897453327
1366,386.4579956224625
1367,427.82742483299444
1368,461.3966423610127
1369,478.88560366682213
1370,474.1442639174111
1371,442.61257798767474
1372,395.8705004616804
1373,354.86798563392404
1374,339.3249875105739
1375,350.9814598107423
1376,378.6473559677379
1377,411.14262913033235
1378,441.8072321640302
1379,467.86111765234637
1380,486.6042378980583
1381,493.14654492451336
1382,480.4479904768741
1383,441.6785260234283
1384,383.55810275686054
1385,329.3966715955394
1386,303.2941831848166
1387,314.35058789831237
1388,349.77583583922024
1389,395.06987684159503
1390,435.6126604716792
1391,456.66413602917237
1392,443.5842525485732
1393,397.2829588004806
1394,349.89020329289633
1395,337.1859342725638
1396,373.8500997262727
1397,425.5326473821897
1398,450.89352471118036
1399,425.43267892814947
1400,369.79005699336085
1401,312.15560561378334
1402,276.39927124442875
1403,273.17100008968373
1404,310.55073810467
1405,387.3284309965875
1406,469.68402422605686
1407,516.5674630084868
1408,500.88869231542594
1409,450.9376568759217
1410,408.76430117790005
1411,406.23856946949854
1412,429.86040576047344
1413,453.48975382355275
1414,456.8165571958234
1415,448.11075918010283
1416,444.512302846324
1417,458.1211310329236
1418,473.6071863482375
1419,466.3604111718814
1420,418.9507476561612
1421,356.38813772745925
1422,319.2825230876424
1423,340.4138452154766
1424,402.3720453680198
1425,467.9170645820486
1426,504.29884367546765
1427,510.00732324873206
1428,496.5824436862731
1429,475.6741451579128
1430,458.952367620308
1431,458.1470508183702
1432,482.33813428671965
1433,520.5955573511019
1434,552.669259129847
1435,561.9891785353193
1436,561.3652542753553
1437,577.6874248547283
1438,632.8856285765924
1439,707.3298035439639
1440,761.0298876611614
1441,759.7558186352926
1442,719.1475339777226
1443,679.6549710055369
1444,677.0180668430348
1445,705.006758423202
1446,736.310982489209
1447,746.410675595871
1448,735.7357741111864
1449,717.2362142177917
1450,702.4819319144863
1451,690.6328630177322
1452,674.658943163151
1453,649.2501078070527
1454,623.5862922279375
1455,613.9074315280195
1456,632.9034606347541
1457,664.664314302363
1458,679.6499271133544
1459,653.2102334800693
1460,598.7851676462196
1461,547.3046636884283
1462,525.3286555177638
1463,526.8170768813125
1464,531.4598613637172
1465,520.5969423887327
1466,487.59825322079996
1467,430.82372696660605
1468,352.42329657664413
1469,278.5268948468074
1470,244.64445441994394
1471,275.8859077874604
1472,336.12118729089343
1473,366.8502251235059
1474,324.48295333187707
1475,246.25930381750914
1476,196.5092083384061
1477,220.8925985107271
1478,273.109405810339
1479,278.7195615744804
1480,187.64299700334595
1481,57.79964316173573
1482,-23.03056901933087
1483,5.50229125901933
1484,95.11815466514236
1485,170.69695173853506
1486,179.00861289146997
1487,143.4930684106348
1488,104.36024845880456
1489,89.2200830764923
1490,86.92250218361005
1491,78.86743558112721
1492,55.364812952760985
1493,30.554563866644457
1494,22.526617776997227
1495,38.17090402582835
1496,58.257351844602454
1497,59.95589035595731
1498,33.8464485753957
1499,-2.4910445870173135
1500,-28.316660324950135
1501,-31.970469934074572
1502,-17.432544810359104
1503,9.707043551648894
1504,40.37822356055767
1505,60.35092352985703
1506,55.48507167966636
1507,28.77059613845813
1508,4.687424944822851
1509,8.115486049198807
1510,38.694707315647975
1511,69.49501652360595
1512,73.65634136965855
1513,50.81860946928464
1514,24.00174835866892
1515,15.215685496461447
1516,20.810348265562425
1517,18.315663974917697
1518,-12.518440138686856
1519,-63.462036908817026
1520,-109.17519923759755
1521,-126.81800009388826
1522,-116.21051251147946
1523,-88.22280958726697
1524,-54.694964479407645
1525,-32.95705040552457
1526,-42.499140640826226
1527,-95.38130851630012
1528,-167.17662741684762
1529,-222.29417077942708
1530,-235.52801209120298
1531,-221.1032248876836
1532,-202.5528827508515
1533,-195.661059307271
1534,-193.64282822623318
1535,-185.67926321784944
1536,-168.2384380311796
1537,-154.08942645231036
1538,-158.01730230247813
1539,-179.25413943613785
1540,-190.29701173906687
1541,-161.73299312643394
1542,-94.27415754087451
1543,-28.476578950569092
1544,-5.941331347288724
1545,-27.787488744472284
1546,-54.01712517526903
1547,-45.646314690580766
1548,-7.585131357096543
1549,21.33235074465665
1550,6.238057522297822
1551,-38.46108512642968
1552,-69.70015131168111
1553,-51.62921514950722
1554,-1.8233507598724827
1555,39.217367735356675
1556,39.150866214415146
1557,6.747070557659754
1558,-36.512093350413124
1559,-71.9876996191415
1560,-91.0998223496681
1561,-87.474535632884
1562,-62.48391354740852
1563,-36.60503015751419
1564,-33.09695951108188
1565,-60.77577563752311
1566,-103.00155254572928
1567,-140.77736422196358
1568,-164.70328462781072
1569,-177.50738769805866
1570,-182.5407473386149
1571,-179.9474374243964
1572,-166.97353179722813
1573,-141.20710426370533
1574,-105.35522859309276
1575,-65.42397851519127
1576,-27.757427718177496
1577,-0.8096498464801698
1578,6.036281501370468
1579,-12.372707225087652
1580,-40.80968952609328
1581,-57.90873884947905
1582,-49.95392858851301
1583,-27.456332079684216
1584,-5.693022600538825
1585,5.171926632543546
1586,5.785442466532913
1587,-1.7125481860057334
1588,-8.332118344724222
1589,4.61865904075421
1590,55.0067110930795
1591,126.69096500938758
1592,170.74834806358922
1593,142.6287876085953
1594,64.96321107859694
1595,3.8815459913348604
1596,15.304719950387152
1597,78.79866064742782
1598,141.52229586456087
1599,163.31255347659862
1600,159.09436145337168
1601,158.56064786205388
1602,178.8313408694903
1603,203.40836874451088
1604,210.3806598602987
1605,191.90514269670894
1606,164.04074584265254
1607,144.87139799843317
1608,144.27402797814466
1609,163.10156471203481
1610,200.87093724889382
1611,245.49507475845348
1612,276.70290653378834
1613,277.92436199373697
1614,260.9673706852991
1615,250.1908622860883
1616,262.93376660675494
1617,286.2950135934243
1618,299.33353333017294
1619,290.0472560414619
1620,269.05011209461736
1621,250.36903200231427
1622,241.43794642505418
1623,239.5297861736508
1624,241.40748221176364
1625,251.41096565837142
1626,281.0801677903073
1627,339.3240200448072
1628,405.3614540220151
1629,441.09740148753554
1630,417.650794375013
1631,358.3955647886578
1632,304.6556450058488
1633,288.1399674796994
1634,310.5384648416475
1635,367.6320699040534
1636,446.8967156628187
1637,520.9153352999892
1638,561.6838621863844
1639,567.1092298842359
1640,562.7063721498198
1641,572.8952229361348
1642,594.5557163955291
1643,607.2077868824035
1644,595.8613689558715
1645,578.7663973824565
1646,586.0628071387982
1647,634.1905334143412
1648,696.8595116140787
1649,739.6196773612592
1650,743.910966500136
1651,718.6433150987086
1652,675.506659451481
1653,627.1959360822239
1654,587.4300817467556
1655,568.5500334357257
1656,569.071728377412
1657,579.7371040405269
1658,591.2050981370176
1659,594.2506486249094
1660,579.6816937111416
1661,543.989171854395
1662,498.0880217679605
1663,455.1791824226002
1664,428.58959304942437
1665,431.8141931427672
1666,475.92492246311303
1667,535.5417210399537
1668,557.3595291747424
1669,499.17328744381484
1670,398.62293670131294
1671,326.2594180821434
1672,327.71767300492866
1673,364.9706431749855
1674,382.8752705872939
1675,355.4984975294901
1676,307.20926658487406
1677,266.419520635407
1678,242.22220286474476
1679,225.87425676126622
1680,209.35062612112233
1681,195.95825505127686
1682,194.53408797259
1683,209.01006962288193
1684,224.20214506002958
1685,220.3912596650589
1686,189.74035914524939
1687,147.12238953727865
1688,109.49629721032215
1689,82.80902886922559
1690,62.10153155763874
1691,42.17375266120689
1692,19.927639910714788
1693,-6.678858614692217
1694,-37.05479448433107
1695,-60.33221891274479
1696,-63.20818275650345
1697,-42.91373651095091
1698,-16.4929303069639
1699,-2.376813907689211
1700,-1.8964367052740272
1701,-0.18484771758630814
1702,15.137904415079902
1703,31.70377143332371
1704,25.4507054619462
1705,-16.171340986727955
1706,-65.24441500948342
1707,-85.34356330887567
1708,-64.6588321898671
1709,-31.806267556426974
1710,-17.689914908160063
1711,-28.674819336889414
1712,-51.29902552325075
1713,-72.36057773324137
1714,-84.01451981480568
1715,-80.46889519436081
1716,-62.26574687333414
1717,-47.27511742468596
1718,-55.79304898942064
1719,-87.6285832730664
1720,-116.34876154216909
1721,-116.69562462076647
1722,-95.32421288682053
1723,-78.48256626868533
1724,-84.63772424152921
1725,-96.63672582373692
1726,-87.68260957333587
1727,-51.538413584366936
1728,-21.487175483276587
1729,-33.294932425273146
1730,-83.3427210906666
1731,-132.697577681236
1732,-147.07853791651905
1733,-131.9366370301359
1734,-108.95290976609249
1735,-94.88639037504981
1736,-92.71011261061176
1737,-102.89210972554793
1738,-120.24241446807355
1739,-132.6530590780476
1740,-129.26407528320124
1741,-115.43149429533696
1742,-105.56034680649827
1743,-109.09066298517064
1744,-116.48347247240781
1745,-113.89680437799689
1746,-96.28268727657996
1747,-72.46614920376487
1748,-51.97821765223125
1749,-37.31991956781167
1750,-26.046281345568786
1751,-16.6593288258573
1752,-12.650087290339798
1753,-18.9705814580484
1754,-38.58183548138004
1755,-70.62787294209375
1756,-113.09371684730286
1757,-151.7783896254332
1758,-162.341913122189
1759,-128.28730859647476
1760,-79.08159671634712
1761,-60.14579755489103
1762,-91.45893058612637
1763,-137.3700146809042
1764,-156.54406810273576
1765,-142.3151085036734
1766,-120.04115292012102
1767,-111.94121776865177
1768,-113.06431884182712
1769,-108.09347130396964
1770,-90.02068968692765
1771,-71.30798788584434
1772,-66.55937915488175
1773,-76.07687610296671
1774,-86.38449068947011
1775,-86.61123421991397
1776,-86.1991173416518
1777,-102.49515003951456
1778,-137.2173416314581
1779,-155.45570076419972
1780,-119.45123540882196
1781,-42.72195285635826
1782,12.739140286608745
1783,-3.466961897596775
1784,-59.12226463330626
1785,-91.12977244701688
1786,-66.68848916291972
1787,-19.70641789838737
1788,8.689438940542459
1789,8.47207966370297
1790,-3.2624966986386426
1791,-10.257290391218703
1792,-5.931300929183635
1793,12.979472906510637
1794,39.58703307371616
1795,47.4323822737515
1796,10.595523956033503
1797,-55.54153767722528
1798,-104.30879766634826
1799,-99.9332502894722
1800,-59.273889057831184
