800,21.882243692052725
801,14.166215010671294
802,10.337612694419477
803,9.772599085588809
804,12.257336106487855
805,17.583985260183
806,24.894707631244273
807,31.055663886481852
808,32.45401427569141
809,25.64691863240023
810,13.135536374607
811,4.89402650552438
812,11.35254761431952
813,40.58525787686085
814,82.21531505645908
815,117.1928765046041
816,126.457099161712
817,101.85213955786548
818,62.85815381355587
819,33.24829764042079
820,35.579726341987225
821,68.36059481441134
822,107.9290575472196
823,129.8102686240445
824,115.38838172337091
825,76.63855011926535
826,35.50292668212205
827,13.766663879400767
828,21.289913776352478
829,47.41982803677638
830,79.48355792373786
831,105.6092543003133
832,122.6800676303219
833,133.00814797906696
834,138.98764501405822
835,142.64470800575418
836,144.8304858282936
837,146.16112696022356
838,147.22977948523567
839,147.9795910928924
840,147.65470907936015
841,145.4562803481358
842,140.59645141077544
843,132.3083683876239
844,119.83417700854079
845,102.4500226136206
846,82.89505015392842
847,70.35840419221404
848,74.7192289036393
849,104.46166807649934
850,152.03786511294675
851,199.67796302970874
852,229.45510445880154
853,229.90143164826168
854,209.9030864628512
855,182.35621038477893
856,159.74994451441762
857,144.90342957100802
858,130.7408058933861
859,109.74821344068368
860,76.76179179304381
861,39.06768015233047
862,8.064017342830994
863,-4.9590581880229365
864,4.2495916310299435
865,28.833104495804037
866,60.94461772736122
867,93.09226827271141
868,120.8551927055205
869,141.39552722680128
870,151.89740766561772
871,151.6239694797805
872,144.836347756539
873,136.5216772132826
874,131.5120921982225
875,132.24172669109157
876,139.31771430383924
877,153.3031882812984
878,173.10228150189505
879,191.67312647832387
880,200.63485535822838
881,192.07659992489334
882,170.42349159791502
883,153.37666143389015
884,159.29024012708487
885,201.21035801011385
886,264.42714505461936
887,325.189730871939
888,360.0392447137747
889,360.8328154728697
890,341.896571683671
891,319.35564152299685
892,307.150152810701
893,303.10923301033563
894,297.83800922981754
895,281.96760822207034
896,253.1541563857072
897,222.72777976566795
898,203.59360405387724
899,207.18375458990067
900,229.77935636158782
901,258.77253400573227
902,281.45241180870653
903,289.8351137071122
904,287.8117632884223
905,281.1194837916255
906,275.28039810785594
907,272.9926287810413
908,274.85029800852953
909,281.4095276417265
910,291.82343918672905
911,300.8411538049477
912,302.344792313741
913,290.72247518703534
914,269.83132255594955
915,251.94845420942238
916,249.6529895948206
917,270.22804781856485
918,300.64274764674246
919,322.98720750571647
920,320.08554548274606
921,292.7648793265789
922,260.53532644808
923,243.779003920813
924,257.10102848166207
925,289.09251653141837
926,321.0385841353873
927,334.6513470239752
928,325.1909205932934
929,303.79941990574116
930,282.5159596905978
931,271.2556543446108
932,269.0816179325793
933,271.6219641879361
934,274.56780651333065
935,276.0732579812011
936,277.4534313343556
937,280.2234389865416
938,285.4213930230226
939,291.401405201138
940,295.6065869508784
941,295.4720493754403
942,288.50190325179756
943,272.2922590312519
944,244.4362268399991
945,204.17391647966997
946,160.23943742789834
947,124.78089883885696
948,109.72740954381425
949,116.6580780516706
950,132.75901254950986
951,144.14632090313626
952,139.66411065760258
953,124.13948903776054
954,108.20556294878133
955,102.32143897669266
956,108.6602233889007
957,117.96602213472033
958,120.14394084589458
959,106.87808483711433
960,80.00755910653515
961,44.96946833630045
962,7.164916893035297
963,-29.498991171623857
964,-63.10415212053067
965,-91.86346253052307
966,-113.46881929192932
967,-122.79911960805475
968,-113.7922609946936
969,-80.68614127962883
970,-28.221658602151365
971,25.85128858743883
972,62.96780152831798
973,68.41698114962037
974,46.239928070915994
975,6.15574260269841
976,-42.11647525315311
977,-89.00962580288615
978,-125.12760966041424
979,-141.07432774684457
980,-130.68968129002042
981,-101.551571824044
982,-64.89290118883218
983,-31.76457152965122
984,-9.184485296662388
985,-0.1875452444774055
986,-7.645654431700677
987,-31.29871622048813
988,-59.60963427610659
989,-78.50431256648062
990,-74.59565536177615
991,-46.32756723394414
992,-2.0809530562992222
993,49.45728199691257
994,98.41923245093403
995,131.4749925309352
996,134.658656162419
997,95.89031697165228
998,27.50106828607113
999,-41.250996865299385
1000,-80.80178575143873
1001,-75.1022059389179
1002,-40.01716529150872
1003,3.9734280302400293
1004,36.382665569371966
1005,40.12963857294744
1006,21.134437992423045
1007,-5.220845515959809
1008,-23.690121590785566
1009,-28.004300165066525
1010,-24.781291465893446
1011,-21.641006014022423
1012,-24.796354623509615
1013,-32.832248401353354
1014,-41.7515987471088
1015,-47.67031735251112
1016,-50.56531620113674
1017,-54.936507568021625
1018,-65.54880401931041
1019,-85.01611841189697
1020,-106.85236389307829
1021,-122.18145390018981
1022,-122.5153021602755
1023,-107.44482268972934
1024,-84.04292979396087
1025,-59.66853806705694
1026,-41.01256239144095
1027,-32.63591793754313
1028,-38.6895201634743
1029,-62.44728481468883
1030,-95.79312792367091
1031,-122.60496580960535
1032,-126.62871507806449
1033,-100.75429262068974
1034,-58.64261561487365
1035,-16.84060152346865
1036,10.0278319055451
1037,23.71776663933997
1038,34.297284360563935
1039,51.77046646761846
1040,77.13239407496621
1041,97.0061480134209
1042,96.69980883043354
1043,66.12845679038219
1044,20.738171874852924
1045,-15.205966217074092
1046,-18.22187806855254
1047,12.886515455302288
1048,54.89729320769766
1049,83.3235337604201
1050,82.19431540410551
1051,65.6247161485062
1052,54.3698137227384
1053,67.460685575561
1054,100.09540887561707
1055,130.18306051167565
1056,135.29671709290233
1057,107.36845494908812
1058,69.73535013090441
1059,49.90947841012712
1060,70.41391527988526
1061,116.18173595490225
1062,155.06001537171142
1063,155.39182818889094
1064,111.2512487872882
1065,51.33535127024879
1066,6.794209463821971
1067,0.9148969169964403
1068,23.726486901901808
1069,56.49105241401594
1070,81.19366617238302
1071,91.76940061981986
1072,91.80532792311169
1073,85.17351997320111
1074,74.64304838541648
1075,60.43398449963388
1076,42.400399380487215
1077,21.11836381754256
1078,2.6229483254955994
1079,-4.536776855649805
1080,7.939258239593983
1081,37.808123302371314
1082,69.16588774967931
1083,85.17462072450871
1084,75.13639109603355
1085,51.89226745976157
1086,33.9273181377157
1087,38.20461117857121
1088,61.36821435782804
1089,85.68119517796549
1090,93.1606208685771
1091,75.46955838653957
1092,42.83107441614993
1093,7.601235369258575
1094,-19.284892614576165
1095,-35.1292436679596
1096,-40.1937521955133
1097,-34.85335287376438
1098,-21.98198065100405
1099,-6.9065707471545466
1100,4.937941346330263
1101,9.285619866619527
1102,4.995528779594679
1103,-8.561268220028069
1104,-31.177707708577145
1105,-55.93972653331912
1106,-72.6852618123612
1107,-71.52425093453712
1108,-53.477631559306246
1109,-33.308341616653706
1110,-26.647319307012367
1111,-42.71850310114132
1112,-68.92783174004762
1113,-88.04724423490916
1114,-85.06467986696953
1115,-67.79007818747414
1116,-57.45237901757537
1117,-75.08752244825882
1118,-121.53944884027987
1119,-167.81909882407854
1120,-182.508413299709
1121,-145.23433343678334
1122,-79.2248006744012
1123,-18.45875672108923
1124,5.765856445259487
1125,-5.948903422560761
1126,-32.14297884100961
1127,-51.192312595761905
1128,-54.67484774163677
1129,-55.21752760257368
1130,-67.34629577158194
1131,-100.73809611068828
1132,-144.91487275091822
1133,-184.1585700922442
1134,-203.7131328035539
1135,-200.65250582263252
1136,-179.92363435611696
1137,-146.63846387947524
1138,-107.59394013699966
1139,-72.23900914175647
1140,-50.25361717558917
1141,-48.434710789093515
1142,-62.02923680160529
1143,-83.423142301197
1144,-105.40637464464999
1145,-125.34688145746804
1146,-143.47061063386172
1147,-160.03151033675204
1148,-174.89452899776552
1149,-187.36361531725015
1150,-196.7047182642582
1151,-202.18378707657757
1152,-203.05677126072987
1153,-198.5836205919877
1154,-188.38528511437653
1155,-175.30071514071642
1156,-163.8958612526112
1157,-158.60767430050328
1158,-159.0841054036664
1159,-159.23610595025457
1160,-152.62762759731413
1161,-136.29862227082958
1162,-116.78904216574665
1163,-102.26683974600382
1164,-99.67096774458696
1165,-107.62737916354126
1166,-121.29102727405007
1167,-135.87286561644032
1168,-147.88784800025314
1169,-155.06092850428286
1170,-155.17106147663435
1171,-148.28820153476045
1172,-139.08530356553638
1173,-132.78032272530072
1174,-133.22021443992162
1175,-137.8039344048575
1176,-142.04143858520547
1177,-141.88868321579685
1178,-138.5856248012351
1179,-136.81122011597472
1180,-141.21742620439363
1181,-152.11820038086444
1182,-163.89850022983592
1183,-170.50928360589205
1184,-169.2135086338476
1185,-167.0751337088259
1186,-172.97711749633163
1187,-194.0584189323472
1188,-225.56299722341464
1189,-257.7788118467124
1190,-281.25182255016625
1191,-291.69298935253573
1192,-289.2902725434833
1193,-274.4216326837104
1194,-250.7380306050145
1195,-227.65642741041665
1196,-215.18478447425878
1197,-219.0210634422874
1198,-228.62622623177776
1199,-229.6352350316265
1200,-209.31705230247462
1201,-168.78764077679807
1202,-116.12296345903269
1203,-59.489983625686364
1204,-7.96866482544101
1205,28.45502912071788
1206,39.81813411939038
1207,23.864685804644978
1208,-6.519280462116512
1209,-36.69472959225459
1210,-54.41762677004408
1211,-57.19093745278042
1212,-44.989627370912785
1213,-18.564662528175177
1214,14.506990798287006
1215,43.11336605778888
1216,56.48049642596925
1217,52.28541480465174
1218,36.550153821721324
1219,15.651745830971777
1220,-4.868777088007846
1221,-21.01938312999846
1222,-28.979040764288584
1223,-27.223718734790964
1224,-22.715386060221135
1225,-24.380012034216634
1226,-38.88956622550177
1227,-55.888018478008235
1228,-57.23733891105985
1229,-25.99649791949014
1230,33.11753382619281
1231,97.01978537964715
1232,142.25028551855758
1233,158.24206274447715
1234,154.2691452826748
1235,141.29056108196164
1236,128.60133781455625
1237,120.69950287591564
1238,121.23808338457275
1239,132.28010618198095
1240,147.08159783234987
1241,155.87658462248692
1242,150.0750925616212
1243,134.4141473812615
1244,121.9917745350067
1245,125.69799919839534
1246,149.14584626872966
1247,185.74134036491887
1248,228.3455058272957
1249,268.03336671745456
1250,292.444946818081
1251,288.82726963278583
1252,252.18735838591783
1253,204.41823602240765
1254,173.23792520758252
1255,180.45644832700054
1256,209.9928274862741
1257,230.83708451088387
1258,214.9872409460204
1259,172.83831805639784
1260,140.9363368260747
1261,155.13931795828285
1262,215.7082818752424
1263,282.4022487179918
1264,312.9742383461926
1265,290.031270337975
1266,243.42536398973243
1267,208.31553831595556
1268,209.51381204904646
1269,238.1082036391399
1270,278.3257312539208
1271,315.0814127784379
1272,337.2272658149286
1273,335.0093076826306
1274,300.88055541760696
1275,250.117025772548
1276,211.4197352166084
1277,212.11869993520486
1278,246.95493582984454
1279,279.8964585179383
1280,274.1832833326134
1281,220.02342532252806
1282,147.989899251701
1283,91.95171959931395
1284,73.41390055952616
1285,84.1844560412992
1286,111.71139966821283
1287,144.09474477827098
1288,172.03550442373125
1289,186.86669137090576
1290,182.56831809999312
1291,170.38639680488086
1292,168.47993939297703
1293,193.28195748500912
1294,241.54646241485534
1295,297.72846522935833
1296,346.4069766881439
1297,379.1800072634269
1298,394.315567139849
1299,390.43466621427615
1300,370.63331409565035
1301,344.4135201047593
1302,321.7632932741126
1303,310.5916423477065
1304,314.34357578089293
1305,335.8831017401699
1306,373.7152281030176
1307,411.9329624577076
1308,431.63531210314795
1309,418.4352840486863
1310,381.12488501393454
1311,335.8991214286143
1312,298.5929994323542
1313,282.03652487454383
1314,297.62070331413634
1315,354.31454001949714
1316,429.672039968209
1317,479.3132078469316
1318,460.50704805120404
1319,379.0085646852931
1320,288.8367615620209
1321,245.38064220259184
1322,268.66320983643527
1323,328.9534674010374
1324,392.84441754177897
1325,438.12006261176793
1326,464.8504046716789
1327,475.75344548959947
1328,474.35818654086324
1329,466.4966290078937
1330,458.4127737800445
1331,454.5246214534491
1332,451.7751723308684
1333,445.20242642152516
1334,433.0623834409598
1335,432.43604281088665
1336,467.2294036590283
1337,556.7554648189853
1338,681.2952248300699
1339,801.5366819371866
1340,880.5738340906719
1341,913.7926789461417
1342,918.5342138643846
1343,911.9284359111844
1344,898.735341857222
1345,872.5049281779011
1346,826.5651910532451
1347,760.2381263677435
1348,679.9687297102391
1349,592.7059963737902
1350,509.5009213555404
1351,447.8094993566028
1352,425.56872478193145
1353,445.63059174020236
1354,480.0140940436868
1355,496.9602252081477
1356,476.8779784527178
1357,432.8603466997811
1358,383.4273225748657
1359,343.51689840653853
1360,315.42606622629864
1361,298.6658177684585
1362,293.19714447005936
1363,301.06103747076304
1364,324.8844876127532
1365,364.8694854406367
1366,406.7320212013583
1367,430.81608484410026
1368,420.9946660202022
1369,388.766754083068
1370,358.55133808808387
1371,352.560406792536
1372,369.6389486555436
1373,395.033951837946
1374,414.48540420228346
1375,422.74329331267836
1376,420.9866064347898
1377,410.4563305357424
1378,391.0744522840705
1379,361.60195804963405
1380,321.16583390359483
1381,278.6500656183307
1382,253.04663866741066
1383,263.2255382255189
1384,306.6287491684252
1385,354.24025607294607
1386,375.7950432168873
1387,361.84609457901934
1388,333.3453938390394
1389,313.53892437753893
1390,316.69266927598255
1391,341.65461131667143
1392,385.69673298273483
1393,438.69701645809437
1394,475.73544362746907
1395,470.1869960763506
1396,415.8096550909995
1397,353.794401658437
1398,332.0452164664439
1399,374.1080799035699
1400,438.08097205912054
1401,471.1518727231851
1402,441.5077613866433
1403,382.120617241173
1404,338.43341917928774
1405,342.25614579433204
1406,377.39277538053284
1407,417.10428593302277
1408,439.89565514787137
1409,445.1748604221266
1410,437.5328788538518
1411,423.0376872421821
1412,414.2702620873624
1413,425.6325795908051
1414,466.2706156551558
1415,519.3453458843414
1416,560.0077455836472
1417,568.1347897597843
1418,549.3234531209619
1419,517.8607100769586
1420,486.46653473922015
1421,458.39990092093467
1422,433.4577821371422
1423,412.2661516047883
1424,400.75398224287346
1425,406.95224667253206
1426,435.98491721713435
1427,473.029965902424
1428,494.8833644566075
1429,482.6540843105049
1430,449.0980965976487
1431,420.95537215444165
1432,421.4928815202711
1433,446.7725949376636
1434,480.29548235243055
1435,507.19951341380875
1436,526.286657474624
1437,542.8798835914531
1438,561.5201605247858
1439,579.8214567391842
1440,592.0247404034817
1441,593.2949793909429
1442,586.8261412794654
1443,579.8071933517494
1444,579.3281025955075
1445,591.3338357036773
1446,621.1993590745933
1447,671.7706388122369
1448,724.5756407264216
1449,750.4183303330319
1450,724.5856728542622
1451,660.5506332188106
1452,590.8091760621555
1453,544.895265726791
1454,526.7248662624606
1455,527.7049414264329
1456,539.2334546837446
1457,553.438369207488
1458,562.7886478790588
1459,560.8912532884533
1460,550.0911477345435
1461,536.7452932253727
1462,525.6176514784456
1463,509.73718392103365
1464,476.9678516904787
1465,419.1516156345151
1466,355.33543631157954
1467,315.92027399113977
1468,324.4780886540357
1469,360.80483999281023
1470,387.5414874120506
1471,374.049990028745
1472,329.57030667263825
1473,277.867395886602
1474,240.27421592698374
1475,224.8007247640162
1476,234.99688008217163
1477,269.1866392805623
1478,300.1029594733445
1479,292.63679749010953
1480,224.6511098762967
1481,131.46685289361267
1482,64.29498252045232
1483,59.64245445233428
1484,95.84122410232885
1485,136.83324660150538
1486,155.0134767993859
1487,152.3708692643977
1488,137.37537828435052
1489,118.30195786689
1490,102.82556173999001
1491,98.50314335243638
1492,107.57065587431862
1493,117.95105219752622
1494,115.22028493627658
1495,94.00730642759663
1496,70.04206873188195
1497,61.981523633399775
1498,77.29462264084577
1499,100.96931698787375
1500,115.42055763366261
1501,114.19429526347085
1502,110.0444802892016
1503,117.3480628499783
1504,134.77999281274424
1505,137.90021977283868
1506,101.23269305459326
1507,29.720361711961232
1508,-33.62882547089794
1509,-45.0389199789679
1510,-3.083973565748238
1511,48.928961747367794
1512,67.60283367175725
1513,48.34958965222722
1514,20.891176867657123
1515,14.229542231701998
1516,30.384632393446736
1517,51.59239373811579
1518,60.70777238775008
1519,52.13671420193532
1520,27.23216477850292
1521,-10.855930545734736
1522,-45.218626694271734
1523,-52.20797885014508
1524,-14.939042455196613
1525,40.304126790686496
1526,70.41747293033404
1527,43.840939750085454
1528,-14.100529219447708
1529,-60.661990702563344
1530,-62.511501677683555
1531,-21.991119376538336
1532,50.116098716662236
1533,138.93609486604873
1534,217.77381108494046
1535,257.84318913669995
1536,246.31117053556773
1537,205.96569654755876
1538,164.28370819132033
1539,136.7071462390304
1540,117.98995121728694
1541,100.916063408009
1542,81.01342284937164
1543,57.44896933671407
1544,29.70264242347548
1545,-0.9646185778474319
1546,-31.50487459476608
1547,-58.745186793816174
1548,-79.0246165795852
1549,-88.29722559374386
1550,-83.22707571404317
1551,-67.81722905329298
1552,-50.32974795838163
1553,-39.00569500920756
1554,-41.44513301769439
1555,-64.97612502669654
1556,-112.71273430897963
1557,-166.80002436613177
1558,-202.89205892749942
1559,-204.7659019490975
1560,-184.71061761250803
1561,-161.25227032376733
1562,-148.32292471226174
1563,-148.4596456295858
1564,-162.4434981484037
1565,-188.34854756130062
1566,-219.46785937961886
1567,-248.68949933228214
1568,-271.92253336461454
1569,-288.90102763714094
1570,-299.4920485243929
1571,-301.39966261367135
1572,-290.36893670383415
1573,-262.8519378040519
1574,-224.38973313254792
1575,-186.3513901153492
1576,-159.45297638500506
1577,-148.81455977929636
1578,-157.06920833995082
1579,-183.357990311325
1580,-210.12197413908507
1581,-214.7692284688801
1582,-186.61382214498917
1583,-152.65082420897397
1584,-147.24630389831236
1585,-186.02633064500878
1586,-245.15397407420915
1587,-295.96430400280497
1588,-318.8383904380016
1589,-307.02630357590806
1590,-255.6501138000849
1591,-178.94289168009163
1592,-109.55970797003738
1593,-78.47263360708621
1594,-87.73673970997788
1595,-120.70209757752582
1596,-160.13077868710207
1597,-187.0498546931094
1598,-181.72939742543986
1599,-132.12847888793385
1600,-59.23917125679964
1601,7.0704531209512425
1602,43.17332172910028
1603,42.20036188382346
1604,0.21550073530943337
1605,-72.91133473061473
1606,-143.86021769083982
1607,-178.1312214833124
1608,-172.28641960538062
1609,-156.92888571209642
1610,-161.68469361453663
1611,-179.8839172780763
1612,-179.27363082068223
1613,-133.2349085111655
1614,-60.311824767442886
1615,0.9725458452294333
1616,22.176128616039932
1617,18.33584869040078
1618,16.06063107175578
1619,32.41540062340118
1620,60.324082070311306
1621,88.94960000099218
1622,107.9848788693289
1623,107.92984299647105
1624,80.15941657272015
1625,33.18452365941903
1626,-8.162911809122306
1627,-20.920966023690198
1628,-7.943715298239113
1629,12.869763932083515
1630,27.064395112899547
1631,40.27410157259419
1632,65.03480652432336
1633,107.56943306801895
1634,154.43190419243365
1635,188.4631427771783
1636,202.40707159478643
1637,206.78861331280132
1638,213.66869049585148
1639,226.41022560776764
1640,239.1341410137029
1641,246.32435898226777
1642,251.75880168768526
1643,265.0623912119554
1644,293.54204954704073
1645,330.5476985970636
1646,364.4302601805193
1647,385.9566560325093
1648,393.46380780697655
1649,386.80563707897545
1650,370.08006534694414
1651,354.717014034999
1652,352.5074044952371
1653,366.52815801006636
1654,391.2321957945351
1655,420.62743899870384
1656,448.07380870999896
1657,466.56622595561385
1658,470.17661170490555
1659,458.30888687181596
1660,431.99597231731605
1661,396.62078885184656
1662,368.5972572377932
1663,365.7682981919743
1664,391.3988323881458
1665,428.62178045950895
1666,460.1140630012569
1667,484.01560057312236
1668,510.3143137019497
1669,545.6181228842779
1670,571.7949485889494
1671,560.5067112597235
1672,496.09833131791584
1673,405.3797291650526
1674,323.9158251855506
1675,276.2055397493905
1676,267.68779321483544
1677,300.68250593115044
1678,352.62059824134394
1679,377.9639904849246
1680,337.88160300068193
1681,255.76835612947252
1682,185.393170217043
1683,166.85396561684956
1684,186.45766269290834
1685,217.5381818226624
1686,238.42444339986378
1687,237.01936783746987
1688,203.25387557057547
1689,149.11088705933435
1690,108.41432279192759
1691,110.8391032875279
1692,141.90914909930507
1693,164.6413808174193
1694,151.00271907206752
1695,108.94208453651936
1696,55.226397930187886
1697,6.224580021716065
1698,-22.4844483679135
1699,-16.601766362275157
1700,12.663546973665689
1701,29.918412636695393
1702,4.289751688546858
1703,-51.766514740918865
1704,-105.3434654504781
1705,-131.91017916432247
1706,-136.7297345287834
1707,-131.5462101090725
1708,-126.16468438598076
1709,-127.20723575256125
1710,-140.14194251080153
1711,-156.4898828682517
1712,-156.48913493467808
1713,-124.91477671864322
1714,-77.0978861241083
1715,-40.14954094699715
1716,-32.624818871732714
1717,-49.490797467778066
1718,-81.62955418613456
1719,-117.02516635582924
1720,-139.9677111803785
1721,-136.54226573423693
1722,-115.32690695922429
1723,-98.70471166092375
1724,-104.07175650507543
1725,-125.89111801392664
1726,-152.33687256258509
1727,-175.21109637533937
1728,-193.3018655219621
1729,-205.91325591398254
1730,-207.08834330095033
1731,-186.14920326668016
1732,-135.50591122545757
1733,-69.30754241824707
1734,-10.610171908852863
1735,21.38112541991177
1736,18.213274870100577
1737,-26.065798067472315
1738,-94.09916770933341
1739,-139.9689081754059
1740,-122.6740933850624
1741,-65.77879705314808
1742,-28.83809268598361
1743,-52.48105357734312
1744,-104.9577528044174
1745,-137.96226322374514
1746,-128.82865746713196
1747,-95.33900793754219
1748,-58.40638680496704
1749,-32.84686600227451
1750,-29.198517221037037
1751,-52.89541190732598
1752,-85.55762125750425
1753,-101.82721621397559
1754,-89.39526746092179
1755,-60.9388454200207
1756,-31.602020246125903
1757,-10.137861822945524
1758,0.011560241323422815
1759,-3.3598233816264838
1760,-16.396081735823827
1761,-33.11428357657587
1762,-46.91249736602731
1763,-49.84379126869317
1764,-34.47623314695829
1765,-7.45089055655626
1766,11.591169257961155
1767,7.043879367810405
1768,-8.454826835458334
1769,-11.485015635331365
1770,10.725247014300294
1771,45.97689549379811
1772,78.76486452247354
1773,99.62108916327725
1774,104.88950482755263
1775,92.61704727977667
1776,70.19165264235198
1777,48.66125740040934
1778,34.4887984066354
1779,23.37721288613284
1780,9.69343844129071
1781,-7.87158694329446
1782,-26.533924895910786
1783,-43.45763665276263
1784,-56.45578305300114
1785,-63.614424533713645
1786,-66.99662112489932
1787,-77.39443244441554
1788,-105.32291769289532
1789,-134.78313564865584
1790,-126.64014466255048
1791,-52.228002652826035
1792,56.121232900055475
1793,145.755504958629
1794,188.05875693365488
1795,200.930932689379
1796,206.08997654880932
1797,202.9698332990274
1798,174.12844819652582
1799,111.05376697256361
1800,47.11373583856039
