800,71.03734044300109
801,79.55102498827364
802,93.54888077775286
803,111.85214171062762
804,131.65104127153245
805,150.11281252803929
806,164.654688128192
807,173.55990029801615
808,175.28968083909058
809,168.3882611261106
810,153.97687210445656
811,136.4107442878012
812,120.25310775571961
813,109.58919215132482
814,104.8602266788912
815,104.77644010153381
816,108.04206073887326
817,112.43431646472891
818,113.37943470482242
819,105.93364243449287
820,85.63516617644564
821,57.56923199848097
822,35.61606551128716
823,33.97889186620341
824,62.23693575301513
825,105.83042139777899
826,142.32757256062905
827,149.51161253363898
828,120.56976413866141
829,75.22124972520578
830,35.79229116832539
831,22.64010986651374
832,34.564926739620205
833,57.00496222678521
834,75.20943628437453
835,78.93056838395205
836,72.44657751023988
837,62.94268215911325
838,57.42510033560757
839,57.80704955192596
840,60.45374682547663
841,61.451408676923165
842,57.63225112823784
843,50.299489700775666
844,42.4323394133753
845,36.99201478044415
846,35.77272981009264
847,38.39069800225661
848,44.22113234684184
849,52.803245321905706
850,65.50724889178127
851,84.87335450533101
852,113.45677309409803
853,150.7227150705421
854,186.36439032626367
855,208.15700823026054
856,204.41577762716406
857,176.35390683553487
858,138.36660364612362
859,105.44207532018663
860,90.13152858779722
861,92.08816964616017
862,106.71120415796759
863,129.38983724973514
864,154.76427351018538
865,176.30071698861866
866,187.3653711933057
867,182.41743908990065
868,165.5631230998606
869,145.8856250988738
870,132.5001464153138
871,130.9428878287017
872,138.1630495681602
873,149.83783131093514
874,161.8864321808669
875,173.70805074690725
876,187.3128850216708
877,204.8111324599322
878,225.78298995721343
879,240.6986538483361
880,238.01831990600658
881,206.85218333938974
882,153.45043879273544
883,102.53328034397964
884,79.72090150338045
885,103.74349521216755
886,157.28125384117266
887,211.31436918952932
888,237.1730324833352
889,226.58743437435078
890,201.18776493869336
891,185.02421367557872
892,198.43696950603044
893,234.7462207716344
894,275.15215523329425
895,300.8349600699876
896,301.76482187756847
897,284.8819266675346
898,259.11645986586336
899,232.8786063117932
900,209.28855025669145
901,188.3764753628584
902,170.12256470241118
903,156.33700075613342
904,153.3899654123652
905,168.37163996588606
906,207.33220511681247
907,261.9918409695274
908,313.4807270315923
909,342.69904221268916
910,338.7169648235831
911,316.5046725750599
912,296.11234257693104
913,296.6401513369874
914,319.7382747600186
915,351.4668881468151
916,377.3361661931922
917,385.76628298901596
918,376.2474120172501
919,350.90972615302053
920,312.11339766266974
921,267.168598202843
922,228.54549881957428
923,208.93426994739093
924,217.85508140843194
925,250.38810241157262
926,297.5935015515315
927,350.38144680806545
928,395.81210554509744
929,416.3956445098938
930,394.4022298322343
931,319.62202702363356
932,220.12520097651213
933,136.09191596343044
934,106.92233563631271
935,141.18662302566918
936,207.99494053986564
937,273.8774499643714
938,310.1943124610152
939,315.30568856730133
940,296.8317381956567
941,262.41262063278555
942,221.2184945389181
943,184.39951794720218
944,163.2658482629904
945,166.05764226319843
946,183.2350560956802
947,198.85824527856494
948,197.18736469965552
949,173.10256861581001
950,136.23401065234611
951,97.28184380243874
952,66.03622042655115
953,46.95729225186005
954,42.53521037169958
955,55.140125245012314
956,81.60218669581627
957,111.0915439126511
958,132.21834544810008
959,135.5927392182657
960,123.28487250225044
961,101.414891941713
962,76.05294354034959
963,52.10917266346587
964,32.903724037490974
965,21.656741749551657
966,20.728369247017326
967,27.998749337093614
968,39.808024186395414
969,52.556335320552535
970,63.16382362379227
971,69.28062933857836
972,68.55689206521674
973,59.25275076149774
974,42.41834374234713
975,19.96380867946391
976,-6.200717399005953
977,-33.80509810879812
978,-60.19919770984234
979,-82.6828811065825
980,-99.38601384825961
981,-111.8484621292082
982,-122.48009278912286
983,-133.59077331335175
984,-144.09037183312648
985,-149.61875712583242
986,-145.67579861524064
987,-129.3613663717333
988,-103.63533111252946
989,-72.73756420191057
990,-41.027937651395405
991,-14.30632411995066
992,0.35740308582535363
993,-4.096629988462155
994,-29.37829794517711
995,-61.277476034812935
996,-82.64404015612126
997,-77.83786685625819
998,-50.548833330927664
999,-17.856817424471956
1000,2.8883023699945625
1001,1.7066469104993303
1002,-13.951663593888952
1003,-34.14650958313359
1004,-48.917772146314746
1005,-50.37533302168595
1006,-44.61907459673421
1007,-43.45887990821211
1008,-58.57463264221224
1009,-91.66621713414861
1010,-130.17351836881244
1011,-160.41642198036425
1012,-171.35481425234502
1013,-166.3185821176794
1014,-153.507613158632
1015,-140.96179560680685
1016,-132.1110183431174
1017,-124.97517089772191
1018,-117.25414345000172
1019,-106.99782682849218
1020,-93.87611251079579
1021,-77.93889262354787
1022,-59.326059942293796
1023,-39.647507891413625
1024,-21.873130544030573
1025,-9.012822621876694
1026,-1.8164794952026568
1027,6.156002817369881
1028,22.784727648973785
1029,54.71979768463825
1030,93.0813149614387
1031,118.03938086867129
1032,109.61409614799231
1033,61.78556089362428
1034,0.4038745525194827
1035,-44.33086407543669
1036,-46.218556837233336
1037,-13.58910622651456
1038,27.67758461662197
1039,51.801611905866594
1040,47.91307120892816
1041,28.93205744774241
1042,9.958664898784264
1043,3.162987193265508
1044,4.435117317430922
1045,4.095147612824803
1046,-7.2368302234353905
1047,-29.14072513836072
1048,-50.476446722799665
1049,-59.55390521113077
1050,-47.75301148095059
1051,-17.18367705275341
1052,27.634185910383167
1053,81.6306646031644
1054,132.00584557839102
1055,160.389814747321
1056,148.32265738003298
1057,94.68445810579215
1058,36.22530091342014
1059,14.755269151666653
1060,63.894445529624136
1061,155.71291211710013
1062,234.30075034503352
1063,244.6680410059016
1064,178.14486425414543
1065,88.36129960658582
1066,33.387425942866685
1067,55.013321505895874
1068,126.37906390229182
1069,202.47473010283102
1070,240.4903964429268
1071,233.4961386230989
1072,203.54203170943038
1073,173.50815013408646
1074,157.27456769577657
1075,147.66135756027143
1076,134.50859226091416
1077,109.6863436991116
1078,80.53468314488237
1079,61.503681237370984
1080,66.73340798538266
1081,95.3039327679362
1082,126.82532433480446
1083,139.5576508070717
1084,120.09097967770504
1085,86.88537781211926
1086,66.05091144876133
1087,81.23764619968097
1088,123.19564705113771
1089,159.4249783641917
1090,157.0457038753193
1091,104.0378866970077
1092,28.491589318389742
1093,-36.89312639412674
1094,-64.54619919625475
1095,-56.71756846514472
1096,-26.34717419876506
1097,13.495042984739484
1098,48.01914184774432
1099,60.725180533780076
1100,35.073216568231146
1101,-32.34669314101302
1102,-109.87449230284801
1103,-160.02012524226302
1104,-151.2435368996521
1105,-99.84467283009872
1106,-45.2534792026654
1107,-26.259902799676638
1108,-51.933891015985864
1109,-93.95539185824055
1110,-121.61435394416003
1111,-115.12072650177652
1112,-91.77445936867298
1113,-76.78550299124981
1114,-92.52380842393904
1115,-132.11932732844434
1116,-171.55201197295173
1117,-186.8718152313595
1118,-170.52869058248325
1119,-139.3025921092467
1120,-111.90347449789988
1121,-102.3212930371883
1122,-105.84600361755656
1123,-113.10756273031802
1124,-115.46592746681745
1125,-112.28105551761837
1126,-108.2129051716438
1127,-107.98143531533606
1128,-116.85660543180347
1129,-140.9183755999711
1130,-186.33670649369742
1131,-253.44155938092445
1132,-318.3228961227742
1133,-350.79067917270186
1134,-324.084871575571
1135,-253.87543696678222
1136,-184.0323395713549
1137,-158.45554420304325
1138,-188.8750162633969
1139,-236.250721740862
1140,-257.0326272098482
1141,-222.7506998297922
1142,-164.94490734424107
1143,-130.10521807988516
1144,-159.53160094563282
1145,-236.82402543163334
1146,-309.7124616083329
1147,-326.06688012551604
1148,-270.8072522113034
1149,-181.9635496712217
1150,-101.68574488716695
1151,-62.17381081645544
1152,-61.167720990823
1153,-88.93744951540612
1154,-135.12297106775804
1155,-183.49426089682675
1156,-214.74129482194257
1157,-210.12404923178656
1158,-172.18250108337634
1159,-128.8866279010199
1160,-109.73640777528817
1161,-131.3218193619632
1162,-174.75284188097794
1163,-215.08945511538514
1164,-231.06163941027808
1165,-226.14937567172274
1166,-214.17264536569382
1167,-208.5114305169991
1168,-213.05571370818507
1169,-222.96547807845855
1170,-233.05070732258355
1171,-238.89138568979615
1172,-237.6174979826792
1173,-226.52902955607533
1174,-204.8259663159588
1175,-180.65829471830875
1176,-164.76600176799911
1177,-166.56907501765636
1178,-179.84750256652842
1179,-188.17127305933718
1180,-175.1703756851348
1181,-137.39480017615824
1182,-88.99453680665283
1183,-45.419576391734154
1184,-18.77991028620636
1185,-11.215530383378791
1186,-23.046429113919658
1187,-53.02259944463367
1188,-89.16403487730895
1189,-115.05072944749554
1190,-115.15267772333209
1191,-91.14987480431046
1192,-59.6323163201032
1193,-37.58999842932644
1194,-32.98291781833177
1195,-37.78107169996292
1196,-42.304457812357214
1197,-40.003074417691096
1198,-35.94692030093938
1199,-37.975994768654346
1200,-51.91029764768973
1201,-66.86982928396174
1202,-63.534590541186844
1203,-23.784582799622513
1204,41.75019204520686
1205,93.7597315837811
1206,91.91403289386471
1207,23.71309254177868
1208,-68.74309341629487
1209,-136.9745294330387
1210,-145.86122046867786
1211,-114.43317198970908
1212,-75.45038996756557
1213,-58.042880877319476
1214,-59.55065169637055
1215,-60.90370990310839
1216,-43.71206347559928
1217,-8.535720890253288
1218,25.27530887951798
1219,37.681016364627794
1220,21.26139160167986
1221,-7.893575865709863
1222,-31.083896985528554
1223,-34.55958319603451
1224,-22.88064642437348
1225,-4.807099085232039
1226,11.181045920566248
1227,18.92377520739865
1228,13.331074906265712
1229,-10.047069333857507
1230,-44.2606723446097
1231,-72.68974943685316
1232,-78.58431639927039
1233,-55.93438949697338
1234,-15.27998547007519
1235,31.418878467713512
1236,74.5321846304978
1237,111.0499148616309
1238,139.15205053513455
1239,156.63857255713629
1240,159.40946136729144
1241,142.69469694025247
1242,103.10425878707429
1243,52.79812595669864
1244,13.656277037387554
1245,7.10869015818389
1246,36.62534299038089
1247,86.02621274898047
1248,138.11127619417675
1249,179.30050963281246
1250,202.91388891987117
1251,203.02138945996558
1252,179.21298620881316
1253,149.93865367473518
1254,137.79836592016
1255,161.05209656311308
1256,210.32981877872226
1257,265.3015053007439
1258,306.27712842305846
1259,321.1466600011954
1260,303.06007145385774
1261,245.88733376444907
1262,163.05841748260173
1263,90.19329272571122
1264,63.99192918047811
1265,99.5942961044475
1266,171.21036232756887
1267,248.46009625372608
1268,306.3334658623153
1269,337.36043870979483
1270,337.62098193125166
1271,306.35506224196433
1272,260.60264593897955
1273,223.75369890270122
1274,216.70818659844008
1275,234.50607407803727
1276,257.0273259814203
1277,264.7319065382162
1278,255.099779569342
1279,241.69090848859742
1280,238.5152563042975
1281,250.11278562084044
1282,266.78345864035873
1283,277.6972371643169
1284,276.15408259513424
1285,265.4139559378182
1286,250.19681780159044
1287,234.17262840150397
1288,216.9113475601098
1289,196.95293470908473
1290,173.94734889086067
1291,154.68454876029864
1292,148.7844925863319
1293,164.85713825361745
1294,199.4224432642077
1295,241.46036473920867
1296,280.2808594204489
1297,314.373883672155
1298,350.9393934826312
1299,397.2673444659267
1300,447.8476918635406
1301,478.88039054609726
1302,465.2253950150316
1303,400.922659404303
1304,321.35213748209026
1305,267.3237826524819
1306,265.3875479572034
1307,294.8533860773132
1308,325.26124933492974
1309,331.73108969494024
1310,318.08285876673835
1311,297.3265078059303
1312,281.7619877160887
1313,278.14924905047155
1314,290.62824201376316
1315,322.1289164638165
1316,360.84122191340975
1317,384.61510753197945
1318,372.1005221473861
1319,325.7574142476642
1320,271.6857319827868
1321,236.71542316643354
1322,231.71643527775814
1323,245.1187154631407
1324,263.68221053800517
1325,278.05686698856516
1326,286.64263097361254
1327,288.7494483263181
1328,285.37726455601114
1329,282.3460248499814
1330,286.32567407526767
1331,301.53615678047754
1332,322.1974171975671
1333,340.01939924367616
1334,346.8020465229256
1335,335.0353023282478
1336,297.46910964318886
1337,229.7234111437465
1338,151.63814920020195
1339,95.21326587893782
1340,89.80870294427586
1341,130.43440186033513
1342,188.69030379284413
1343,236.63634961101525
1344,263.9224798893756
1345,276.08863490963085
1346,279.1347546625184
1347,275.1507788496674
1348,261.5566468854686
1349,235.6122978989406
1350,202.7276707355977
1351,180.9427039593229
1352,189.37733585426213
1353,233.7115044266975
1354,292.2451474069185
1355,339.89820225114454
1356,358.7606061433853
1357,350.1922959973672
1358,318.7532084584127
1359,271.11327990534664
1360,221.47244645242426
1361,185.71064395121175
1362,175.68780799253545
1363,184.86387390836717
1364,201.41877677376942
1365,215.3424514088183
1366,227.7248323805179
1367,243.7458540047537
1368,266.58545034822055
1369,283.9935552303523
1370,276.5201022252877
1371,228.4450246637989
1372,162.7882556352488
1373,125.13972798954455
1374,156.97937433910192
1375,240.88712706080332
1376,317.44291829795475
1377,329.4066799622615
1378,276.1283437358088
1379,205.87784107301923
1380,167.06510320264533
1381,170.67006112975469
1382,188.83264563770172
1383,192.47278729013124
1384,172.6604164329674
1385,145.36546319641457
1386,127.92785749695031
1387,127.57752903933579
1388,136.79440731861905
1389,146.9484216221481
1390,153.73950103159586
1391,160.3575744249556
1392,170.66257047858926
1393,185.55441766923104
1394,199.90304427602678
1395,207.89837838256972
1396,208.15034787892546
1397,209.6488804636865
1398,222.83390364599836
1399,249.69534474762077
1400,269.593130904972
1401,258.0871890711787
1402,205.2874460181356
1403,146.03382833857904
1404,123.82626244812309
1405,165.7646745873626
1406,241.33899082390963
1407,307.33913705449413
1408,330.14503900703494
1409,314.09662224271597
1410,273.02381215808236
1411,220.96653398711533
1412,173.19471280333892
1413,145.26827352190048
1414,148.35714090169677
1415,171.99123954744573
1416,198.98049391181667
1417,215.00482829752582
1418,221.33416685946395
1419,224.4984336067937
1420,229.71755240509992
1421,234.3614469784825
1422,232.95004091170995
1423,222.17325765233363
1424,212.65102051283066
1425,220.55325267274384
1426,258.5798771808204
1427,315.71081695716566
1428,370.97599479536984
1429,406.1553333646916
1430,423.5787552121965
1431,434.6261827649196
1432,450.0275383320313
1433,475.06274410699916
1434,512.4617221697736
1435,563.4743944889342
1436,617.3306829239027
1437,657.5205092270971
1438,669.9237950461302
1439,660.3704619259897
1440,644.4504313112393
1441,636.1036245482101
1442,634.6699628872029
1443,632.1693674846847
1444,622.6217594054942
1445,617.0470596250725
1446,635.0251890316467
1447,691.8660684284696
1448,766.2596185360344
1449,818.4757599942895
1450,813.9444133648867
1451,762.5954991333947
1452,696.5589377115411
1453,645.0346494394562
1454,612.0125545879127
1455,589.1625733605633
1456,568.5946258962067
1457,546.6786322710304
1458,521.784512500868
1459,493.23218654346056
1460,467.30157430072904
1461,453.51259562103587
1462,458.39517030145544
1463,466.7592180900501
1464,453.8546586881548
1465,400.67141175265533
1466,327.4893968982724
1467,270.9785336998648
1468,260.1387416946982
1469,274.72994038477555
1470,275.2020492391075
1471,229.06498769603786
1472,145.6486751655466
1473,49.51303103155442
1474,-34.31202534575095
1475,-78.48657462759365
1476,-54.87069749429611
1477,50.25552535705356
1478,179.9120132149328
1479,255.44868535572277
1480,221.57546104603352
1481,126.49225954506983
1482,47.03900010695179
1483,38.33560198307714
1484,69.71198442448622
1485,89.29806668418314
1486,61.55376801954117
1487,8.259007694641696
1488,-36.2762950173601
1489,-50.07222083184388
1490,-49.02885045036601
1491,-56.31626455827427
1492,-81.99454382231124
1493,-100.85376888824976
1494,-81.93402037848136
1495,-15.115378889633575
1496,61.11207500983983
1497,101.50826078204955
1498,86.45309792208718
1499,47.82650596043459
1500,23.418404465373897
1501,26.96871304540946
1502,30.697351351691395
1503,3.2342390804369643
1504,-57.17070402463287
1505,-108.61755816986988
1506,-106.83640350924361
1507,-48.7073201419189
1508,17.369611890202577
1509,41.43431260493344
1510,16.92670208223899
1511,-16.813299533283498
1512,-20.21577202996741
1513,9.47920487340889
1514,42.511551530084034
1515,50.00118836778529
1516,31.74803589120893
1517,8.512014684496535
1518,-0.6769545862753148
1519,-1.0789511706043413
1520,-12.584054231074333
1521,-51.46234284084858
1522,-103.1238959811817
1523,-137.87879253890424
1524,-131.5371113039164
1525,-95.4589309666735
1526,-54.86433011567169
1527,-31.24338723492292
1528,-27.586180701424382
1529,-41.20278878264071
1530,-69.05328963396278
1531,-106.64776129616985
1532,-149.14628169288153
1533,-190.75892862803084
1534,-222.93577978329085
1535,-236.6269127155283
1536,-230.81240485426133
1537,-222.38233349906295
1538,-230.4467758170249
1539,-257.90580884017436
1540,-279.7795094628964
1541,-268.83795443935196
1542,-218.85122038090958
1543,-151.2793837535337
1544,-89.1425208752189
1545,-45.75070791336839
1546,-24.604020882210534
1547,-28.0525356401904
1548,-48.356327887349835
1549,-69.86547316273209
1550,-77.8900468417396
1551,-69.29012413354394
1552,-47.645780078433745
1553,-17.437089545188428
1554,11.235872771549111
1555,25.833032353919407
1556,17.52431486347814
1557,-3.98035385613548
1558,-23.2410477765643
1559,-30.217840682071255
1560,-33.76080616687068
1561,-46.86001763247259
1562,-74.7255482850087
1563,-103.26747113255624
1564,-115.60585898246245
1565,-106.71078443865554
1566,-92.37231989896645
1567,-90.25053755242334
1568,-106.99550937657295
1569,-135.36730713475117
1570,-167.18600237341707
1571,-193.68166641940115
1572,-205.55437037722004
1573,-195.01418512633427
1574,-172.30118131845666
1575,-159.2254293747901
1576,-172.98699948330795
1577,-195.46596159601359
1578,-192.822385426216
1579,-142.09634044575432
1580,-73.2178958822642
1581,-31.997120716416248
1582,-46.34408367915967
1583,-87.46885324895084
1584,-115.44149764898793
1585,-109.52208484443508
1586,-89.40068253963545
1587,-79.51735817534427
1588,-85.22217892592016
1589,-84.7652116965437
1590,-55.62652312041973
1591,-3.0261795559617894
1592,40.99575291599467
1593,45.909208495033454
1594,11.454121663946353
1595,-43.05957280842813
1596,-97.831939864378
1597,-132.36304415449013
1598,-125.81295003481137
1599,-67.99172156401073
1600,5.520577499471983
1601,46.873883700278384
1602,30.398133888982557
1603,-10.226734775040313
1604,-31.800784820754416
1605,-14.614078462587713
1606,21.04332240243457
1607,51.45135619759458
1608,65.51996166933714
1609,66.05907789018784
1610,56.99864426163731
1611,47.4786005170281
1612,50.32888672449553
1613,75.52944328984813
1614,111.41021095949691
1615,136.77113082337564
1616,136.1821443178669
1617,119.20319322874457
1618,102.04421969407849
1619,97.20516620721901
1620,107.80597561971081
1621,135.3565911442638
1622,170.2569563576999
1623,185.91701520393144
1624,156.09671199691184
1625,93.8259914236096
1626,49.494798547002574
1627,69.21307880905078
1628,139.80077803368476
1629,213.5678424298021
1630,249.8742185942665
1631,249.53985351491428
1632,227.64469457356972
1633,197.99868954905105
1634,170.41178662019593
1635,153.88393436888146
1636,151.47508178307726
1637,155.66517825985648
1638,158.28417360845924
1639,164.26201805332312
1640,192.40866223715602
1641,258.6840572239853
1642,339.108154502208
1643,384.5509059877004
1644,358.8322640268525
1645,303.16218139966804
1646,286.4606113228656
1647,349.1275074529349
1648,442.562823889275
1649,501.2865151772694
1650,497.4385363114088
1651,468.24884273840144
1652,455.8973903603037
1653,466.82413553763035
1654,472.1590350924962
1655,444.7720463117603
1656,389.8231269501648
1657,330.5522352334683
1658,286.38932986163127
1659,256.80437001195605
1660,235.2673153422602
1661,220.0481259940516
1662,221.606762595693
1663,251.94318626561835
1664,305.3573586154871
1665,351.7392417534029
1666,360.8887982871056
1667,329.0259913271984
1668,272.5207844903198
1669,208.8431419024164
1670,159.0330282019404
1671,145.59040854307568
1672,177.7052485989916
1673,219.9975145650842
1674,228.10717316222326
1675,184.77419164001003
1676,119.44853778003744
1677,65.34017989916902
1678,37.84908685280061
1679,35.98522803814558
1680,56.1585733975262
1681,79.04909342166866
1682,77.58675915299682
1683,34.90154218893986
1684,-26.376585314757904
1685,-74.12465064070966
1686,-88.96268050656727
1687,-75.8717010616947
1688,-43.038737883813155
1689,-8.641815975684949
1690,-0.7879597617375111
1691,-42.556193084712504
1692,-109.77153920232558
1693,-154.17402078384657
1694,-143.81065990678508
1695,-111.56747805346095
1696,-105.98449610763237
1697,-144.16873435110392
1698,-184.16721246032284
1699,-179.5699495029512
1700,-128.48896393448558
1701,-71.23227359480734
1702,-45.53489570476631
1703,-55.36584686273454
1704,-88.7761430411756
1705,-131.08579958320297
1706,-158.5288311990971
1707,-145.6362519628692
1708,-89.78807530878657
1709,-25.875314027885906
1710,9.306019735491645
1711,5.219914487212009
1712,-27.439640613183656
1713,-76.33365574894924
1714,-122.805140442646
1715,-145.75910355260748
1716,-136.10255326942752
1717,-117.6594971124232
1718,-119.13694192610637
1719,-140.93089387662985
1720,-147.16735844823597
1721,-104.65134043970829
1722,-35.62184396078919
1723,3.6441275713714276
1724,-25.573428564179267
1725,-82.24151438863191
1726,-103.66013121980905
1727,-64.74627966857042
1728,-12.803959635199135
1729,-0.9171703057800187
1730,-34.24891014858986
1731,-74.99817691046701
1732,-88.8069676131654
1733,-74.82927854970512
1734,-45.90510528074083
1735,-17.176442630885504
1736,-9.928284685036488
1737,-45.5416247847279
1738,-111.73745552443324
1739,-154.99476874786524
1740,-126.5325555442978
1741,-48.04080624485323
1742,19.527489581201735
1743,31.423343130187277
1744,5.3287663677292585
1745,-26.718227967508938
1746,-48.96362636007507
1747,-71.33441451398903
1748,-104.40657734897832
1749,-137.42409899671657
1750,-144.60396279704946
1751,-108.18615129421778
1752,-50.12864623307178
1753,-4.031428555255843
1754,12.39852160456212
1755,11.951224922535403
1756,9.884702889434266
1757,4.900977814477301
1758,-18.096927170818162
1759,-69.38998810881276
1760,-129.8111802118874
1761,-169.94947785857585
1762,-171.90885458971388
1763,-143.03928310455558
1764,-94.54773525687779
1765,-47.94618205111328
1766,-34.27759363844416
1767,-76.33993931288205
1768,-143.32418750736178
1769,-183.95830578983077
1770,-171.6222608592816
1771,-137.4530185418571
1772,-119.39854378687414
1773,-123.36380066286074
1774,-124.38675235362098
1775,-102.55836115422971
1776,-78.38058846707827
1777,-88.12339479786897
1778,-142.2227397516126
1779,-190.55258202864024
1780,-176.9888794205781
1781,-102.82258880630616
1782,-23.647666147970085
1783,10.450933513109703
1784,-3.648743939553242
1785,-51.42465169352727
1786,-111.07974200341232
1787,-145.02296618675427
1788,-116.2022746199691
1789,-37.07661673424445
1790,36.68405898855963
1791,57.81480502001614
1792,32.76467478925042
1793,-13.989277312924969
1794,-59.083995929880984
1795,-81.38142473502194
1796,-61.75150642764129
1797,-7.411182728745189
1798,54.47060562310071
1799,97.7029188759825
1800,103.00281826878745
