800,65.16155246036033
801,49.98871599793165
802,66.02454160088746
803,108.50926206884287
804,160.64310964844663
805,205.47631603215268
806,229.47911235699394
807,230.86172920335594
808,210.384396593794
809,169.04734399179142
810,115.44080030061377
811,67.74499386208481
812,44.74015245544979
813,61.426503296175724
814,103.40427303482647
815,142.43368775588715
816,150.28497297663853
817,113.72835364603452
818,57.63405414355293
819,12.792298278111048
820,8.533309286942313
821,45.05730983450485
822,95.76452201139182
823,133.04516733325727
824,135.27946673974293
825,111.92764059340516
826,82.60990867866894
827,66.75649020079254
828,71.88760378480765
829,84.95346747450822
830,90.88429873142559
831,76.28031443380132
832,46.38173087561336
833,17.898763765553667
834,7.731628226052635
835,25.570538792298976
836,57.93570941127109
837,86.65735344075983
838,94.18568364844214
839,78.78091221091563
840,56.023250712758454
841,42.332910145612914
842,51.000100907262095
843,76.41503280069992
844,105.89791503325978
845,126.84895621567557
846,132.8883643612371
847,129.25634688486934
848,122.45311060229687
849,118.53886172915372
850,118.82380588013802
851,121.51814806816401
852,124.83209270351836
853,128.2358435930346
854,135.27960393926514
855,150.33357633966807
856,177.357962785798
857,211.25296466250256
858,237.5687827471429
859,241.4556172088014
860,212.9336676074945
861,167.7331328934415
862,130.07421140625956
863,123.88710087423897
864,154.3919984136046
865,197.2791005277595
866,225.61860310656084
867,216.14070142561468
868,177.56559014555023
869,135.17346331132103
870,114.33451435150164
871,127.60893607760772
872,156.86692068341108
873,179.4786597442544
874,174.474344216409
875,146.05416443640388
876,117.56831012036491
877,112.87697036339523
878,146.26033363892384
879,197.7785877980823
880,239.77192006909354
881,245.55051705664118
882,214.0245647412903
883,171.6142484788761
884,146.10975299990787
885,158.601262409009
886,195.15896018432431
887,230.49302917696514
888,239.65365161044247
889,217.10100908013555
890,185.79528255271362
891,170.9366523656372
892,193.33529822659875
893,241.09139921303722
894,287.6551337715846
895,306.52667971758456
896,286.9762142345935
897,248.96391387388576
898,215.95995455397133
899,209.1845115601045
900,226.70775954384771
901,253.00987252258165
902,272.3810238790629
903,275.20138636098454
904,267.0211320805138
905,255.75043251388888
906,249.14945850098047
907,252.96838024486533
908,271.4473673114335
909,308.7965886289876
910,364.206212487823
911,420.996406539869
912,459.38733779828544
913,460.6591726371098
914,426.0520767908747
915,374.59621535425504
916,325.9517527817188
917,294.688852887175
918,275.9276788436455
919,260.07839318292827
920,238.04115779528365
921,211.77613392909916
922,194.79348219060012
923,201.11336254354137
924,239.66593430891407
925,296.41135616464817
926,350.88978614535336
927,383.0213816420219
928,385.58629940177343
929,366.42469552760485
930,334.20672547811955
931,297.10254406729837
932,260.46230546424704
933,228.7861631929827
934,206.48427013219225
935,195.8967785150253
936,196.61383992888113
937,208.05560531520314
938,228.67222496929026
939,251.3538485400968
940,267.1006250300579
941,267.07270279490876
942,249.1602295435241
943,220.39335233774364
944,188.45221759222113
945,160.18697107429398
946,137.6077579038083
947,120.98472255301385
948,110.59800884642391
949,106.12775996068922
950,106.48411842449786
951,110.52722611846002
952,117.11722427500172
953,125.19425347827746
954,133.72845366408728
955,141.6599641197845
956,146.76892348421825
957,145.2554697476462
958,133.18974025169518
959,107.98187168929326
960,74.61200010462017
961,40.74026089308609
962,13.926788801278235
963,-3.628282073059381
964,-16.82481828104028
965,-31.022687022663376
966,-50.00175614679938
967,-68.9318941512156
968,-80.07297018255304
969,-75.91485403632032
970,-55.91741615686624
971,-28.170527637375926
972,-1.3140602198072884
973,17.52211370511577
974,28.58812109797509
975,34.33408827069434
976,37.130140886596564
977,36.316403960478056
978,27.84300185867687
979,7.490058299144948
980,-26.332303648467132
981,-63.993961562713594
982,-92.90479367026273
983,-100.99467884579099
984,-87.9934966118708
985,-65.30112713886592
986,-44.76745124479021
987,-35.72235039520456
988,-38.30570670304951
989,-50.587402928535084
990,-70.47732247897875
991,-93.39534940864178
992,-112.62136841859137
993,-121.37526485651506
994,-115.73692471655704
995,-100.21623463913784
996,-80.85308191077092
997,-63.437354463860174
998,-50.258940876517954
999,-41.197730372350634
1000,-36.07361282024431
1001,-34.09647873416725
1002,-33.056219272924864
1003,-30.542726239946205
1004,-24.155892083033905
1005,-12.235609894150912
1006,1.5482265908685804
1007,11.385722992530646
1008,11.506984287969317
1009,-0.1278851887982455
1010,-20.238781746596942
1011,-45.14560233682096
1012,-70.67824455314076
1013,-90.16660663122639
1014,-96.05058744843518
1015,-81.12008652351506
1016,-48.75500401631143
1017,-14.715240727424316
1018,4.469301902088773
1019,-2.581278208957883
1020,-25.72688378152816
1021,-49.117418176048886
1022,-57.58278539205094
1023,-50.49289006782237
1024,-40.59763748005389
1025,-41.17693354347648
1026,-60.080684810485764
1027,-88.09879847078446
1028,-112.64118235098067
1029,-121.8577449142249
1030,-113.2983952597915
1031,-91.12304312270862
1032,-59.64159887333699
1033,-23.72397351696418
1034,10.549921306610486
1035,36.88017332349591
1036,49.936869626137195
1037,52.580096673744265
1038,51.799940292745305
1039,54.536485677208475
1040,63.02981738931885
1041,71.95001935980872
1042,75.31717488843424
1043,68.14136664444777
1044,51.172676667054475
1045,27.141186365905014
1046,-1.0830234784189088
1047,-26.899872713929653
1048,-39.59928181671057
1049,-28.27117189043929
1050,12.72453533413318
1051,70.29791749969263
1052,127.23905162288247
1053,167.178014094834
1054,185.2248806816806
1055,184.8697265251103
1056,169.74262614290092
1057,144.81365342947174
1058,117.80288165642924
1059,96.85038347313275
1060,88.65623090725785
1061,89.3004953653599
1062,90.06324763346129
1063,82.36455787762316
1064,66.20449564453884
1065,53.08312986211604
1066,55.330528840089755
1067,80.7867602706101
1068,118.40189122886295
1069,152.11598817368395
1070,166.8291169481654
1071,163.06134278030368
1072,153.91273028360956
1073,152.8433434577546
1074,165.81324568921627
1075,181.21249975191859
1076,184.95116780788703
1077,165.8493114079065
1078,135.05699149219254
1079,114.01426839105079
1080,123.67120182555846
1081,164.38785090823694
1082,209.75427414375008
1083,231.600529429581
1084,211.04667405673354
1085,165.0827647104452
1086,119.31885747088018
1087,97.6450078138405
1088,101.30127061150233
1089,115.51770013311398
1090,125.22435004575163
1091,122.30127341502703
1092,111.9785227058419
1093,101.05614978313315
1094,94.90420591262227
1095,90.86274176155894
1096,83.32180739949945
1097,66.92145229905327
1098,40.98172533667457
1099,9.502674793420738
1100,-23.305651644252066
1101,-53.113206883717794
1102,-75.17994442536656
1103,-84.69581836182624
1104,-78.2007833771604
1105,-62.90479474604217
1106,-51.167808332955246
1107,-55.109780591377785
1108,-75.24066856294849
1109,-97.5404298766498
1110,-107.00902274796317
1111,-95.02640597803111
1112,-74.40253895283604
1113,-62.5373816423089
1114,-74.89089459950992
1115,-106.69303895975281
1116,-141.36377643975538
1117,-162.2830693367414
1118,-161.75088052759384
1119,-145.18717346796439
1120,-119.07191219138622
1121,-90.35506130838257
1122,-67.80658600558672
1123,-60.606452044807156
1124,-76.54462576216974
1125,-106.4610740671651
1126,-130.1257644417583
1127,-127.37866493945694
1128,-95.61974418438695
1129,-60.168971370370855
1130,-48.906316259979576
1131,-80.14174918359822
1132,-132.43524103848176
1133,-174.03676328779693
1134,-176.296287959678
1135,-148.6337876462585
1136,-125.81923550270403
1137,-142.65260524624682
1138,-205.87387115521415
1139,-277.97300806802923
1140,-317.5199913822489
1141,-296.60479705356374
1142,-241.32740159479363
1143,-191.2277820749041
1144,-182.19591611798387
1145,-209.46178190225692
1146,-242.97535815904666
1147,-252.7066241717621
1148,-229.10555977488184
1149,-192.02214535291023
1150,-163.60636183936185
1151,-158.6681907156999
1152,-166.8076140103076
1153,-172.09461429742805
1154,-160.719174696138
1155,-137.63127886924303
1156,-117.8309110222508
1157,-115.94805590229589
1158,-131.61269879704741
1159,-146.46482553366332
1160,-141.09442247767583
1161,-107.06147653191874
1162,-66.02597513544788
1163,-44.80790626241287
1164,-65.0772584209808
1165,-113.32402065222595
1166,-161.43818252900383
1167,-182.4997341548551
1168,-174.63866616286396
1169,-159.11496971455017
1170,-157.95863649873172
1171,-178.73965873038833
1172,-199.88802914952066
1173,-196.3737410200065
1174,-152.23678812846447
1175,-94.18716478307215
1176,-61.40486581243749
1177,-88.77988656441266
1178,-160.43222290494123
1179,-227.33187121687297
1180,-240.72882839880185
1181,-191.31309186386534
1182,-123.87465953857645
1183,-87.09352986161502
1184,-109.04970178264921
1185,-156.68317476111588
1186,-185.65394876503524
1187,-159.61202426978525
1188,-96.74740225689129
1189,-38.04008421281287
1190,-22.56007212771874
1191,-53.437368494247494
1192,-102.50197630629009
1193,-140.7138990577423
1194,-151.78314074125956
1195,-141.95970584703173
1196,-119.81359936150511
1197,-93.09482676613698
1198,-66.48339403614591
1199,-43.95930763922661
1200,-29.072574534304295
1201,-21.873202170232616
1202,-20.62119848454313
1203,-23.526571902144497
1204,-28.339331334040253
1205,-32.289486176037826
1206,-32.60704630745386
1207,-29.36202208980285
1208,-28.10442436550693
1209,-35.05426445657213
1210,-53.81155416328329
1211,-77.25630576288131
1212,-95.56853200824116
1213,-99.85824612653414
1214,-89.31546181791782
1215,-67.32019325417241
1216,-37.45245507738582
1217,-6.392262398583625
1218,16.030369203603186
1219,19.95542368430324
1220,2.422884533762044
1221,-26.567265221303387
1222,-55.58504301632456
1223,-75.58046674751313
1224,-86.36355477049437
1225,-89.78432589890326
1226,-87.63279940302527
1227,-81.42899500838757
1228,-72.57293289436893
1229,-62.184633692813804
1230,-47.24411848661475
1231,-21.141408808298365
1232,22.64347336136234
1233,79.6805055947807
1234,128.7096650189742
1235,147.04092831699563
1236,125.33427172933625
1237,92.41967105539698
1238,83.95710165490163
1239,126.46653844934008
1240,195.97795592342482
1241,251.15132812653974
1242,254.46662867417763
1243,211.18383074942903
1244,153.3929071044222
1245,112.85383006180928
1246,98.83657151621992
1247,95.9911029357445
1248,87.75739536342735
1249,68.6054194187418
1250,54.1251452990673
1251,62.306542781216194
1252,102.85958122289048
1253,156.8942295642173
1254,199.3004563292434
1255,210.06822962744081
1256,201.71751715522805
1257,199.6182861974885
1258,226.7005036290957
1259,274.73413591643293
1260,314.2591491189378
1261,316.34550889062484
1262,279.1931804816395
1263,231.93212873979246
1264,205.2623181121071
1265,213.0537126463896
1266,237.23627599276006
1267,256.1599714052354
1268,255.93476174328862
1269,248.02060947341306
1270,249.01747667069685
1271,270.8553250204204
1272,298.8041158196047
1273,308.69380997862936
1274,280.0043680227991
1275,229.92575009396205
1276,197.85791595208866
1277,221.30082497688454
1278,292.2844361693933
1279,359.8987081536161
1280,372.21359917811606
1281,314.8490671176478
1282,229.71506947477792
1283,163.27156338150417
1284,144.98850560090432
1285,163.4658525287632
1286,201.29356019520856
1287,241.60158426636553
1288,269.59988004599654
1289,270.99840247716384
1290,236.36710614387084
1291,187.7759452727405
1292,159.89487373467273
1293,183.81384504650123
1294,249.66281237269868
1295,321.961728527016
1296,366.11054597419025
1297,375.189216831619
1298,368.627692871054
1299,366.65592552029193
1300,377.7738658648723
1301,393.69146464977894
1302,404.848672281154
1303,405.0754388279929
1304,395.49171402386673
1305,378.15744726864614
1306,356.66258763020414
1307,339.50708384617064
1308,336.22088432563214
1309,352.34393715088845
1310,372.7761900791811
1311,375.80759054443115
1312,343.7380856589989
1313,290.74762221542187
1314,246.34614668817812
1315,237.86360523543226
1316,263.2899437008127
1317,300.07510761516824
1318,325.91904219833486
1319,333.91169236092173
1320,332.45300270609005
1321,330.51291753131045
1322,331.81138083018413
1323,332.7083362942103
1324,329.00372731458447
1325,318.3774969840051
1326,302.21958809846547
1327,282.3499431590608
1328,262.02850437380766
1329,248.6052136594535
1330,250.12001264328865
1331,271.66284266497314
1332,306.11364477836105
1333,343.2523597533418
1334,373.7189280776565
1335,393.21328995874137
1336,399.2353853255827
1337,390.96515383054066
1338,381.44253485121953
1339,390.70746749230784
1340,436.56989058743784
1341,508.2897427010648
1342,575.7769621302959
1343,609.6614869068017
1344,602.8932547986515
1345,568.5922033122279
1346,520.42826969407
1347,465.99139093279337
1348,405.63150376095473
1349,339.3385446569537
1350,273.90244984693163
1351,226.62315530667183
1352,215.6605967634987
1353,245.24470969819777
1354,291.0354293469154
1355,325.2426907030822
1356,329.20642851933553
1357,308.8765773094383
1358,274.25307135021103
1359,234.49584468346438
1360,195.60483111793292
1361,162.8999642312101
1362,141.02117737170374
1363,131.45840366058292
1364,134.7815759937148
1365,150.65062704362572
1366,173.23548926148214
1367,194.70609487902584
1368,208.02237591054836
1369,212.44426415487033
1370,210.19169119731123
1371,203.7345884116712
1372,197.70288696220086
1373,197.97651780561137
1374,209.81541169303637
1375,229.46949917204984
1376,246.77871058866367
1377,251.81297608930436
1378,241.11222562284638
1379,216.84638894260934
1380,181.5953956083722
1381,142.69917498839277
1382,112.52765626143264
1383,103.42076841877497
1384,118.57844026625025
1385,149.8806004262933
1386,188.4971773399393
1387,224.2180992689082
1388,244.8732942976094
1389,238.28269033522338
1390,205.2862151177378
1391,169.03379620999112
1392,154.7653610077632
1393,173.8708367398158
1394,209.97015046995875
1395,243.35322909913884
1396,259.1499993674952
1397,253.75038785645847
1398,225.14432099081205
1399,177.49172504079615
1400,131.5125261241883
1401,110.68665020840126
1402,127.17402311258411
1403,158.14457050971578
1404,174.04821792871735
1405,156.51489075656355
1406,126.46451424038969
1407,113.48701348961004
1408,137.57231347803827
1409,180.57033904603122
1410,214.8210149025781
1411,220.78426562747336
1412,215.0400156734322
1413,224.20818936822798
1414,266.3887109168445
1415,317.521504403634
1416,340.5664937944366
1417,307.893602938766
1418,243.2627555719664
1419,187.7838753173528
1420,175.69688568840684
1421,200.26171009091922
1422,239.74827182518857
1423,275.01649408818776
1424,304.16629997574273
1425,332.0276124847278
1426,362.78035451525284
1427,395.68444887285114
1428,427.9598182706832
1429,457.1263853317341
1430,483.0140725910205
1431,506.4828024977978
1432,528.4224974177723
1433,550.0530796353232
1434,572.7344713557159
1435,597.246594707327
1436,619.6693717438757
1437,633.8127244466523
1438,635.0765747267596
1439,631.9308444273393
1440,639.295455325826
1441,669.2803291361943
1442,710.1653875112042
1443,738.3905520446515
1444,733.655744273643
1445,704.1508856808396
1446,672.4058976967353
1447,658.6007017019128
1448,662.1552190293369
1449,672.039370966615
1450,677.8630787582788
1451,675.2762636080879
1452,662.9088466812937
1453,640.0807491069427
1454,611.3418919801788
1455,583.8321963645358
1456,563.6015832942448
1457,547.7899737765347
1458,529.3272887939474
1459,502.9034493066665
1460,476.98837625481974
1461,466.42199056080244
1462,481.91421313160936
1463,504.254964861173
1464,501.07416663267395
1465,446.3617393209115
1466,358.07760379462525
1467,272.4816809188269
1468,220.7238915571943
1469,200.7341565743809
1470,197.43239683838874
1471,196.7885332229398
1472,190.97248660982405
1473,174.47417789127758
1474,144.12352797236053
1475,109.57045777331041
1476,84.76488823194995
1477,80.39674030605602
1478,91.07593497574635
1479,106.5123932458755
1480,117.4260361484321
1481,119.15678474493507
1482,108.31456012883064
1483,85.23928342791078
1484,64.96087580671883
1485,66.16925846895538
1486,98.58435265991284
1487,140.58607966888485
1488,163.6943608315978
1489,149.5791175326358
1490,111.19027120788087
1491,67.48774334693917
1492,33.65145549560657
1493,14.711329258276237
1494,14.017286300419073
1495,31.01924835102909
1496,56.117137205063045
1497,78.44087472592582
1498,87.84038284791677
1499,75.62558357870694
1500,33.486399001803875
1501,-32.13724872097191
1502,-89.37543734699466
1503,-104.26824455036694
1504,-68.68574791942592
1505,-12.518024954255452
1506,31.67484693582992
1507,45.68279043474104
1508,29.30572832215512
1509,-15.956416523984444
1510,-73.33372112497636
1511,-110.00626239883786
1512,-94.38411715777511
1513,-33.29736210567171
1514,32.503926164432414
1515,63.4696711728775
1516,53.34979655591815
1517,20.34422606825865
1518,-16.94711641441063
1519,-42.18430689285742
1520,-40.35742124177341
1521,-0.4965352072049427
1522,55.36827559598714
1523,89.06693568670744
1524,70.08936972016272
1525,16.935502490463477
1526,-32.73474106683716
1527,-48.71143587213737
1528,-37.454656699232146
1529,-16.704478172714516
1530,0.009025234614455258
1531,14.885779204321807
1532,33.86570957494769
1533,60.67874234461124
1534,92.63480367360535
1535,125.88381988699257
1536,155.4357174772449
1537,173.78042310683668
1538,173.12786361086182
1539,152.76796599966838
1540,124.12065746148437
1541,99.52586536503986
1542,79.98351726220608
1543,51.5235408906301
1544,0.10586417638842249
1545,-64.86958476338259
1546,-110.26287761783351
1547,-104.75408587972925
1548,-61.223280842817985
1549,-26.730533599149567
1550,-43.265915036423394
1551,-92.359495835306
1552,-120.38134646677099
1553,-83.79153718941234
1554,-13.400138046756183
1555,28.0627811353952
1556,-7.472849248306375
1557,-94.51709858008508
1558,-184.81003601634984
1559,-239.03173048497956
1560,-249.4622506826272
1561,-215.2616650719956
1562,-145.55004187914165
1563,-73.9374490907503
1564,-37.55395445141585
1565,-50.9896254609248
1566,-89.01452937150498
1567,-122.75873318511367
1568,-138.6223036506908
1569,-142.32530726142795
1570,-140.9078102520125
1571,-142.7598785958744
1572,-157.44157800245557
1573,-192.27297391442517
1574,-227.83513150494582
1575,-227.53011567488647
1576,-163.22599105006702
1577,-71.19682197847942
1578,-16.427672527517643
1579,-46.43860648118425
1580,-123.99968733731475
1581,-186.40797830479096
1582,-191.52054230074646
1583,-162.48444194775766
1584,-135.26673957106323
1585,-132.24949719574033
1586,-147.07277654391146
1587,-169.7666390319191
1588,-190.87614576751548
1589,-201.69135754704257
1590,-194.04433485259142
1591,-170.5851378492007
1592,-144.3858263819984
1593,-128.2954599733821
1594,-127.40709782016347
1595,-141.79979879072744
1596,-169.2346214221925
1597,-191.99062391753796
1598,-185.75986414277213
1599,-136.11839962404338
1600,-71.21728754479045
1601,-30.63558474286765
1602,-36.71534770767903
1603,-65.68663257728076
1604,-86.36149513552664
1605,-87.15599080915308
1606,-89.73117466491567
1607,-117.88910140666485
1608,-164.8108253724804
1609,-190.12240053174537
1610,-155.85588048224054
1611,-78.81331844724991
1612,-14.415767272630546
1613,-10.175279423892789
1614,-49.76890698328498
1615,-88.62470164687147
1616,-90.97171472157606
1617,-59.22599712227566
1618,-5.978599368841969
1619,53.91142841679539
1620,99.90603651360834
1621,110.84817560439478
1622,82.91779677876912
1623,38.96485153610229
1624,3.453291788495335
1625,-13.74893013626206
1626,-16.673861491704884
1627,-9.698549109720261
1628,4.947960602430612
1629,26.269621665096565
1630,53.00338852923596
1631,82.2532160794035
1632,110.57505963675248
1633,133.5038749620362
1634,143.49961825860737
1635,132.49224617544678
1636,102.98171581016504
1637,76.33098471201629
1638,75.1590108849432
1639,103.15075279058692
1640,143.81716935132863
1641,180.68021995331583
1642,208.61986444951617
1643,229.6560631627599
1644,246.00877688877517
1645,260.4079668992599
1646,275.7835949449345
1647,293.03562325859093
1648,306.7740145581847
1649,310.448732049872
1650,304.2997394311187
1651,300.2070008937626
1652,310.7504811270919
1653,337.09014532094625
1654,369.07595916879836
1655,396.56788887086077
1656,414.05590113717335
1657,418.6399631907261
1658,408.18004277054933
1659,384.05610813484236
1660,348.71812806408525
1661,309.5960718641654
1662,286.67990936949536
1663,301.3796109461582
1664,348.33514749502865
1665,385.2264904549229
1666,370.11361180574204
1667,307.77648407162087
1668,238.80508032406215
1669,199.6833741851351
1670,193.01633983060492
1671,207.44695199309535
1672,229.55018596529044
1673,239.21001760307627
1674,215.12442332874525
1675,155.7913801341656
1676,93.77986558396879
1677,63.492857818762786
1678,67.50533555830225
1679,79.02227810470868
1680,73.4216653456624
1681,53.174477757631394
1682,33.95169640907443
1683,28.41330296365595
1684,37.19327968348625
1685,57.96060943233351
1686,82.5922756788641
1687,91.91826249988662
1688,66.64555458358518
1689,13.602137232757741
1690,-34.50500363190804
1691,-47.4208814686026
1692,-25.899509111117368
1693,13.501101234400267
1694,52.205937992735926
1695,64.37699022286688
1696,22.62624762125779
1697,-70.45729947488508
1698,-156.00066008428985
1699,-171.76184257835848
1700,-116.88685467785217
1701,-48.707703449605106
1702,-19.82739530320032
1703,-27.058935987673976
1704,-40.88933058819566
1705,-39.60558352274893
1706,-29.343698538812532
1707,-22.263678710014574
1708,-26.130526432829356
1709,-41.48924342320606
1710,-67.94783071324855
1711,-100.73128864787213
1712,-131.52461688142466
1713,-152.50581437435721
1714,-159.68387938985325
1715,-150.54080949045783
1716,-128.30360153472247
1717,-111.9002516738019
1718,-122.28875534811596
1719,-155.33010728392583
1720,-174.73630148996017
1721,-146.76233125403633
1722,-88.8211891396295
1723,-49.729866982501335
1724,-64.33835588727743
1725,-103.7506462240217
1726,-121.73072762485572
1727,-99.72558898049647
1728,-72.42621843684901
1729,-78.63060339158073
1730,-119.17173049066878
1731,-160.83558562497274
1732,-172.92415392678413
1733,-149.8544197663723
1734,-96.30436674852535
1735,-24.99197770911269
1736,29.429765288414274
1737,29.647880956466906
1738,-22.05261121320109
1739,-74.88669094600846
1740,-80.82333718106565
1741,-47.564528067689025
1742,-13.867240961893913
1743,-8.565452422917588
1744,-22.04613820969098
1745,-35.843273277349
1746,-40.46583177370849
1747,-40.58478703575565
1748,-41.74311158610726
1749,-44.36377712950707
1750,-45.27175454927237
1751,-42.49301390376604
1752,-40.12852442285657
1753,-44.0292545043485
1754,-54.7611717104719
1755,-62.7502427642703
1756,-57.98943354608855
1757,-42.732709089979835
1758,-29.42403358012598
1759,-28.47637034728541
1760,-36.95268186519024
1761,-47.2789297469626
1762,-55.497074741530014
1763,-65.53607673001898
1764,-81.68989472216526
1765,-94.44348685268415
1766,-81.53181037768263
1767,-28.394821671026875
1768,28.670523779277573
1769,33.98627137470248
1770,-30.799532590142917
1771,-96.70484092392144
1772,-85.78560553486204
1773,1.7432225728225603
1774,90.34169330264012
1775,113.10885746944405
1776,78.42276680311261
1777,24.131473952218585
1778,-21.358967512314848
1779,-52.019503093517415
1780,-65.1660773646945
1781,-61.64763396574017
1782,-45.67411559944594
1783,-22.991464027792972
1784,-7.8436200682535855
1785,-17.598523590088007
1786,-51.67811351061937
1787,-70.14732779151382
1788,-30.921103435071927
1789,50.5566235195256
1790,108.62691799992717
1791,90.8518459043753
1792,25.752474105431247
1793,-31.1441295462555
1794,-48.985896218209746
1795,-44.6917560923539
1796,-39.37263836124657
1797,-35.46847122431427
1798,-21.263181884070946
1799,9.26530345766696
1800,35.08405960355776
