800,68.40157430963336
801,49.66629790515799
802,68.56683636500566
803,116.38035086299533
804,167.77800247049709
805,197.221952156131
806,187.3933607854815
807,149.37038912073695
808,100.36019782040785
809,57.345947438981966
810,29.488798426576977
811,16.162911128609267
812,16.135445785424963
813,28.012562531952426
814,49.29442139732055
815,76.94118230449021
816,107.9140050698661
817,138.16004940290077
818,161.05447490570077
819,169.57544107262584
820,157.22910728985335
821,128.02863283497572
822,95.6661768765698
823,74.19789847374705
824,74.45995657572166
825,90.57051002136541
826,111.18771753872534
827,125.03973774458609
828,125.7167291439855
829,115.16785012973196
830,96.17225898192191
831,71.85211386745505
832,49.21357283951329
833,37.66079383708529
834,46.622934684421125
835,79.435153090526
836,119.75860664864194
837,147.3084528356958
838,142.51984901177457
839,104.96895241956736
840,55.123920183814334
841,14.497909310755858
842,0.947076687545632
843,10.285579081702963
844,30.11157314050797
845,48.073215390440964
846,58.218662236560704
847,66.49406996193466
848,80.13859472702097
849,105.40739256904635
850,137.3206194014183
851,163.72243101306594
852,172.3519830678415
853,156.85643110386445
854,129.52493053289254
855,106.31263663966638
856,102.52270458125713
857,117.85628938641457
858,136.07354595488687
859,140.21262905677213
860,117.96269333181772
861,81.63089328874958
862,51.643383304592135
863,48.20531762395149
864,77.62785035834531
865,124.24613548546586
866,170.4513268485025
867,200.10557815539687
868,209.89904297813882
869,203.1528747520333
870,183.25422677497045
871,155.47425220668447
872,129.62010406801346
873,116.1619352401467
874,124.6928984638871
875,151.84814633886344
876,184.37183132279824
877,208.76110573071492
878,215.70312173417733
879,210.94703136050703
880,203.62398649199895
881,202.6111388651243
882,210.1466400697609
883,221.34164154836435
884,230.94529459518344
885,234.4937503554538
886,231.62415982456514
887,223.30567384726783
888,210.57144311682714
889,197.3336181742252
890,191.7533494072959
891,202.33078704991203
892,235.53408118113475
893,282.83938172437774
894,329.0018384465384
895,358.80860095716343
896,365.21581870758564
897,357.0676409900516
898,345.0332169368612
899,338.79569551950044
900,337.8672255477559
901,335.78495566884885
902,326.0230343665371
903,305.4036099602272
904,279.17583060410107
905,253.89684428619148
906,235.97779882751092
907,229.95184188112034
908,238.9471209312469
909,266.0607832923488
910,310.26797610821995
911,357.52084635104984
912,391.20554082051785
913,395.55320614285847
914,370.6859887699302
915,330.8590349782862
916,290.8214908682203
917,261.3845023628528
918,238.2292152071641
919,213.40577496704645
920,179.54632702836352
921,143.54701659598868
922,127.11898869284232
923,152.66038815893626
924,232.4523596504041
925,333.24604763853495
926,408.9985964087955
927,414.9531500598623
928,346.9068525026396
929,248.18384745927688
930,164.81627846218726
931,133.9622888530521
932,147.635021781849
933,183.55362020582106
934,219.68222688852802
935,243.6399843988056
936,255.41503510979055
937,255.81452119789174
938,246.35258464181243
939,232.50836722150052
940,221.11701051717318
941,218.89365590827038
942,227.18844457245723
943,240.06651748458353
944,251.07501541568126
945,254.59007893191665
946,249.79084839357347
947,237.59046395402038
948,218.90206555866826
949,194.7417929439398
950,166.26478563623095
951,134.64118295088156
952,102.15112399109603
953,77.62074764693716
954,72.2441925942494
955,96.88959729363341
956,147.29109998936656
957,198.3068387083713
958,223.25695125914535
959,201.39857523070714
960,145.86484799153368
961,81.77490668850805
962,33.94888824582995
963,13.856929363977542
964,15.24916651861895
965,30.652735959552956
966,52.44677370963291
967,72.29141556369177
968,81.59579708747151
969,71.98005361653486
970,42.75232025520563
971,2.7277318754640874
972,-38.684576884110356
973,-72.95347161944665
974,-95.82581816204765
975,-104.34048258008988
976,-95.82133117950616
977,-75.53923050506819
978,-57.6900473414953
979,-56.94264871452833
980,-82.55490189203738
981,-120.76767438510797
982,-151.69883394913813
983,-156.2362485849353
984,-132.64578653981698
985,-96.29931630871761
986,-63.300706635271126
987,-45.62582651292905
988,-40.39954518605191
989,-41.39673215101902
990,-42.7192571573396
991,-43.98399020874422
992,-49.44780156429442
993,-63.50156173950381
994,-86.33414150743192
995,-105.70641189979142
996,-107.08524420807589
997,-77.48550998464634
998,-23.869081043862025
999,32.97417053681784
1000,71.99037241572114
1001,80.76865198584528
1002,67.29613637374314
1003,42.505952438423265
1004,17.341226770213325
1005,1.5500856896596815
1006,-3.15134475359082
1007,1.6320612180970784
1008,14.23342910921383
1009,30.051884150014303
1010,40.29655129537787
1011,35.84155522371111
1012,10.731020335815629
1013,-23.716929246227664
1014,-50.3491696801666
1015,-52.49457740469916
1016,-29.244029140600105
1017,1.7915981081750942
1018,21.934427053356558
1019,17.502580121263236
1020,-4.060820548336778
1021,-29.728653103327815
1022,-46.8057959803773
1023,-49.41012790603418
1024,-37.975527897862776
1025,-13.169875265568407
1026,21.92495038792731
1027,56.648069165312336
1028,78.84260087382609
1029,77.5726650240922
1030,57.917380829043395
1031,36.19586720278312
1032,28.93524275947857
1033,44.03562581224105
1034,69.79513437202877
1035,91.79888614651645
1036,97.46199853898543
1037,89.88858864722351
1038,80.13277326240313
1039,79.20666886796971
1040,90.7143916385412
1041,106.41905743879397
1042,117.01978182234961
1043,114.81568003067878
1044,101.04386699198949
1045,80.02145732011195
1046,56.089565313410276
1047,34.021304953665094
1048,19.064789904985446
1049,16.496133512686356
1050,29.390448802207175
1051,53.064848478001295
1052,81.1194449224422
1053,107.17535019472234
1054,125.25267602976055
1055,129.64953383710053
1056,114.70603469982234
1057,82.17028937345458
1058,50.01140828487223
1059,38.34650153120492
1060,63.07967887877021
1061,108.3550497619508
1062,143.87672328214467
1063,139.8688082066601
1064,92.63641296762762
1065,33.57264566093727
1066,-3.444385954851896
1067,5.584425540404482
1068,42.90418722737377
1069,79.74500584615089
1070,88.90998779521215
1071,68.87923913031045
1072,38.936865563438914
1073,18.921972461732366
1074,19.620664846424916
1075,30.67704739176952
1076,38.72222442398197
1077,32.50829992017498
1078,17.068377507312107
1079,4.923560461127636
1080,8.32195170509658
1081,27.07065380935819
1082,44.81876898969131
1083,44.1413991064328
1084,14.938645663462012
1085,-24.78639019286493
1086,-50.26060767474701
1087,-38.84290635398975
1088,3.9458138369718654
1089,52.63765260402397
1090,81.42470929034789
1091,77.12708287538226
1092,50.93487197379909
1093,16.80817483447754
1094,-12.972910660522757
1095,-35.98828699698788
1096,-53.33785702955902
1097,-66.21252398275828
1098,-77.23719145199902
1099,-90.47476340460162
1100,-110.04014418078623
1101,-136.14423849471132
1102,-158.56095143544735
1103,-165.348188467995
1104,-147.05485543427858
1105,-114.3498585541347
1106,-87.64310442632814
1107,-86.92250002951369
1108,-114.56495272324355
1109,-150.72937024894236
1110,-174.17066073089882
1111,-170.417732677226
1112,-148.03149498086532
1113,-120.45985692052818
1114,-100.51872816169453
1115,-94.4500187575577
1116,-104.63363915000446
1117,-133.21950017056406
1118,-172.78751304137222
1119,-201.816589376127
1120,-197.61564118103342
1121,-147.59358085575695
1122,-78.97932119437246
1123,-28.84677538629694
1124,-30.625857017230373
1125,-74.79648007009382
1126,-123.70855892596046
1127,-139.66200836498683
1128,-112.76674356732292
1129,-77.57268011406268
1130,-72.58973398813396
1131,-124.02782157522415
1132,-206.84685966468896
1133,-282.6807654504646
1134,-315.8284565319718
1135,-303.4418509150146
1136,-264.5118670126685
1137,-218.34342364618715
1138,-178.21644004588052
1139,-147.90983585201138
1140,-130.32353111567136
1141,-128.49744629965244
1142,-145.7815022793293
1143,-185.61562034353665
1144,-249.67972219541844
1145,-320.2127299533058
1146,-367.34956615156625
1147,-361.54915374146185
1148,-299.67441609200796
1149,-216.41727699080184
1150,-149.43966064488086
1151,-125.24149168155964
1152,-131.67269514925465
1153,-148.21319651833437
1154,-156.0129216819223
1155,-151.44179695672938
1156,-138.91974908388147
1157,-122.9667052297209
1158,-107.99259298661673
1159,-98.24734037378221
1160,-97.980875838055
1161,-108.67312825471708
1162,-124.16402692826887
1163,-136.98350159322763
1164,-140.80148241490133
1165,-136.90789999018307
1166,-129.74268534831026
1167,-123.74576995164352
1168,-122.38708569642768
1169,-128.27656491355629
1170,-143.93414036932518
1171,-165.8197452661916
1172,-178.18331324350584
1173,-163.774778378267
1174,-112.7240751858626
1175,-49.401138620791244
1176,-8.255904077395826
1177,-20.238307390591217
1178,-75.00828483657642
1179,-135.2857731335498
1180,-163.8707094424244
1181,-148.67303136752344
1182,-112.06267695729002
1183,-78.86958470496393
1184,-67.15369354930044
1185,-74.74494287521338
1186,-95.75327251450472
1187,-124.06862274649029
1188,-152.0509342987043
1189,-171.45014834754147
1190,-174.33620651893762
1191,-159.22905088900188
1192,-130.1886239846699
1193,-91.51486878437572
1194,-49.36772871863832
1195,-13.277147670743943
1196,6.916930022660381
1197,4.984559570913916
1198,-11.61420427124176
1199,-32.15930720430879
1200,-46.25069538460593
1201,-45.83831542490225
1202,-24.082114394979726
1203,25.117960177743953
1204,91.00196030765437
1205,146.04993755034957
1206,162.10194300206786
1207,128.7180272991318
1208,70.21824061735424
1209,14.942632671527463
1210,-15.168747285175414
1211,-24.16585046171167
1212,-22.688628529722337
1213,-20.57703362407301
1214,-20.81101834337096
1215,-22.83053575048325
1216,-25.895539373079373
1217,-26.465983204108852
1218,-18.201821702343295
1219,5.296990207170893
1220,43.42049713256529
1221,82.47874321470954
1222,107.37177212669667
1223,107.71962707338207
1224,90.76235079091202
1225,67.76998554626152
1226,48.9525731367703
1227,36.200154889691476
1228,27.622771661759543
1229,21.510463838731084
1230,19.223271334969468
1231,24.821233593003853
1232,42.314389583110824
1233,70.74277780291231
1234,101.40643627694953
1235,124.98540255628905
1236,135.53971371812804
1237,136.99940636540487
1238,134.98451662641128
1239,133.9550801544192
1240,131.83113212730495
1241,124.2727072471971
1242,107.92983974010167
1243,90.59256335556529
1244,87.01091136632749
1245,111.40491656797349
1246,160.06461127861257
1247,209.5300273385492
1248,235.43119610996473
1249,227.52814847660193
1250,202.68091484346587
1251,180.79952513651915
1252,176.30400880240086
1253,184.51439480812041
1254,196.62071164080226
1255,205.4329873074039
1256,214.00124933443476
1257,229.41552476773177
1258,257.56584017218483
1259,288.9722216314876
1260,303.6946947479155
1261,282.39328464208666
1262,229.8580159527446
1263,178.30891283652636
1264,161.30599896776403
1265,193.05929753829332
1266,250.9688312572216
1267,308.31462235077015
1268,345.376692562093
1269,365.3450631510732
1270,376.06975489418437
1271,383.96078808431776
1272,387.29818253062695
1273,381.51195755838853
1274,362.8821320088464
1275,336.8287242391125
1276,314.1217521219987
1277,305.0312330459419
1278,307.5071839148568
1279,307.87962114805487
1280,292.23856068015084
1281,259.2340179609637
1282,226.266007955428
1283,212.26454514354373
1284,228.1396435202987
1285,265.5313165955995
1286,313.2295773942351
1287,360.20443845583213
1288,396.055911834801
1289,410.5240091003361
1290,395.96874133636993
1291,361.71011914157134
1292,323.86815262933305
1293,297.8528514277841
1294,290.73422467978344
1295,304.3822810429556
1296,340.1570286896931
1297,390.5084753072133
1298,439.42662809757894
1299,470.71149377775146
1300,475.77307857965206
1301,456.96138825022535
1302,417.4564280514951
1303,366.26820276066064
1304,324.8967166701841
1305,316.52197358786543
1306,352.8039768369672
1307,407.3727292563199
1308,445.98823320042356
1309,442.56049053960123
1310,412.9695026601148
1311,386.51527046431147
1312,389.1677943707764
1313,420.1570743144912
1314,465.8731097470027
1315,512.5958996365844
1316,546.0654424684471
1317,551.6217362448951
1318,515.7747784855528
1319,451.57456622756763
1320,398.52109602580276
1321,396.54436395309494
1322,452.37436560046626
1323,525.9610960773643
1324,573.8845500119132
1325,573.724721551187
1326,544.881604361437
1327,511.74519162840625
1328,492.61547605759006
1329,488.6324498745289
1330,497.8961048251058
1331,517.8464321758547
1332,543.2334227142874
1333,568.0970667492002
1334,587.1173541110147
1335,598.6942741521161
1336,602.5278157472167
1337,598.8379672936899
1338,591.8347167119537
1339,587.7480514458457
1340,591.9779584630032
1341,599.5444242552494
1342,598.3674348390123
1343,576.9469757557163
1344,538.1130320722132
1345,497.5955883812039
1346,471.2446288016745
1347,463.32013697934053
1348,464.15209608711484
1349,463.4504888255451
1350,459.2752974233008
1351,462.7965036376554
1352,486.2840887549719
1353,530.4880335911876
1354,572.728318492349
1355,587.4249233350984
1356,561.9678275272181
1357,518.5070100081648
1358,484.9624492495823
1359,480.38412325590434
1360,492.38200956486435
1361,501.7060852480972
1362,493.88632691171006
1363,476.66271069686445
1364,464.16521228037345
1365,468.2838068753208
1366,487.49846923166115
1367,515.3391736368449
1368,544.8358939164664
1369,565.3386034348914
1370,564.5072750959098
1371,531.8618813434114
1372,476.25239416203476
1373,417.7587850778691
1374,375.44102515912164
1375,352.3190850168303
1376,340.0029348055723
1377,330.54254422417034
1378,329.0378825164207
1379,351.808918471841
1380,414.2856204264026
1381,500.49795626328887
1382,561.8458934136561
1383,549.6793988574154
1384,466.338439124007
1385,377.12298029319936
1386,350.2929879958847
1387,402.7784274148853
1388,476.57926328579924
1389,508.25545989779494
1390,474.19698109447927
1391,419.123790274738
1392,394.30585039359175
1393,423.0731239630695
1394,472.8455730530841
1395,504.4031592923184
1396,496.55584386913324
1397,470.1135875324653
1398,451.81635059274413
1399,456.2540929228253
1400,465.2867739589328
1401,455.35435270157905
1402,415.046787716552
1403,370.3940371358731
1404,354.66605865875135
1405,388.41280955260845
1406,447.5242466540367
1407,498.04032636983356
1408,514.131004678
1409,502.21623712876317
1410,476.72597884563584
1411,450.87018452643315
1412,432.248808444343
1413,426.94180444899575
1414,439.5691259675259
1415,467.6307260056674
1416,506.41655714884837
1417,549.166571563288
1418,578.0507209971256
1419,571.4489567815381
1420,515.1312298318753
1421,438.5374906488105
1422,387.1276893194972
1423,397.591775518722
1424,450.09969851009737
1425,502.48140714725014
1426,518.0468498749979
1427,497.765974730577
1428,458.438729344849
1429,417.1250609435301
1430,392.3849163484392
1431,403.43824197872163
1432,464.2549838521336
1433,548.4550875862969
1434,611.0084983999914
1435,613.8251611144206
1436,575.1250201545372
1437,540.0180195503326
1438,548.2341029381823
1439,593.9332135621444
1440,648.8652942753379
1441,686.9902875412663
1442,701.9781354351908
1443,697.3087796454984
1444,677.4521614751029
1445,654.468221842817
1446,644.296901284768
1447,660.3381399558148
1448,694.3518776309647
1449,727.258053706817
1450,741.6166072030173
1451,734.7174767636952
1452,711.1506006589516
1453,675.9559167863226
1454,637.4433626722857
1455,605.5128754737489
1456,588.5943919795573
1457,583.2678486120312
1458,580.493181428481
1459,572.2303261227626
1460,558.509218026833
1461,543.0497921122987
1462,528.941982992008
1463,514.3357249216278
1464,495.2509518012612
1465,468.75759717701294
1466,439.1255942426542
1467,413.6148758412237
1468,397.975374466685
1469,388.2670222655597
1470,376.70975103861565
1471,355.86349224251535
1472,320.24817699151026
1473,265.0737360591411
1474,190.63009987994155
1475,124.36719855115552
1476,102.91496183445088
1477,150.60331915769166
1478,231.50219961665607
1479,291.2115319768109
1480,288.5812446750915
1481,241.30126582167395
1482,183.2915232017731
1483,142.00194427745373
1484,119.31245618943831
1485,110.76298575894361
1486,111.56345948950911
1487,115.80380356887144
1488,117.3239438707933
1489,111.30380595695533
1490,97.15331507884366
1491,75.04239617963867
1492,48.39097389611379
1493,29.11897256056909
1494,30.54631620274995
1495,55.95292855178923
1496,85.19873303815984
1497,94.89365279564117
1498,75.24761066328756
1499,43.77052918741356
1500,21.16233062359788
1501,16.832936938684725
1502,20.732269812808227
1503,21.090250641424063
1504,14.866800537343806
1505,11.991840332795618
1506,23.06529058149681
1507,44.01707156071279
1508,52.56710327336441
1509,26.425305450104133
1510,-26.208402448539346
1511,-64.90410123006768
1512,-50.2718719678669
1513,9.088204000938276
1514,62.096045077641975
1515,60.241569404124675
1516,11.494694865032216
1517,-34.7446609100225
1518,-33.21658054427826
1519,6.698853088419128
1520,42.701556865826205
1521,37.811447419542674
1522,2.288441137256086
1523,-30.477545834979537
1524,-33.336597590487145
1525,-19.48879845966985
1526,-17.834233007723014
1527,-49.11298603231626
1528,-93.62514256128088
1529,-119.30078785027763
1530,-105.3900073804416
1531,-74.03288685604457
1532,-57.51951220211231
1533,-75.16996956205367
1534,-108.65434529526283
1535,-132.8827259747177
1536,-134.5751983845821
1537,-126.75184951775191
1538,-125.85276657343093
1539,-135.95803695468567
1540,-139.8367482659687
1541,-118.65198831066118
1542,-73.280845088575
1543,-30.694406793458256
1544,-18.59276181048517
1545,-39.43599871373772
1546,-70.02420626366256
1547,-87.2874734045472
1548,-87.81588926193217
1549,-83.34954314005881
1550,-84.58052451929507
1551,-87.4109230535214
1552,-79.13582856754329
1553,-50.13833105446247
1554,-13.289520673057268
1555,8.863512254876696
1556,-0.4893227528427815
1557,-29.608116336101375
1558,-57.88895928981765
1559,-71.50494256124512
1560,-80.3291572472881
1561,-99.41969459176653
1562,-134.2466459826992
1563,-166.55210294956487
1564,-174.6421571605515
1565,-152.16490041979523
1566,-119.83442466459383
1567,-100.75282196263834
1568,-103.25818450919905
1569,-117.01260462431492
1570,-130.85117474998333
1571,-141.02498744729746
1572,-150.50413539362853
1573,-161.238711379734
1574,-160.73280830692238
1575,-127.18851918412838
1576,-46.30193712503569
1577,40.02784465482728
1578,64.84873284102287
1579,-16.549365976865374
1580,-141.2455453022867
1581,-213.93589872877055
1582,-174.61251993693622
1583,-75.2035026915346
1584,10.379059161568875
1585,37.21207169839727
1586,21.459440919874396
1587,-13.01192724512839
1588,-44.89712693675392
1589,-56.547252361104256
1590,-31.857397787156515
1591,17.442342456306505
1592,52.818873983802405
1593,38.79310235624507
1594,-11.271066915925985
1595,-52.38872836960036
1596,-46.07597658588202
1597,-3.030906186908396
1598,45.18938816732407
1599,73.26881178212352
1600,83.13926993131463
1601,84.0346678604401
1602,82.36391078997985
1603,76.98090391859841
1604,65.49355242636739
1605,46.24976147804409
1606,18.865436226336897
1607,-16.457518184812216
1608,-46.544196616947374
1609,-44.008693933745235
1610,15.77589500225622
1611,111.23947533302635
1612,188.2399522083706
1613,200.5922307892979
1614,165.50021625139198
1615,128.20081378820032
1616,123.87392861462104
1617,144.16446597032336
1618,169.1233311231681
1619,185.02842937263995
1620,193.87066605330438
1621,200.0999465382556
1622,207.95917624260983
1623,221.3702606269726
1624,243.79110520095128
1625,269.0956155266558
1626,282.04969722224087
1627,269.3932559654331
1628,241.76019749707666
1629,223.70042762470803
1630,234.6328522261265
1631,264.5083772529888
1632,293.1619087343988
1633,307.64835278053397
1634,317.5296155862743
1635,336.6006034348393
1636,366.7712227014272
1637,388.58237985691267
1638,381.4609814714968
1639,353.95593421841295
1640,345.61114487763734
1641,392.7775203395904
1642,478.48896760887874
1643,552.2083938080377
1644,572.0237061812913
1645,549.174812098312
1646,513.9316190580157
1647,488.31403469234647
1648,468.55196677009553
1649,445.9923232007077
1650,421.67801203813724
1651,413.39394148467363
1652,439.5720198948202
1653,494.9131557791552
1654,550.6402578082234
1655,579.7842348164377
1656,583.2329958059909
1657,577.5264499507666
1658,574.2345066003127
1659,559.987075283756
1660,513.8860657137884
1661,433.5313877906392
1662,363.6209516060644
1663,355.2026674473509
1664,411.2564458013403
1665,468.36219735845043
1666,462.53483301672895
1667,394.88526388588434
1668,316.3664012914014
1669,273.11215677857945
1670,269.9224421166491
1671,294.57116930287884
1672,331.40625056669523
1673,353.5525983738189
1674,332.0621254304224
1675,262.6327446872656
1676,183.3763693439032
1677,135.1269128528511
1678,128.02428892378884
1679,143.882411527793
1680,164.55119490153083
1681,181.07155355154282
1682,188.95440225844868
1683,184.9416560812715
1684,170.4262303616615
1685,147.93604072822927
1686,120.83700310083077
1687,94.09403369490246
1688,72.60204902578334
1689,55.50396591306708
1690,36.25670148496647
1691,8.352173182676779
1692,-32.163701235242115
1693,-87.93700368843565
1694,-156.53981577038758
1695,-215.66521874394493
1696,-238.28129353692384
1697,-215.20012073762155
1698,-170.7967805903645
1699,-132.28635299103917
1700,-107.91491748257067
1701,-87.96255325045058
1702,-63.870339118186166
1703,-41.789353542790195
1704,-34.834674610223374
1705,-48.84638003083819
1706,-64.13054713479869
1707,-55.69525286751377
1708,-19.10257378501592
1709,16.33441395065165
1710,19.84063457603588
1711,-11.542987269058358
1712,-58.283526536917634
1713,-102.30105776727214
1714,-138.8046550826075
1715,-168.1163921834559
1716,-191.8083423437074
1717,-214.83557840587673
1718,-242.41717277638782
1719,-267.68419742081096
1720,-268.29272385909826
1721,-224.59982316082642
1722,-157.76156594039276
1723,-113.98202235222743
1724,-125.80326208597398
1725,-163.79835436165558
1726,-181.66536792483748
1727,-156.92037104178416
1728,-112.9194314945671
1729,-77.32161657620964
1730,-59.792993085764465
1731,-53.87062732342747
1732,-52.75658508560264
1733,-51.32693165997807
1734,-45.14373182055533
1735,-34.06604982271347
1736,-29.796949398214565
1737,-45.51349375021891
1738,-75.23274554828276
1739,-89.49976692333439
1740,-61.63261946266539
1741,-5.7903642048568145
1742,41.0909383652579
1743,50.815228321669565
1744,28.855446302279233
1745,-11.392466486007834
1746,-54.39156826216458
1747,-81.22791666592457
1748,-74.84156875263761
1749,-46.70358098811266
1750,-28.40000924346714
1751,-42.94990878993849
1752,-70.56833429368271
1753,-78.96033981058645
1754,-57.96897878103118
1755,-39.80330402466643
1756,-58.79736773516015
1757,-103.43922147494595
1758,-124.05191616992852
1759,-83.51650210421394
1760,-22.14002891481141
1761,-7.108545586295804
1762,-67.3031004455006
1763,-147.81274115615997
1764,-185.24751471357013
1765,-170.01046743919142
1766,-142.18364497530092
1767,-136.91209227956642
1768,-146.70385361964327
1769,-147.80297256776066
1770,-127.18649199526772
1771,-97.02945406720028
1772,-72.67990023679886
1773,-59.99587124003301
1774,-55.69040709011642
1775,-56.41154707200076
1776,-60.833329736840824
1777,-68.42179289648084
1778,-76.76797361789977
1779,-79.11790821763498
1780,-68.36463225623447
1781,-43.315180532657905
1782,-8.390587078660246
1783,30.244114846796947
1784,57.23789276319985
1785,53.818714974104296
1786,15.456550572811466
1787,-31.150630551976064
1788,-56.516857710466866
1789,-57.0721594060833
1790,-51.85056332974091
1791,-56.84609635413835
1792,-67.37978452801144
1793,-71.88965307038234
1794,-65.79472636478931
1795,-58.01702795350866
1796,-58.15158053176856
1797,-62.9784059419344
1798,-59.54652516769056
1799,-39.671958328197434
1800,-17.614724672263037
