800,136.22206123302203
801,142.77902884178366
802,156.56080495485367
803,171.6346101386207
804,178.4766644646479
805,167.51418750692756
806,133.85639833917776
807,88.79951553217325
808,47.124757151093945
809,23.35034075292424
810,22.767483383859144
811,39.12340157676226
812,65.43231134862071
813,95.21842819807352
814,125.91396710293702
815,156.78814251776203
816,187.12416837143246
817,214.722258064794
818,233.64862446828556
819,237.38647991963626
820,219.9470362215634
821,185.82750463950833
822,149.18709589940227
823,124.54302018545604
824,123.23348713798077
825,140.01670585123247
826,164.25788487129466
827,185.36623219397006
828,196.15695526271884
829,195.31126096660591
830,182.0833556382986
831,156.3414450520704
832,124.66273442183046
833,97.77242839920655
834,86.45873107162515
835,97.12384596042648
836,122.06697601900851
837,150.7453236310157
838,172.84209060851208
839,183.94047819020489
840,186.04868703971442
841,181.50491724382482
842,172.65236831079346
843,161.898239168675
844,151.67172816366838
845,144.39103305850222
846,142.01435103081167
847,145.62187867159446
848,156.20381198363611
849,174.5503463799996
850,199.20767668251028
851,227.28999712029872
852,255.88850132832886
853,281.5463823459886
854,299.05683261566446
855,302.8780439813818
856,287.804207687439
857,256.6665143770733
858,220.51415409115907
859,190.76431626691738
860,176.64718973665003
861,175.76896272650993
862,181.90982285527934
863,188.88395713317004
864,192.86055196067355
865,193.73679312739296
866,191.73386581092382
867,187.2219545757598
868,181.84624337219975
869,177.90591553530066
870,177.70815378383486
871,183.3211402192792
872,196.23305632482152
873,217.850082964389
874,249.23840038170783
875,286.44618819936477
876,321.6926254179016
877,347.10089041494575
878,357.3351609443271
879,356.1886141352461
880,349.50442649145225
881,342.9797738904417
882,338.6728315826749
883,334.7027741908205
884,328.9967757090144
885,320.26400950214156
886,311.2846483051362
887,306.16786422230507
888,308.97282872666983
889,321.23371265932474
890,340.7776862288156
891,365.13191901055325
892,391.63557994621806
893,416.16983734321366
894,433.9638588741054
895,440.27781157613026
896,434.15686185065533
897,422.01817546273196
898,411.12391754060263
899,407.99025257526046
900,411.437344420041
901,415.76735629018367
902,415.2304507624576
903,406.7957897747947
904,394.2545346259176
905,382.4648459750115
906,375.9918838414178
907,375.4828076043086
908,378.69277600243004
909,383.3079471338169
910,386.81747845555583
911,386.0865267835525
912,377.85924829231953
913,359.25879851477293
914,334.66333234206286
915,314.8880040234144
916,310.97696716596874
917,329.3523747346662
918,358.69537905213474
919,383.4301317985828
920,388.5417840117407
921,372.9664860867797
922,350.115387776279
923,334.06663819018286
924,335.90238579580364
925,353.16677841780984
926,379.61196323824515
927,409.0110867965723
928,436.13629498971204
929,456.92373307211165
930,467.3715456558202
931,464.0698767105987
932,446.584869564007
933,415.4306669015459
934,371.2944107667972
935,321.38924256157406
936,281.30030304609136
937,267.16173233915106
938,289.95366991834635
939,332.16325462026543
940,366.4856246407271
941,366.12191753503066
942,326.9892702181878
943,275.80281896521956
944,241.4806994114315
945,246.7640465527038
946,278.5189947458166
947,310.73167770876717
948,317.7332285211123
949,291.26577962432566
950,247.25746282215368
951,203.43140928100547
952,175.1497495303356
953,163.92961346306765
954,166.26513033598712
955,178.58242877019984
956,194.76163675155294
957,205.16388163110605
958,199.88829012560564
959,171.76198831794864
960,129.16910165768968
961,85.99575496155921
962,55.95807241395414
963,45.257177567489634
964,50.12319334354288
965,66.09024203280205
966,88.52644529582903
967,111.91392416364943
968,130.43379903833738
969,138.36518969361532
970,133.45121527547417
971,117.73399430279278
972,93.52164466796967
973,63.22228363758586
974,29.745027853050487
975,-3.84400666872898
976,-34.51670453465704
977,-60.24795097477545
978,-80.13163184153927
979,-93.31963360912778
980,-99.24284337269819
981,-98.5101488476721
982,-92.040438368982
983,-80.85360089031019
984,-68.21452598333963
985,-59.599103836970244
986,-60.57822525653137
987,-73.96278166299817
988,-92.62266509216897
989,-107.18676819387474
990,-108.71898423113635
991,-95.81920707934114
992,-73.39933122538969
993,-46.57125176685622
994,-19.780864411119182
995,4.50693452550513
996,24.194248118654286
997,37.38117883678751
998,44.801828542107614
999,49.015298491454814
1000,52.61568933721355
1001,57.82610112827024
1002,65.99363331090171
1003,78.33738472975347
1004,96.08245362877278
1005,119.32793765216957
1006,140.64593384538784
1007,149.50553865607435
1008,135.53884793507495
1009,97.31995693739918
1010,46.24296032325583
1011,-5.294047840965504
1012,-46.56697408167565
1013,-75.98072551705627
1014,-95.01820985602899
1015,-105.16233539722089
1016,-107.63201102792664
1017,-103.34414622303302
1018,-93.20265104398277
1019,-78.53243613769337
1020,-62.45541273548588
1021,-48.57849265199184
1022,-40.34258828409111
1023,-37.83161260978886
1024,-38.021479187129444
1025,-37.77110215306493
1026,-33.6603962223744
1027,-21.401276686507117
1028,3.4663405875344324
1029,44.46853915831889
1030,92.8534020111565
1031,131.25301155921625
1032,142.1594496447069
1033,118.74579754001752
1034,78.46413594891055
1035,42.130545007665205
1036,28.16510428627953
1037,34.50289278964556
1038,48.67498895874269
1039,58.24447067183792
1040,57.698415245682554
1041,52.609899436723936
1042,49.55099944231915
1043,53.16179090195146
1044,57.35234889846288
1045,52.32074795927292
1046,28.80006205762038
1047,-7.749635386195223
1048,-35.7142715035734
1049,-32.64777397635953
1050,13.251928964416948
1051,76.15290853978149
1052,121.91723542411637
1053,119.06997974638398
1054,72.97721109144732
1055,15.733998501316819
1056,-20.02158952355785
1057,-16.635485022990906
1058,10.73937942423072
1059,42.595070701625446
1060,61.56665515634268
1061,66.44419860045491
1062,63.358766312268926
1063,58.453423037646644
1064,56.594232991301396
1065,60.91725985815174
1066,74.44356679461634
1067,97.37321642996176
1068,117.99727086762869
1069,121.46579168656717
1070,94.35283994257952
1071,46.43947616966216
1072,6.271760381361673
1073,2.8857520721048786
1074,47.42751021856566
1075,109.29509328103632
1076,151.9225592047569
1077,144.35196542130507
1078,98.5073688499433
1079,46.0688258990067
1080,18.27439246726135
1081,24.44512394528647
1082,45.4570752168529
1083,60.27930066029876
1084,54.00185414992302
1085,35.216789057356436
1086,18.147158252975714
1087,16.131014107262672
1088,30.65240849222755
1089,54.809392782788564
1090,81.50901785817769
1091,104.09833410334068
1092,116.73939141033225
1093,113.6962391797424
1094,90.63592632207838
1095,51.44650125919725
1096,2.9700119256995094
1097,-47.93749422964538
1098,-94.30897024248225
1099,-129.06936963146836
1100,-145.13864639683197
1101,-139.78175501897385
1102,-121.83165045701753
1103,-102.0332881474169
1104,-89.88162400250803
1105,-84.69261440908303
1106,-80.87421622697366
1107,-72.98638678760835
1108,-62.374083892585986
1109,-58.93026581225058
1110,-73.08689128423794
1111,-109.4189195120598
1112,-152.55931016366594
1113,-182.90802336998422
1114,-183.18101972350632
1115,-160.04526027685097
1116,-134.2427065412976
1117,-126.42032048537112
1118,-141.6890645333824
1119,-162.20790156400108
1120,-168.27779490879584
1121,-146.7547083508034
1122,-110.41560612308422
1123,-78.4264529072534
1124,-68.29721383207652
1125,-77.8008544719869
1126,-91.82834084565366
1127,-95.22363941453295
1128,-85.38471708142606
1129,-79.70754118902914
1130,-97.3930795184715
1131,-150.23330028789678
1132,-219.18717215097968
1133,-277.1986641955118
1134,-299.3027459419245
1135,-286.23338734187564
1136,-255.81555877675237
1137,-226.07723105627338
1138,-207.6913754170073
1139,-199.71796352094134
1140,-200.19096745403112
1141,-207.5013597247471
1142,-221.46611326264428
1143,-242.25720141689453
1144,-269.55159795485633
1145,-297.5252770606221
1146,-316.9492133335807
1147,-318.7213817869633
1148,-302.9907578464172
1149,-283.1713173485314
1150,-273.7190365394381
1151,-282.71389207332686
1152,-296.1688610110414
1153,-295.3199208186106
1154,-264.3580493658319
1155,-214.35022492481403
1156,-170.6824261685597
1157,-158.22963216951575
1158,-180.28282239813598
1159,-214.25397672146937
1160,-236.01807540169102
1161,-230.33609909470397
1162,-206.3810288486966
1163,-177.48484610270134
1164,-155.92053268519157
1165,-146.7080708126323
1166,-151.84844308806169
1167,-172.88663249967794
1168,-202.3096224194087
1169,-224.248396601477
1170,-222.57793918100833
1171,-191.0972346725939
1172,-143.5702679688784
1173,-96.14902433914722
1174,-62.47048942791298
1175,-44.31764925350035
1176,-40.013490206645656
1177,-47.86399904907921
1178,-65.92016291211985
1179,-92.07796929528558
1180,-124.18040606486284
1181,-158.5824614525336
1182,-189.56912405396542
1183,-211.2833828274106
1184,-221.04622709231626
1185,-225.62864652793542
1186,-233.55063117193095
1187,-250.94517141898723
1188,-267.68825801942876
1189,-266.87988207782837
1190,-232.70903505163187
1191,-169.83570874977522
1192,-100.69889533130845
1193,-48.21658730402305
1194,-23.274777523069133
1195,-15.54845918960018
1196,-12.542625849389879
1197,-5.3372713914741325
1198,1.4886099532104708
1199,0.18602361319244665
1200,-15.346025322181958
1201,-37.29353210138652
1202,-50.848492309360154
1203,-41.85690186617285
1204,-12.628757025655432
1205,18.11394562593523
1206,31.017209171248396
1207,17.883036363202336
1208,-7.609570373695533
1209,-29.241608942009407
1210,-34.82207757004653
1211,-28.519974810515123
1212,-18.651299539209504
1213,-12.59105095369523
1214,-9.470228571970438
1215,-4.162832231153516
1216,8.263137913820174
1217,27.306681391522943
1218,47.11079741534195
1219,61.61048488477536
1220,67.4947423867452
1221,66.61856819689456
1222,61.40296028087687
1223,54.50991629566852
1224,49.4654335908217
1225,50.00450920980256
1226,59.15413989123226
1227,74.58532207018834
1228,91.52205187947402
1229,105.34432515091066
1230,114.3701374165721
1231,119.41148391009483
1232,121.36435956790956
1233,121.11975903053099
1234,119.57567664378803
1235,117.6281064600953
1236,116.8780422396976
1237,120.94847745193147
1238,133.82440527644394
1239,157.72381860445785
1240,185.14971003999744
1241,205.26407190112513
1242,208.19689622117403
1243,195.16417474997434
1244,174.31489895507184
1245,153.8050600229526
1246,138.80564886026514
1247,131.20165609501964
1248,132.69007207781397
1249,142.33688688302936
1250,154.17309031002878
1251,161.6476718843678
1252,160.46962085898122
1253,154.14492621537283
1254,147.87457666482078
1255,146.4985606495302
1256,152.53186634383928
1257,167.58048165539185
1258,192.75839422630088
1259,223.08859143432892
1260,249.44006039403575
1261,262.8757879579716
1262,262.78076071780015
1263,257.9709650054756
1264,257.75138689438245
1265,265.847012200491
1266,275.4328264834894
1267,278.48881504792917
1268,271.1149629443644
1269,262.9112549704714
1270,266.1876756721904
1271,289.4242093448338
1272,319.12084003421296
1273,333.9775515377678
1274,315.71432740564524
1275,276.74115094184526
1276,247.60700520530008
1277,257.59287301098266
1278,304.7017369309997
1279,357.4085792956939
1280,383.40538219471455
1281,372.08212747812104
1282,345.29879675744814
1283,327.57537140679597
1284,334.16183256389195
1285,358.0681611311629
1286,389.034337776804
1287,416.91034293583107
1288,432.08615681115043
1289,425.07175937459033
1290,389.64713036797366
1291,341.11224930414755
1292,303.36709546803104
1293,298.20164791764364
1294,323.5758854851483
1295,362.4997867778784
1296,398.203330179349
1297,423.84649385030025
1298,441.9692557296912
1299,455.451593535734
1300,464.9734847668806
1301,468.00490670285035
1302,461.80583640561053
1303,446.6762507203821
1304,429.48612627663533
1305,417.96543948907674
1306,417.154166558621
1307,423.1822834733921
1308,430.3197660096903
1309,434.11658973294834
1310,436.7027299987403
1311,442.318161953699
1312,454.70286053651034
1313,473.54680047885813
1314,496.6299563063749
1315,521.2323023395838
1316,538.8538126948661
1317,536.8844612853773
1318,503.65422182198927
1319,451.1430678142333
1320,414.830972571217
1321,430.48790920256215
1322,499.8238506193011
1323,576.5287695348161
1324,610.8926384657461
1325,581.1354297328835
1326,521.1071154620986
1327,471.2776675852256
1328,458.36705784096193
1329,470.1252577757605
1330,487.4422387447212
1331,495.2479719124767
1332,495.0624282540757
1333,492.6555785558412
1334,492.6373934162748
1335,493.0478432468899
1336,489.51689827311384
1337,478.2545285351225
1338,460.38070388870983
1339,439.47539400612914
1340,418.8785683769711
1341,398.7801963089696
1342,377.2202469288768
1343,352.55168918328854
1344,330.3084918394761
1345,322.4916234862194
1346,340.87905253464305
1347,382.2657472190258
1348,425.5456755976247
1349,448.7838055534903
1350,445.18010479528675
1351,431.5445408580799
1352,426.6870811041699
1353,439.7776927238665
1354,460.2263427362959
1355,475.0429979901983
1356,475.3376251647078
1357,463.2701907701503
1358,442.8306611488151
1359,418.2190024757365
1360,394.29518075947635
1361,376.0801618428832
1362,367.9229114038626
1363,371.0183949561597
1364,385.6695778500907
1365,410.0724252733253
1366,429.8949022516226
1367,426.14497364959425
1368,384.31160417144565
1369,324.8487583617134
1370,284.55640060601763
1371,296.1234951317929
1372,349.2460060090143
1373,408.5988971509396
1374,440.6051323148258
1375,439.58467510265655
1376,419.7804889618619
1377,395.5885371860313
1378,376.40378291562774
1379,367.2991891387046
1380,372.8647186916005
1381,389.29033425964917
1382,404.0469983778821
1383,404.5246734317134
1384,389.4833216576553
1385,371.7309051439788
1386,364.799385831433
1387,374.1897255139047
1388,393.6998858391107
1389,416.2008283092782
1390,435.3875142818124
1391,446.35890496996944
1392,444.38896144353566
1393,429.78064462948714
1394,412.9139153126398
1395,405.34773413633775
1396,411.9760616030853
1397,422.18185807521513
1398,423.15508377554215
1399,409.77369878800346
1400,397.5526630582972
1401,405.45293639455485
1402,442.4174784679544
1403,486.46724881337104
1404,509.67120683000576
1405,494.92431178202787
1406,463.2795227991901
1407,444.16679887747705
1408,458.534098879707
1409,493.6103815361748
1410,528.2486054452547
1411,545.6757290740279
1412,548.6887107588955
1413,545.5275087061909
1414,543.7220809927912
1415,547.1923855667192
1416,558.7583802477566
1417,578.4700227280391
1418,591.357270572671
1419,577.3500812203001
1420,522.9154119837385
1421,453.13722005055024
1422,407.30446248363296
1423,416.85109622181517
1424,462.7070780804497
1425,505.88036475198714
1426,514.6639128065726
1427,507.74067869262035
1428,524.9136187373933
1429,597.5246891475854
1430,694.5358460098905
1431,757.3520452915818
1432,736.8332428410977
1433,657.3793943885794
1434,577.3834555464746
1435,548.7353818100837
1436,569.7461285581285
1437,613.1326510533254
1438,653.8729044429401
1439,686.8478437593494
1440,716.7274239205981
1441,747.2515997309711
1442,773.8503258815272
1443,787.8035569506737
1444,782.0512474047064
1445,763.7233515983735
1446,747.1298237754218
1447,745.1106180691404
1448,757.7256885029219
1449,778.6049889907936
1450,800.8284733379824
1451,812.966095241447
1452,801.4078082904325
1453,755.9235659669921
1454,694.4433216465586
1455,648.6700285984662
1456,645.0416399864916
1457,667.5351088694097
1458,679.8983882015109
1459,651.3684308331485
1460,594.0761895112828
1461,539.8696168800125
1462,516.1816654811028
1463,517.6232877545262
1464,524.3744360390083
1465,519.3820625725457
1466,504.986119492949
1467,491.5955588383749
1468,486.47833254785473
1469,476.66839246183736
1470,441.2646903227087
1471,366.37617777533706
1472,279.45180636759324
1473,223.01352755088737
1474,229.2182926807145
1475,274.10205301716087
1476,314.85475972544555
1477,316.7483638764679
1478,284.88281644731796
1479,236.55206832182193
1480,187.6530702910677
1481,147.8657730539362
1482,125.15112721764854
1483,124.25008329827506
1484,137.13559172129317
1485,152.6316028221081
1486,160.05806684658637
1487,150.54793395159686
1488,115.61415420554295
1489,55.792677588902734
1490,-0.6745460052461567
1491,-20.23256677066638
1492,14.404565012551757
1493,76.83179897855007
1494,133.40908467623376
1495,161.1323715698163
1496,161.8026090393414
1497,140.7627463812696
1498,105.93673280897929
1499,70.42651745333569
1500,47.8450493632281
1501,41.79127750612133
1502,38.590150768617605
1503,23.112617956972827
1504,-5.674372202314771
1505,-28.025871061972794
1506,-23.092930053389864
1507,8.985399313942253
1508,41.821065452973926
1509,48.336016699673564
1510,26.92620131358126
1511,2.8775674783701106
1512,1.1600633024208946
1513,16.604636819380175
1514,17.381235988728804
1515,-25.96719130362908
1516,-96.7476972448112
1517,-144.39733409438304
1518,-123.58915418376091
1519,-53.16620991564923
1520,9.360446236552889
1521,14.240761729321093
1522,-20.152316050374793
1523,-42.191839784527474
1524,-11.210862223457298
1525,42.51856381476864
1526,61.061385444920234
1527,2.811549715226647
1528,-93.421996392035
1529,-164.20330595992527
1530,-166.70843213624357
1531,-136.19142813289
1532,-126.37934722528553
1533,-171.91424275173085
1534,-251.95616811278705
1535,-335.6461767706551
1536,-395.4773222485437
1537,-411.45965813004295
1538,-364.92523805848396
1539,-264.1431157363004
1540,-163.63134492438985
1541,-121.362979441461
1542,-148.48307316339924
1543,-194.20368002259056
1544,-205.13485400728132
1545,-167.78264916091757
1546,-109.17411958146477
1547,-57.210319420755695
1548,-25.54530288380556
1549,-16.804124228141518
1550,-31.7198377631139
1551,-54.78249784922082
1552,-61.023158897405665
1553,-31.344875368373323
1554,11.15429822812439
1555,25.246307333969526
1556,-18.15490265659173
1557,-87.44738639624666
1558,-132.21919858389083
1559,-118.21739396391422
1560,-67.87802732546697
1561,-16.03815350172772
1562,11.502172630829591
1563,11.369896153191803
1564,-16.337037895460526
1565,-64.40468451699053
1566,-113.09109875354807
1567,-141.71233568680327
1568,-142.6214504371801
1569,-124.66449816308159
1570,-97.63153406009951
1571,-68.73561336024432
1572,-42.869791331137094
1573,-24.57512327521181
1574,-15.130664528922352
1575,-13.745470461923105
1576,-19.655596476257415
1577,-32.606098005519016
1578,-52.57203051405486
1579,-77.71744949609638
1580,-97.53941047493572
1581,-98.91696900207535
1582,-75.30318065636675
1583,-40.951101043167
1584,-14.189785793441843
1585,-4.912290562917406
1586,-5.242671031175632
1587,-5.149982900797113
1588,0.3057181035655958
1589,8.820376236084485
1590,17.39393573064808
1591,19.914340801795333
1592,7.2725356456412555
1593,-27.63553555920589
1594,-67.06792865068746
1595,-77.18369948236614
1596,-31.28990392245214
1597,45.60040214714172
1598,106.52216283178677
1599,116.16832222509947
1600,89.76482440993641
1601,56.0986134593968
1602,37.46963343779862
1603,38.7878284017188
1604,61.98114240099858
1605,100.03651947975959
1606,130.76090367745746
1607,131.47323902991957
1608,107.0524695703898
1609,92.57853933060687
1610,121.2353923418541
1611,180.43397263605038
1612,225.3042242468382
1613,217.50109121067726
1614,171.48051756795212
1615,125.05044736408672
1616,109.24382465066992
1617,125.6345934865858
1618,167.94869793916223
1619,226.47108208532518
1620,282.8306900127518
1621,317.49446582105156
1622,323.42335362294943
1623,312.8052975454684
1624,299.3222417311463
1625,293.3291303392325
1626,302.0019075469172
1627,331.5065175505624
1628,378.87690456695964
1629,435.8280128345541
1630,492.2127866147348
1631,528.0321701930952
1632,519.8991078807248
1633,460.1645440155062
1634,390.1384229634041
1635,360.3586891198174
1636,393.5192869108796
1637,462.2961607948055
1638,534.5422552632517
1639,588.8775148426666
1640,615.3998840956774
1641,607.1083076224659
1642,583.7397300621706
1643,581.8380960942941
1644,629.6103504401253
1645,705.3534378641707
1646,769.4853031756029
1647,794.0328912297064
1648,787.2881469293661
1649,764.5490152265284
1650,737.8184411237089
1651,713.363369675495
1652,696.7397459900549
1653,689.8165152306883
1654,690.8216226173499
1655,697.5000134282272
1656,704.4596330012882
1657,704.5334267358849
1658,692.4383400943316
1659,672.1643186035308
1660,650.5143078565852
1661,631.3452535144388
1662,611.0021013075184
1663,584.8167970374143
1664,554.9802865785368
1665,533.1635158798235
1666,530.7094309664317
1667,543.4709779414679
1668,555.4431029877087
1669,552.9317523693662
1670,539.9528724338361
1671,527.8184096134682
1672,523.0703104273671
1673,516.2335214832128
1674,494.58698947903576
1675,453.29266120509783
1676,401.1174835457223
1677,348.1364034811504
1678,303.5403680894433
1679,275.701324548354
1680,270.9772201372489
1681,279.45200223903703
1682,283.2726183421091
1683,269.60601604229487
1684,245.3151430448197
1685,221.96994716633162
1686,204.7153763368642
1687,186.41137860188155
1688,158.89390212431226
1689,122.24689518660216
1690,84.72330619277363
1691,54.321083670525695
1692,33.66617627333744
1693,22.65653278257105
1694,18.878102109625615
1695,10.929833298083395
1696,-14.692324474121051
1697,-59.730421892507366
1698,-103.84350950385851
1699,-124.92863771397333
1700,-115.78885678545703
1701,-83.35521683543993
1702,-36.92376783331474
1703,0.22644040155591938
1704,-1.8266417978402387
1705,-58.07706394385059
1706,-131.23387539179294
1707,-172.91112533761043
1708,-160.02686281547358
1709,-111.07613669538296
1710,-48.812995680752465
1711,-1.809488305963896
1712,-3.3646629339109495
1713,-75.97156775352596
1714,-173.5722507772789
1715,-223.67475983866552
1716,-187.9421425896735
1717,-121.91244649822784
1718,-95.73271884561291
1719,-126.185006723892
1720,-161.68035703328133
1721,-151.4388164795264
1722,-103.09943157124508
1723,-60.14724861726245
1724,-56.78131372390453
1725,-83.78767279230306
1726,-120.02937151565129
1727,-147.92045537645026
1728,-156.73696964374358
1729,-137.78495937030675
1730,-106.5854693898491
1731,-100.37654431416377
1732,-147.26322853027887
1733,-209.0995661975685
1734,-220.64260124486373
1735,-149.88437736751985
1736,-56.64093802448133
1737,-14.899326435310286
1738,-43.650585577207494
1739,-94.50475818198993
1740,-119.30288673307223
1741,-112.40301346241358
1742,-91.84118034743005
1743,-72.09842910791485
1744,-53.36480120289434
1745,-32.6163378275096
1746,-14.868079909837434
1747,-17.801068107700303
1748,-57.50134280545717
1749,-114.11594411077294
1750,-142.4739118513562
1751,-109.58428557167645
1752,-43.02910452966535
1753,11.756592306625862
1754,23.950766262361867
1755,-9.217621040691483
1756,-85.81860768076876
1757,-177.82923143267817
1758,-235.5055297643512
1759,-220.1375398333803
1760,-159.173298483508
1761,-103.07284224111663
1762,-81.33820731166452
1763,-77.54942957613548
1764,-70.27154458742825
1765,-59.516587566735325
1766,-65.09459339990008
1767,-101.13559663373871
1768,-141.7586314723485
1769,-145.82473177338034
1770,-97.37493104428904
1771,-39.37526243855791
1772,-20.990758751896465
1773,-42.155452418414825
1774,-55.361375506771765
1775,-22.337559716289434
1776,23.63796362695757
1777,21.341163574058555
1778,-53.69599044275128
1779,-139.7135286061175
1780,-165.6184807095524
1781,-125.08987615337901
1782,-73.07074394068331
1783,-57.840112673199656
1784,-72.06301054719552
1785,-87.59746534932037
1786,-86.67150445241805
1787,-74.42615481133362
1788,-59.024442958660075
1789,-47.99639500048761
1790,-48.336036612106
1791,-62.73339303368357
1792,-70.75748906592253
1793,-44.39834906567103
1794,18.450003058475886
1795,69.88854385061404
1796,60.56525031199999
1797,4.70009990554081
1798,-35.30692943968006
1799,-14.860859323846853
1800,25.204289128171695
