800,187.0519939446367
801,146.91006980482052
802,119.25784430045678
803,105.06551329958711
804,97.57327278964112
805,89.92131887724827
806,77.65984778806524
807,64.85905586654007
808,57.37913957566161
809,60.980295496690815
810,77.48272032885143
811,103.77661088901004
812,136.43216411131652
813,171.82957704681758
814,204.75904686305694
815,229.24077084365308
816,239.3149463878235
817,232.04177100990455
818,212.0614423388579
819,185.19415811772706
820,157.1901162030681
821,132.0995145643883
822,112.43255128352939
823,100.63942455402321
824,98.04033268045714
825,100.06547407777362
826,100.2450472705732
827,92.17925089238997
828,74.1382836849316
829,52.45234449729833
830,34.23163228519661
831,25.97634611011017
832,27.116685138447792
833,32.742848640667944
834,37.86503599041134
835,39.77344666355566
836,43.05828023729009
837,53.759736389161844
838,77.5980148960789
839,110.60331563330874
840,138.31583857345322
841,145.7357837853997
842,121.37335143323253
843,74.97874177517406
844,24.17215516242868
845,-13.456207961919063
846,-27.586147064093893
847,-21.41746152077758
848,0.39004937966456055
849,33.196586435973586
850,72.28235053276512
851,112.907542639241
852,150.34236380793118
853,180.05701517337366
854,198.2116979508046
855,201.10661343479478
856,185.33196299791052
857,154.85794808930223
858,121.17477023333413
859,96.10263102812132
860,89.1017321441268
861,97.16227532267658
862,113.12446237447693
863,129.88849517812923
864,142.8345756785984
865,151.29290588568256
866,154.95368787245206
867,153.74712377367723
868,149.6334157842375
869,145.66276615750576
870,144.88537720372005
871,149.68145128833748
872,160.80119083036334
873,178.78479830068136
874,203.7724762203361
875,230.47442715883153
876,249.47085373238042
877,251.21195860215994
878,230.46794447254615
879,197.58901408931888
880,166.38537023786012
881,150.30721574133713
882,153.2847534588691
883,168.99818628366302
884,190.6177171411564
885,211.5635489871256
886,226.64588480578095
887,231.13492760786175
888,220.4008804286932
889,196.35394632623684
890,170.43432837913497
891,154.83222968472182
892,159.93785335703797
893,182.46140252481564
894,213.0330803294455
895,242.27308992295184
896,263.6616344659287
897,276.35891712548255
898,280.1151410731218
899,275.0505094826967
900,264.66522552825154
901,254.42949238192523
902,249.84351321178656
903,254.19749117970787
904,265.1816294391756
905,279.63613113311294
906,294.46119939168966
907,307.47703733011804
908,317.1438480464167
909,321.98183461918416
910,321.7112001053538
911,319.952147537937
912,321.1048799237378
913,329.3096002410639
914,344.0565114374531
915,360.68581642733625
916,374.38771808972706
917,380.2324192658889
918,372.8501227569741
919,346.73103132168217
920,296.97534767387333
921,232.75327448020107
922,177.92501435771192
923,156.970769871421
924,187.22074353193966
925,253.4651377930004
926,331.3541550490445
927,396.8679976327785
928,435.29686781268174
929,442.85096779057494
930,416.3704996990964
931,356.5256655992562
932,283.3166674778913
933,222.90370724517743
934,200.86698673210776
935,221.3167076879363
936,260.823071777666
937,294.1262805794704
938,300.6765355821517
939,285.77403818255516
940,263.59898968299785
941,248.1915912886725
942,245.97204410504673
943,253.02054913526626
944,264.7073072775256
945,276.18251932244493
946,281.55638595044
947,274.5491077290735
948,249.0108851104178
949,206.0619184283587
950,156.85240789597992
951,113.31255360284194
952,85.67255551232302
953,74.45261345891049
954,76.60292714551724
955,89.06369614077266
956,107.97511987628786
957,128.35739764395476
958,145.13072859320891
959,154.04531172829593
960,155.54134590552167
961,151.67902983050226
962,144.48856205541597
963,133.47014097622377
964,114.75396482990618
965,84.27023169170207
966,40.249139472287425
967,-6.599114084987377
968,-41.41433140688605
969,-49.72631509311941
970,-31.424867919124154
971,-4.149792838903522
972,13.319107012179302
973,6.592028314560594
974,-17.580832438357902
975,-45.99927894302709
976,-65.82311508861676
977,-73.92214495984626
978,-77.99617283983753
979,-86.3650032129699
980,-104.23844076775822
981,-123.80629039969244
982,-133.77835721413248
983,-123.39444652917155
984,-93.83436387851907
985,-58.02791501437969
986,-29.444905910351736
987,-17.725142764313205
988,-18.848432001313995
989,-25.73458027647939
990,-31.643394477932816
991,-36.11468172966306
992,-43.92824939446837
993,-60.02390507686505
994,-84.89145662599549
995,-105.9307121385591
996,-108.09147996172942
997,-78.0735686960852
998,-24.826787198540842
999,27.239055414720497
1000,53.44414976531152
1001,40.95868620971123
1002,5.02285483630294
1003,-35.083154537540395
1004,-60.07915236842928
1005,-54.5749493898893
1006,-29.470356615312994
1007,-6.485185340899989
1008,-7.099247148647919
1009,-38.0223539092658
1010,-84.76431778514961
1011,-131.2049512333415
1012,-162.7940670084845
1013,-173.65147816579156
1014,-160.81699806399592
1015,-121.73044036832471
1016,-65.7216190534582
1017,-16.15034840649605
1018,2.8135569700643828
1019,-24.699717844619954
1020,-79.48998809270779
1021,-133.08706934065594
1022,-158.11077748218668
1023,-148.94092874123635
1024,-120.18733967494882
1025,-87.21982717663195
1026,-61.39820847872579
1027,-41.4723011557835
1028,-23.721923127430273
1029,-4.816892661332531
1030,13.072971623832927
1031,23.967850755396285
1032,21.83792540374816
1033,6.3033758793681045
1034,-10.115617870151254
1035,-13.118876263064521
1036,9.353779913562903
1037,50.14252950089394
1038,92.31755096535562
1039,119.00902239567586
1040,123.30712149991814
1041,114.16202560254169
1042,101.97391164143119
1043,95.25295616494441
1044,92.21933532895855
1045,87.5032248939151
1046,75.94480022188145
1047,58.31423627359436
1048,41.92170760551562
1049,34.35738836689052
1050,40.2614522968106
1051,53.60407272126031
1052,66.02542255020307
1053,69.63567427463386
1054,63.13499996365135
1055,50.003571261522666
1056,33.821559384774446
1057,18.669135119253042
1058,9.686468817231798
1059,12.123730394450831
1060,29.831089327251902
1061,55.70871464963602
1062,77.72677495037897
1063,84.08543837011166
1064,73.97487259843729
1065,61.365244871007235
1066,61.31672196668296
1067,83.19947020458312
1068,112.48365544125045
1069,128.32944306775244
1070,111.53699800680988
1071,69.85648470990782
1072,32.7580671544747
1073,30.351908840963006
1074,73.76817279002353
1075,130.02702153965583
1076,159.8486171423574
1077,130.76312116225017
1078,62.47069467228357
1079,-1.2985017486244033
1080,-17.494308018405718
1081,23.08343544532181
1082,85.80488772246463
1083,133.08020738758205
1084,137.85955250715415
1085,113.55308063672783
1086,83.27094881812809
1087,68.51331357667004
1088,69.56033091838981
1089,71.63215632725041
1090,59.68894476235073
1091,27.560850655194372
1092,-13.901972093099175
1093,-51.88937011453527
1094,-75.50119057701158
1095,-84.95728118702755
1096,-84.52749019245312
1097,-78.52166638524795
1098,-72.75965910418745
1099,-74.57131823755117
1100,-91.3164942258918
1101,-123.76503806467008
1102,-155.0068013070122
1103,-165.26163606634145
1104,-138.5193950191133
1105,-89.57993140744657
1106,-48.123099041815294
1107,-43.31875230370861
1108,-80.73674614827542
1109,-136.28693610696064
1110,-183.96917829017184
1111,-204.80332938985885
1112,-203.6492466822092
1113,-190.4067880301991
1114,-174.6158118862113
1115,-161.70617729465448
1116,-154.69774389453596
1117,-156.53037192206466
1118,-165.91392221318165
1119,-175.36825620618765
1120,-176.90323594422807
1121,-166.36872407791088
1122,-154.77458386780563
1123,-156.86067918695335
1124,-185.35687452346974
1125,-229.09303498296867
1126,-261.2890262911169
1127,-255.19471479613276
1128,-207.45996747124082
1129,-151.88465191718205
1130,-125.65863636464928
1131,-154.67178967678046
1132,-217.88398135159878
1133,-282.04508152442213
1134,-315.94496097034425
1135,-313.67349110661235
1136,-286.1605439950763
1137,-244.61599234453752
1138,-201.01970951320982
1139,-168.53156951104756
1140,-160.411447002145
1141,-184.50921730706978
1142,-227.18475640525867
1143,-269.43794093731776
1144,-293.83864820737654
1145,-300.4367561854051
1146,-300.1521435095201
1147,-303.91468948827605
1148,-314.3942741030005
1149,-322.3507780100008
1150,-317.6540825428856
1151,-294.24406971481585
1152,-260.14062222072243
1153,-226.45362343957822
1154,-203.43295743659473
1155,-193.87850896544842
1156,-196.57016347049284
1157,-210.10780708892344
1158,-228.57132665297468
1159,-240.65060969208935
1160,-234.6755444350747
1161,-206.08601981223183
1162,-169.77192545750586
1163,-143.92315171062
1164,-143.61958961914934
1165,-162.59113094064378
1166,-185.7076681447288
1167,-198.34909441512718
1168,-196.9353036518005
1169,-188.0961904729229
1170,-178.81165021696143
1171,-173.43157894470642
1172,-170.86587344124564
1173,-169.41443121801785
1174,-167.14715051476742
1175,-161.08393030151638
1176,-147.9246702805649
1177,-124.96927088840312
1178,-96.21763329767418
1179,-70.08965941909264
1180,-54.92525190334709
1181,-53.35431414301638
1182,-60.14675027445992
1183,-69.4924651796573
1184,-76.93136448812947
1185,-81.95335457870533
1186,-84.81834258145318
1187,-86.00623637940953
1188,-87.61694461044681
1189,-92.45037666904318
1190,-102.86644270807665
1191,-113.70505364056953
1192,-113.18612114147254
1193,-89.4695576493832
1194,-41.555276368271734
1195,12.346808730788325
1196,52.07678290794138
1197,62.60473065285623
1198,48.15073568306616
1199,17.514880942289892
1200,-20.112751401196874
1201,-52.142079956171074
1202,-64.24302411011013
1203,-42.88550403076806
1204,6.600559332233388
1205,60.19524424582778
1206,93.07862819196816
1207,91.76078786606013
1208,64.83179917544112
1209,23.48173723790751
1210,-21.089323619860807
1211,-57.57130986370248
1212,-74.67414875348186
1213,-63.277768344556534
1214,-33.612097489163716
1215,-5.907065837895061
1216,0.42739615892787697
1217,-13.038642750136205
1218,-23.985114619063097
1219,-9.38195230567726
1220,38.29091052698277
1221,97.4535394093291
1222,143.32599906390533
1223,157.1483534041181
1224,142.31066553292112
1225,107.37299774154235
1226,61.085411508272955
1227,13.697967497184436
1228,-23.759274443062168
1229,-40.68625528042685
1230,-33.022916800695384
1231,-2.249201608614385
1232,49.82494687088911
1233,113.7695843916481
1234,168.46476588504447
1235,191.76054545899024
1236,172.32697639674734
1237,129.7041111559265
1238,88.9020013673944
1239,70.96069783421262
1240,74.8802505306594
1241,92.06070860117688
1242,114.25212035941513
1243,137.16453328721036
1244,158.94799403366778
1245,177.83254841421876
1246,192.7482414096521
1247,203.36511716525274
1248,209.4332189898778
1249,212.41258935510996
1250,217.13326989438428
1251,228.7753014021364
1252,249.40872383300302
1253,270.25357630099825
1254,280.1798970787422
1255,270.7577235966637
1256,250.81709244227022
1257,235.98803935941032
1258,240.46059924753354
1259,259.714806161006
1260,276.54069330842685
1261,273.9782930519614
1262,250.6076369066759
1263,222.65875553993828
1264,207.28167877077067
1265,214.24643556929004
1266,239.36305405608437
1267,276.8615615017079
1268,318.31198432609017
1269,346.6643480980674
1270,343.058677534802
1271,294.98499650137455
1272,225.81332801026292
1273,171.6236942209107
1274,164.76611643929573
1275,198.84061511751133
1276,244.64720985337408
1277,273.7259193900354
1278,278.9467616156435
1279,273.40975356298804
1280,270.8449114091927
1281,276.76225047538173
1282,284.34178522643924
1283,285.7635292707055
1284,276.4974953597484
1285,259.86369538814324
1286,240.33214039323866
1287,222.03284055499535
1288,207.6758051957877
1289,199.62104278027982
1290,199.81856091526424
1291,207.66836634955325
1292,221.5404649739212
1293,239.5348618209755
1294,257.0815610651225
1295,267.9105660225432
1296,266.3818791511476
1297,260.5455020506197
1298,271.4914354623834
1299,320.2996792696613
1300,402.70023249758015
1301,478.0930933131749
1302,503.24825902555676
1303,461.3957260859679
1304,392.96549008796865
1305,345.8675457675745
1306,352.6318870034338
1307,394.8385068170319
1308,443.497397372892
1309,473.8385499788492
1310,482.7819550862405
1311,474.12760229026026
1312,452.3554803301922
1313,426.85557708977285
1314,409.46787959749054
1315,410.9323740269756
1316,427.9190456973374
1317,447.2978790736088
1318,456.3288577671228
1319,455.87196453598153
1320,460.4171812854911
1321,484.67448906862774
1322,527.6538680865997
1323,566.1752976892785
1324,575.5187563758154
1325,544.8942217951371
1326,491.21167074659024
1327,434.71107918048074
1328,392.3024221987398
1329,371.5556740555403
1330,378.3308081579671
1331,414.1277970667179
1332,462.4566124967714
1333,502.21722531814885
1334,516.6896055566176
1335,514.58372239452
1336,513.8695441714917
1337,530.1670383853234
1338,559.3661716927527
1339,587.376909910341
1340,601.2592180153297
1341,603.0230601465446
1342,604.8583996052876
1343,618.3451988563029
1344,639.043419528698
1345,648.0430224169577
1346,626.5139674819002
1347,575.4562138517285
1348,519.5397198230785
1349,484.6544428620364
1350,483.2103396052589
1351,506.6173658610751
1352,544.4454766105991
1353,587.2646260088877
1354,627.6847673861012
1355,658.5658532487032
1356,674.8178352806681
1357,676.8706643447113
1358,666.0442904835545
1359,643.8186629211887
1360,612.0837300641906
1361,572.8194395030041
1362,529.8357380133602
1363,495.2625715575414
1364,483.619885285847
1365,505.6976235379698
1366,549.8057298444037
1367,595.9441469279373
1368,625.6928167050974
1369,633.1116802876677
1370,618.1206779841523
1371,581.909749301416
1372,538.3288329461211
1373,508.6178668263892
1374,511.97678805342366
1375,539.3555329430492
1376,561.4840370174461
1377,550.4622350067766
1378,510.7400608508906
1379,474.7374477010453
1380,474.55432792163265
1381,510.62063309195946
1382,550.5062940080024
1383,560.9912406842122
1384,534.6354023553977
1385,495.8387074784914
1386,470.691083734484
1387,470.59245803029626
1388,485.46275650067764
1389,503.58190451018527
1390,516.8598266551089
1391,523.5364467654981
1392,522.4316879071011
1393,515.0354723834607
1394,508.06772173793433
1395,508.8783567557657
1396,520.5872974662088
1397,536.4644631445954
1398,548.4097723145496
1399,549.7331427500758
1400,537.6644914778117
1401,510.1037347791971
1402,469.040788192724
1403,429.22556651619016
1404,407.87798380896857
1405,415.617953394325
1406,439.9753878617448
1407,463.410199069247
1408,471.9022981457965
1409,465.58159549366974
1410,448.0780007908688
1411,423.93142299359533
1412,401.6517703386635
1413,390.89895034602887
1414,399.71286982124366
1415,428.2334348580662
1416,474.14055084092615
1417,532.1741224475663
1418,581.0040536516099
1419,593.900247725207
1420,551.1826072416407
1421,475.3010340780529
1422,404.14542941809486
1423,370.4956937546449
1424,374.231726892569
1425,402.2534279514657
1426,441.64069536846
1427,480.9534269010037
1428,509.41151962971344
1429,519.0048699612162
1430,522.2433736310559
1431,540.7269257065418
1432,591.6354205897369
1433,658.2987520203533
1434,708.3868130787487
1435,714.5994961889228
1436,690.7766931215265
1437,670.4182949969072
1438,682.9741922881622
1439,723.6942748242582
1440,771.0284317931037
1441,804.8265517447253
1442,817.438522594377
1443,807.4542316257721
1444,775.6035654942461
1445,740.3464102300313
1446,729.0526512414581
1447,764.0921733182768
1448,824.9848606349115
1449,869.7305967538523
1450,861.6892646289161
1451,810.9607466086673
1452,750.874924439835
1453,710.9016792706607
1454,687.370891654391
1455,660.3924415527399
1456,613.4462083393555
1457,557.9020708033386
1458,518.359907152786
1459,516.1095950183553
1460,546.4110114568139
1461,592.5640329546914
1462,637.7285354318847
1463,664.6143942453018
1464,655.6914841925609
1465,598.389679515687
1466,513.7688539048177
1467,436.9088805019892
1468,397.21963190485985
1469,387.49098017056167
1470,386.16279681945525
1471,373.98495283903685
1472,345.4573186877751
1473,300.0797642989819
1474,240.89215908478218
1475,190.00437193999096
1476,175.92627124612773
1477,216.6177248753629
1478,278.29860019455737
1479,311.3287640692797
1480,280.1280828678464
1481,211.4864224654666
1482,149.41364824826815
1483,128.31962511748497
1484,144.41421749356596
1485,184.53728932040394
1486,233.48870406948117
1487,269.15832474411945
1488,267.88601388375173
1489,219.24163356814097
1490,153.3750454217079
1491,108.2661106178748
1492,105.19468988335211
1493,120.63064350254353
1494,123.70383132193456
1495,99.36411275449063
1496,69.58134678412534
1497,61.47539197012884
1498,86.04610645167486
1499,121.88334795233459
1500,143.86697378459212
1501,140.16684085442466
1502,122.01280566587229
1503,102.8047243256442
1504,89.92245254774389
1505,81.90584565814788
1506,76.5947585994436
1507,72.62904593555868
1508,69.60856185650118
1509,67.32316018305937
1510,68.70269437160096
1511,79.98701751890985
1512,106.96598236692444
1513,143.76944130765696
1514,174.1972463880229
1515,182.79924931474307
1516,169.12530145925848
1517,143.76525386266076
1518,116.99895724069938
1519,93.00626198870305
1520,72.26701818664515
1521,55.58107560415738
1522,46.508283705577924
1523,50.00849165506952
1524,68.2815483216873
1525,86.23730228454951
1526,82.01560183794572
1527,40.73629499654999
1528,-18.180770499373466
1529,-64.79574717877767
1530,-75.79878783454114
1531,-53.080045518239785
1532,-4.469673534811591
1533,58.39217456276674
1534,112.885344978793
1535,134.39968368022164
1536,109.50503640207171
1537,49.66124865282109
1538,-30.1818342801198
1539,-108.77436732499336
1540,-154.00650562016017
1541,-133.65840450862015
1542,-56.37021953245858
1543,15.2478935727122
1544,17.515778883331222
1545,-49.36671970652242
1546,-120.35975847945883
1547,-131.85349388916438
1548,-86.5580825546931
1549,-38.4036812547929
1550,-36.970446922154224
1551,-73.37853663767237
1552,-104.78810762470312
1553,-94.339317243197
1554,-50.20232298395058
1555,0.06271753725013696
1556,32.43564658554533
1557,40.73630631283595
1558,24.274538763711462
1559,-15.529814118577633
1560,-69.9369104862235
1561,-128.59690858081376
1562,-180.87996672735972
1563,-215.49624332824897
1564,-221.18589685720144
1565,-198.80908585318684
1566,-170.65596891430687
1567,-160.81670469170786
1568,-177.8214518833811
1569,-210.5603692280274
1570,-246.66361549884823
1571,-274.24134949733707
1572,-281.82373004701367
1573,-259.6909159871757
1574,-217.76306616661168
1575,-178.68033943727278
1576,-162.4428946479493
1577,-168.24089063789143
1578,-185.98448623046716
1579,-207.24384022670347
1580,-231.78911139890988
1581,-261.85045848417576
1582,-294.45804017791306
1583,-310.09201512737855
1584,-286.04254192513326
1585,-217.49977910247253
1586,-137.35388512290592
1587,-82.73501837552976
1588,-65.713337168414
1589,-62.708999721980945
1590,-48.692164162319386
1591,-26.252988514541357
1592,-24.611630696006614
1593,-70.16824850966805
1594,-143.58299963724858
1595,-195.8860416325224
1596,-186.6875319144674
1597,-139.05762776047777
1598,-102.92648629950054
1599,-113.28426450514962
1600,-140.12111918885785
1601,-136.0072069929156
1602,-79.69268438357176
1603,-19.937707644032344
1604,-16.562432867529424
1605,-85.7070159502473
1606,-169.3316125843594
1607,-203.7563782509278
1608,-170.69146821285904
1609,-101.52703750778528
1610,-29.42324094095602
1611,23.409766921915434
1612,42.49183176179213
1613,17.92279951355158
1614,-27.82748362685379
1615,-57.939171195135714
1616,-44.86241645142945
1617,-0.8473723729839548
1618,51.295808353101165
1619,93.42697333722026
1620,119.42597049462711
1621,125.05264805274783
1622,109.17685455863102
1623,75.4284388863307
1624,28.557250244368333
1625,-11.006861816847959
1626,-7.984047397512768
1627,66.90554375907959
1628,175.8117622740465
1629,241.74445914048556
1630,204.74348573101815
1631,102.05869380542208
1632,4.2599355181992
1633,-37.152936573747866
1634,-30.340069503494306
1635,4.948390113640926
1636,49.242296087741124
1637,83.41150266206387
1638,89.20586452076532
1639,69.86523679666061
1640,51.49947507905017
1641,58.898435421502654
1642,89.49197434970483
1643,123.42994886930683
1644,144.21221647382117
1645,156.14863515250545
1646,170.97906339830297
1647,193.8733602157772
1648,209.41138512906764
1649,198.38299818990708
1650,159.8980599856004
1651,124.74643164709414
1652,125.50797485698786
1653,162.49255185763104
1654,204.11002545922747
1655,220.88025904793903
1656,217.44311659403684
1657,217.59846266004752
1658,237.6861624089579
1659,256.60608161238997
1660,241.9080866588738
1661,178.92204456202307
1662,98.15782296888574
1663,36.91529016816639
1664,16.15431509857808
1665,34.284767357152305
1666,87.05651720760216
1667,154.5594355887115
1668,204.90339412269532
1669,211.75826512364074
1670,188.54392160593852
1671,165.00023729275927
1672,159.8770866245104
1673,154.9743447673318
1674,124.64188762165213
1675,65.07959183070489
1676,10.137334789080342
1677,-4.575005348644481
1678,15.982450340652576
1679,29.419581557291167
1680,-0.7837312125739118
1681,-51.397606688282394
1682,-70.00216278598236
1683,-24.607516609914455
1684,37.086215556300886
1685,48.41891825843595
1686,-17.18952311959947
1687,-109.74922234693804
1688,-172.55029233697132
1689,-194.17284513850063
1690,-208.0169919268901
1691,-244.45284299520063
1692,-290.60050774528827
1693,-311.5200946788809
1694,-286.2717113886865
1695,-249.44546454938973
1696,-248.99145990870784
1697,-295.71980227839595
1698,-330.7305955252177
1699,-290.6639425619378
1700,-181.13994533823825
1701,-73.17870483166917
1702,-32.02032103854799
1703,-56.40489296483611
1704,-113.7125186170233
1705,-172.80329499297295
1706,-208.4673180727259
1707,-197.14468280934489
1708,-141.17548311967585
1709,-85.40981187512807
1710,-75.83776089242565
1711,-112.24942092432684
1712,-157.02488165034083
1713,-177.37423166742337
1714,-177.58755848063993
1715,-176.29494849382536
1716,-183.99648700021135
1717,-188.89225817304032
1718,-175.7323450561671
1719,-143.22682955462187
1720,-107.8957924251772
1721,-86.49931326688602
1722,-85.36747051159
1723,-104.4003414144263
1724,-139.5080020443038
1725,-169.5105272743731
1726,-168.677990772454
1727,-132.49046499147153
1728,-97.30802115986262
1729,-101.97072927195222
1730,-143.6186580783251
1731,-182.00187507618648
1732,-182.3504464996604
1733,-155.63443731014922
1734,-131.54391118657804
1735,-129.68893051571467
1736,-141.71955638238978
1737,-154.5658485597578
1738,-157.22786549950433
1739,-141.24566432206484
1740,-101.29930080677696
1741,-60.76882938209019
1742,-59.03430311567536
1743,-116.94577370457591
1744,-185.5132914652968
1745,-200.04690532393397
1746,-143.07666280622107
1747,-71.60261002759216
1748,-44.764791683228395
1749,-62.693251038079325
1750,-83.91802991686382
1751,-77.37916869406035
1752,-65.65670628387852
1753,-86.96068013019794
1754,-150.6111261965234
1755,-210.55807895588987
1756,-217.36157138075578
1757,-170.90163493290493
1758,-112.12829955328561
1759,-78.10159365189065
1760,-76.5815440975548
1761,-105.08817620779519
1762,-149.3415137385855
1763,-169.44157887415895
1764,-124.84839221675065
1765,-32.41197277635547
1766,38.097662039548595
1767,28.720496436289977
1768,-32.163483757702124
1769,-83.17429108056604
1770,-86.43193642667211
1771,-59.196429036270274
1772,-26.087776485113864
1773,0.8240153259175713
1774,21.468942181232705
1775,35.16700156093793
1776,34.1081926512943
1777,7.722516355133848
1778,-42.64002469762454
1779,-87.66942613952597
1780,-95.13568185507756
1781,-56.42878397019922
1782,14.751277158269659
1783,99.9745129531475
1784,157.89093662746382
1785,138.6405631950347
1786,38.73340948107398
1787,-43.610505867207394
1788,-3.7511623699720076
1789,129.8914622958946
1790,212.7973923074387
1791,133.80665370630413
1792,-16.16072559056738
1793,-78.9747157802376
1794,9.164714836955682
1795,129.73759986812365
1796,152.46397483858345
1797,82.88387720262108
1798,29.407346354273614
1799,71.56442363811766
1800,147.44515236009101
