800,156.36751691384325
801,167.91633169372744
802,190.54494298694954
803,216.45152869027515
804,232.1852662269912
805,224.20933255081673
806,186.32990414984033
807,137.69815705037854
808,102.92326682082785
809,105.98040857546766
810,148.60475697824495
811,204.66048624652922
812,246.2737701548158
813,249.62178203841995
814,222.47769479713588
815,187.4826808988464
816,167.3229123831352
817,175.34156086482835
818,201.21979753753567
819,230.955793177156
820,250.91171814533118
821,254.7097423929008
822,242.64303546330302
823,215.25876649595557
824,174.92310422959963
825,133.51621700563373
826,106.01527277137029
827,107.22543908333319
828,138.86388311045812
829,180.12677163730768
830,207.99927106722498
831,201.82954742549555
832,166.99776636243587
833,125.00309315649065
834,97.57169271727616
835,99.46272958861482
836,122.9743679515177
837,155.89777162714745
838,186.19710407977982
839,206.52652841967756
840,214.649207405997
841,208.5943034496322
842,187.24597861602524
843,154.70839462798176
844,117.0307128684235
845,80.26209438313344
846,50.906699883456895
847,36.30468974900214
848,43.88522403028219
849,79.65446245133899
850,133.34056441236316
851,184.29568899224432
852,211.7089949511228
853,203.58964073292373
854,175.75178446782957
855,149.48458397474678
856,145.30319676375075
857,165.19078003849427
858,192.20049069858396
859,208.52148534194566
860,200.72492026715372
861,178.51995147572416
862,159.2607346744153
863,160.08042527745783
864,184.88217840878679
865,216.64214890424955
866,236.48449131376765
867,228.22435990349004
868,199.21490865791566
869,168.98129128199253
870,157.12166120318034
871,174.32517157350594
872,209.88597527157071
873,249.96022490456562
874,281.34107281021716
875,300.2746710587544
876,310.2261714548149
877,314.8407255393395
878,316.86148459145807
879,315.7995996303107
880,310.4412214169006
881,299.65850045585466
882,284.58158699723026
883,268.7876310382362
884,255.95778232498014
885,249.01119035414558
886,246.8640043746891
887,247.12137338948196
888,247.4654461569353
889,249.6843711926158
890,261.59529677082355
891,291.49137092614
892,344.9757414549749
893,407.69855591708074
894,456.37696163702094
895,467.81710570565883
896,435.61713498158133
897,386.03019609253715
898,349.0824354368069
899,351.2839991846049
900,383.1340332794116
901,414.00968343931163
902,413.0510951583019
903,366.1524137075612
904,301.33178413672795
905,253.12035127514173
906,253.4342597330433
907,297.5636539027855
908,353.84067796000636
909,389.9654758647739
910,385.54119136272493
911,357.7279679861731
912,331.08494905519
913,329.1032776786833
914,355.1700967554316
915,394.7795489751079
916,432.80377681930077
917,455.62992256247344
918,455.4751282729394
919,425.9345358137962
920,361.45228684385256
921,276.9805228185214
922,208.7743849906965
923,194.0720144116258
924,256.6855519317269
925,359.97113820143204
926,450.2959136719619
927,475.4140185961096
928,426.8245930290177
929,347.2947768288923
930,282.52270965772914
931,268.6115309820143
932,292.926380073417
933,327.39639600941337
934,344.42071767397283
935,334.5074837581433
936,311.38883276066736
937,290.31390298857696
938,283.45283255772847
939,285.9237593933831
940,286.98582123069536
941,276.13815561526644
942,253.3908999035848
943,233.01519126354106
944,230.30516667484153
945,255.8989629294756
946,293.4537166321097
947,316.9255642004955
948,300.74064186584474
949,241.62408567318562
950,167.32503148173237
951,107.89161496518136
952,87.77197161202275
953,98.6132367258524
954,120.1585454256292
955,132.41403264593828
956,128.22483313721932
957,118.16408146599679
958,114.10091201508476
959,125.27145898377057
960,145.8558563879924
961,164.71223806047783
962,170.85573765089612
963,160.25448862597295
964,138.1096242695894
965,110.26927768288624
966,82.24158178429934
967,57.76666930965985
968,39.98967281219848
969,31.981724662584384
970,34.2199570489156
971,43.942501976731364
972,58.20049126896993
973,73.70005656593094
974,85.52032932522161
975,88.25744082168421
976,76.62052214730465
977,48.979704211104035
978,7.7911177390433295
979,-44.259106726145546
980,-102.4918388250826
981,-153.71594838190686
982,-182.47430540446476
983,-174.13778008450026
984,-132.7722427978606
985,-80.8295641047207
986,-41.56361474982623
987,-31.486265662731967
988,-42.86538795808519
989,-62.51685293589617
990,-77.56753208183909
991,-80.62829706755656
992,-68.89801975097907
993,-39.72557217668145
994,5.288173423785338
995,51.992344631527885
996,83.91306883992002
997,85.970473254225
998,61.11468489116487
999,24.7258305785399
1000,-7.5259630452383135
1001,-25.36056953158004
1002,-31.14786262216876
1003,-29.09771624944551
1004,-23.400004537088535
1005,-18.214601800516903
1006,-17.32138254738129
1007,-24.370221478115127
1008,-42.89099348644959
1009,-71.15357365997988
1010,-99.85783728070419
1011,-119.12365982561641
1012,-121.30091696728232
1013,-110.79948457443788
1014,-96.129238712605
1015,-85.65005564471176
1016,-82.64181183171786
1017,-84.44438393326527
1018,-88.04764880834409
1019,-90.8314835159581
1020,-91.89576531578496
1021,-90.78037166889953
1022,-86.95518023846671
1023,-78.60006889044234
1024,-62.71491569431964
1025,-36.219598923849844
1026,0.9360029421950458
1027,39.4520112192713
1028,68.15854701629178
1029,76.90573123484137
1030,69.10368456839751
1031,57.61252750150379
1032,55.48238030897846
1033,68.52336305508652
1034,86.01559559270027
1035,94.98919756245414
1036,84.54428839189677
1037,61.680987294621445
1038,42.439413269401484
1039,42.789685099283815
1040,65.98192135072713
1041,95.04624037265603
1042,111.14276029559369
1043,99.98159903069427
1044,72.31287426885137
1045,47.586703479708376
1046,44.673203910759185
1047,66.39249258634663
1048,97.98468630670868
1049,123.80990164699506
1050,132.5182549562869
1051,128.0998623565829
1052,117.89483974180803
1053,109.04330277679946
1054,105.68536689626671
1055,109.74114730377732
1056,123.09075897069852
1057,144.13431663517076
1058,163.65193480103153
1059,171.4437277367433
1060,159.4398094743501
1061,136.0302938083678
1062,117.03529429469381
1063,118.04492424953787
1064,143.5092967482742
1065,182.7885246243568
1066,224.21272046820013
1067,257.32199662602216
1068,276.8664651987492
1069,278.97623804082104
1070,260.3914267590899
1071,227.99214271162236
1072,196.80849700656472
1073,182.11060050094602
1074,190.96856379950805
1075,211.30249725351678
1076,228.29251095957625
1077,228.96871475841544
1078,214.18121823368529
1079,191.1901307107455
1080,167.2255612554527
1081,147.72761867291956
1082,135.81641150628639
1083,134.41204803548135
1084,144.60463627598074
1085,160.33428397754687
1086,173.841098622981
1087,177.67518742685024
1088,168.71665733421833
1089,146.90561501937373
1090,112.27216688455519
1091,68.45641905864613
1092,26.01847739589539
1093,-3.7015525253827946
1094,-11.773565404109831
1095,-3.407456217757499
1096,11.096879776336209
1097,21.59954703965559
1098,22.020649751180827
1099,10.210291806055466
1100,-15.791423185744861
1101,-54.19439190075718
1102,-93.21851130336836
1103,-119.44367864715787
1104,-121.41979147627171
1105,-103.62674762675306
1106,-78.25444522794169
1107,-57.442782703792545
1108,-49.621658774287425
1109,-58.54097245678713
1110,-87.63062306741449
1111,-136.06051022245447
1112,-188.4005338397128
1113,-226.12059413992938
1114,-233.0305916481575
1115,-216.8704271951865
1116,-199.44000191890882
1117,-202.43921726575536
1118,-229.79797499209235
1119,-259.2561771656365
1120,-266.4237261668695
1121,-235.81052469045972
1122,-187.01647574668277
1123,-148.32148266284457
1124,-145.3154490847228
1125,-171.85827897797935
1126,-201.0598766296098
1127,-205.99014664937204
1128,-181.25899397123067
1129,-155.86632385480152
1130,-161.852041886792
1131,-220.29605398245258
1132,-306.36826638702223
1133,-383.32858567718176
1134,-417.0869187625176
1135,-405.913172886967
1136,-369.6472556302888
1137,-328.3790749095042
1138,-294.50853898038076
1139,-268.2655564388915
1140,-248.79003622267737
1141,-236.87188761252037
1142,-239.7710202338003
1143,-266.3973440579848
1144,-323.36076940410203
1145,-391.91120694019264
1146,-437.54856768481113
1147,-426.16276300848403
1148,-356.3937046352021
1149,-273.8813046438954
1150,-227.90547546990638
1151,-249.69612990648056
1152,-307.93318110624386
1153,-357.77654258269285
1154,-359.58612821166025
1155,-321.24185223282075
1156,-275.95362925117297
1157,-256.4313742385002
1158,-270.7850025348944
1159,-297.6644298502124
1160,-313.9295722655752
1161,-306.18034623485437
1162,-287.5866685861547
1163,-275.8884565233111
1164,-284.9656276273563
1165,-302.55809985802625
1166,-305.5057915552443
1167,-272.1186214405989
1168,-210.89650861883456
1169,-158.18937257933248
1170,-151.27713319761096
1171,-202.95971073679175
1172,-276.94702584909646
1173,-331.0289995773255
1174,-333.46555335633275
1175,-301.6266090145291
1176,-267.1920887753422
1177,-259.16191525870636
1178,-274.2460114825317
1179,-288.1143008641975
1180,-276.4967072220188
1181,-235.4131547767247
1182,-188.6735681529317
1183,-162.07787238060519
1184,-169.8159928965506
1185,-191.47785554587244
1186,-200.29338658344386
1187,-174.4325126753629
1188,-125.77516090043173
1189,-80.2912587516148
1190,-62.740734137494655
1191,-75.02351538372932
1192,-99.16953123452186
1193,-116.61871085404891
1194,-117.1509838279544
1195,-105.20628016474802
1196,-86.72453029729331
1197,-67.7056650842369
1198,-54.279615811447
1199,-52.62631419346144
1200,-67.42569237492535
1201,-90.68768293201356
1202,-108.04221887387757
1203,-105.73923364406619
1204,-85.73866112195356
1205,-65.65043562416213
1206,-63.67449190597654
1207,-86.91076516277644
1208,-120.69919103142456
1209,-147.83970559170848
1210,-155.4122453677155
1211,-147.8267473292617
1212,-133.87314889326808
1213,-121.79138792519188
1214,-114.81140274037352
1215,-113.60313210546701
1216,-118.73651523979788
1217,-129.89149181675202
1218,-145.80800196517157
1219,-165.1859862706915
1220,-184.39538577713756
1221,-195.47614198788688
1222,-189.97819686722505
1223,-164.1214928416939
1224,-131.27597280146438
1225,-108.78158010166953
1226,-110.79825856374191
1227,-127.29595247677935
1228,-137.25460659885357
1229,-120.81416615834678
1230,-80.04457685527814
1231,-35.665784862623696
1232,-8.697736827638437
1233,-5.970379873155252
1234,-12.393661598887775
1235,-11.007530082748417
1236,7.988066117877679
1237,34.013177964825445
1238,52.79785593787892
1239,53.14215003348727
1240,40.546109763490676
1241,26.229784153849323
1242,20.773221743387694
1243,27.146470582531038
1244,43.53957823207202
1245,68.03259176189022
1246,97.34555774974251
1247,126.67852228003358
1248,151.1815309425583
1249,166.92462883130793
1250,171.7478605432425
1251,163.6912701770816
1252,143.414901332113
1253,120.73879710697292
1254,107.4430000984903
1255,113.05755240046165
1256,132.67249560251003
1257,155.66787078888956
1258,172.13371853735225
1259,181.23007891794077
1260,188.30699149189604
1261,198.66449531046965
1262,212.28262891380655
1263,223.20143032981287
1264,225.14093707303618
1265,217.06118614354273
1266,207.92221402581526
1267,207.78405668764935
1268,221.10674957906303
1269,234.19032763120413
1270,229.61482525527936
1271,195.39027634147897
1272,150.48671425791326
1273,124.82417184955557
1274,144.8926814371971
1275,201.61227481640344
1276,264.9729832564881
1277,305.55483749947234
1278,312.79786775908906
1279,293.8921037197633
1280,256.74757453560414
1281,209.90430882942928
1282,162.85233469177
1283,125.1516796798951
1284,102.87237081684725
1285,93.85443459048474
1286,94.66789695252373
1287,102.06278331760404
1288,113.45911856235398
1289,126.40692702446177
1290,138.93623250176643
1291,152.05705825134646
1292,167.97942698861516
1293,188.94336088644195
1294,217.16888157427093
1295,254.9260101372438
1296,304.06476711534197
1297,357.20517250253397
1298,398.2172457459237
1299,410.9110057449361
1300,392.4564708504622
1301,359.20365886408035
1302,328.9425870372088
1303,313.7532720703439
1304,313.4357301122636
1305,326.17997675924016
1306,349.9760270542811
1307,382.2138954863731
1308,420.15359598973373
1309,459.68514194306954
1310,489.74854616885204
1311,497.0438209326003
1312,471.13097794217356
1313,424.6300283470755
1314,381.1609827377597
1315,362.5838511449656
1316,366.1686430390455
1317,372.09536732930246
1318,360.96403236335937
1319,331.73464592651544
1320,301.68721524111606
1321,288.55174696596623
1322,295.92824719569035
1323,307.49672146016746
1324,305.48717472393946
1325,283.25961138565253
1326,256.29403527748036
1327,242.67044966459252
1328,254.51885724460953
1329,286.93926014708086
1330,332.0816599329646
1331,380.95605759413957
1332,420.1124535528943
1333,434.950847661461
1334,414.3412392015398
1335,367.5236268838471
1336,311.09800884767174
1337,261.04438266042416
1338,227.81274531724193
1339,219.0530932405527
1340,240.77542227969752
1341,278.3997277105318
1342,303.406004235052
1343,288.7542459810411
1344,242.14444650170662
1345,202.6865987753481
1346,209.49069520503508
1347,263.48672761829584
1348,320.00468726679355
1349,332.2745648260661
1350,289.3563503952373
1351,236.3500334967448
1352,223.0956030761081
1353,273.23304750166426
1354,356.71235456436807
1355,436.9335114775604
1356,485.73650487677696
1357,497.7213208195535
1358,471.2179447852559
1359,411.9763616749169
1360,351.69655581109146
1361,327.82851093771023
1362,365.41221021996535
1363,432.28763624420935
1364,479.84477101783705
1365,469.4635959692223
1366,422.50409194763233
1367,382.4962392231955
1368,385.76001748683484
1369,411.93540585024675
1370,414.11238284589126
1371,351.7509264269902
1372,250.55101396752616
1373,174.77262226228777
1374,183.99572752689528
1375,268.0403053978607
1376,366.91633093264863
1377,422.1337786097629
1378,422.24262232885667
1379,396.43283541080746
1380,374.48439059787233
1381,367.3172600538146
1382,366.24141536405114
1383,361.84682753583184
1384,351.46346699840797
1385,340.67130360324336
1386,335.5103066242009
1387,337.2504447577994
1388,340.3016861234173
1389,338.533998263576
1390,330.8573481441981
1391,324.7617021548922
1392,328.5470261092378
1393,344.52328524512996
1394,362.9904442250663
1395,372.8484671365368
1396,369.9873174923414
1397,366.51695823099
1398,376.82735171707463
1399,403.8784597416907
1400,419.81024352283566
1401,391.65266370586687
1402,306.27568036393495
1403,211.8292529984501
1404,168.26334053956816
1405,212.09790134669493
1406,297.50289320898446
1407,360.53827334587004
1408,355.59399840761216
1409,309.9700244758642
1410,269.1263070642326
1411,267.96280111887245
1412,294.44946101911046
1413,323.48624057804227
1414,335.90309304319453
1415,341.7499710971679
1416,360.09682685831285
1417,403.1236118814104
1418,445.56027715839446
1419,449.4667731190457
1420,387.65304963175186
1421,296.7190560042509
1422,236.72474098439852
1423,256.9600527609582
1424,337.7249389644003
1425,432.0693466677276
1426,498.28322238730834
1427,531.1665120837297
1428,540.8091611626642
1429,538.1511144757533
1430,539.8523163215286
1431,565.1427104463073
1432,628.8922400451538
1433,712.4908477628178
1434,781.8884756947027
1435,808.205065387876
1436,804.3805578420524
1437,803.3848935106289
1438,833.3780123017259
1439,881.8498535792332
1440,916.3603561639047
1441,909.119458334435
1442,872.5070978285803
1443,838.9732118442735
1444,837.0377370407841
1445,860.870609539872
1446,887.3217649269791
1447,895.7811382524087
1448,888.0486640325689
1449,877.1842762511769
1450,874.3379083605396
1451,873.679493282807
1452,860.9789634112603
1453,824.4762506116349
1454,773.3012862234245
1455,726.8240010612335
1456,701.7243254161458
1457,692.6321890570816
1458,683.6975212322304
1459,661.0802506704222
1460,626.7303055826087
1461,589.8576136632837
1462,558.4421020919672
1463,530.9936975346845
1464,501.862326145505
1465,467.77791356802845
1466,441.8703849369631
1467,444.04966487967795
1468,486.3956775177885
1469,530.8483464687506
1470,519.6975948475065
1471,410.1433452680976
1472,247.49551984534446
1473,109.21404019651163
1474,57.82882744301605
1475,75.08980221213642
1476,115.59688463875682
1477,140.53999436711638
1478,143.67905055259143
1479,128.73397186347574
1480,99.67467648281126
1481,61.751082110216885
1482,20.50310596372401
1483,-16.55933521832594
1484,-34.27632517539496
1485,-15.597948122866
1486,44.31571124994298
1487,107.63456778167165
1488,127.16853584093587
1489,76.08752932828247
1490,-9.82853832177534
1491,-82.73975413873814
1492,-109.12620561406948
1493,-93.77798069912751
1494,-47.89516780305894
1495,12.292144209284743
1496,58.853866019504494
1497,62.35990785779177
1498,16.49017950509733
1499,-38.525409704663616
1500,-57.266950882418314
1501,-25.494535581676246
1502,17.161744203689523
1503,26.35179604174664
1504,-8.404472935229933
1505,-47.62715602840581
1506,-48.7163469700954
1507,-1.1721399213765835
1508,65.3353705302743
1509,119.31608937339843
1510,148.5799211749345
1511,161.23677008269624
1512,166.0265398278225
1513,164.11913372724302
1514,150.0244546861977
1515,118.73240520074978
1516,75.45288736034126
1517,32.8658028503487
1518,2.771052954671177
1519,-14.491461441661158
1520,-25.411839849848548
1521,-35.880182174687434
1522,-45.69658871188403
1523,-51.69116014537394
1524,-51.633997544589874
1525,-49.345202361750125
1526,-50.994876429069336
1527,-61.42312195601153
1528,-79.02004152646077
1529,-100.17573809592068
1530,-120.98031498865203
1531,-136.3738758948184
1532,-140.9965248675926
1533,-133.38836632025595
1534,-123.17950502324493
1535,-122.05004610121614
1536,-133.440095030066
1537,-142.5697576339444
1538,-132.33914008219472
1539,-100.43834888636229
1540,-70.05749089709934
1541,-66.2766733010867
1542,-90.76600361792407
1543,-114.15558969700214
1544,-106.14553971434543
1545,-65.3859621694337
1546,-19.88696588201674
1547,2.4613400111211376
1548,-4.251153940600489
1549,-28.974557498298964
1550,-59.84898073033219
1551,-81.88453400899198
1552,-78.23132800716849
1553,-35.999473694995686
1554,29.60091766352889
1555,91.22973451395228
1556,125.70686501477212
1557,130.63219704090443
1558,110.04561818714683
1559,69.2570157716691
1560,18.08627683953273
1561,-32.66671183377548
1562,-74.39206373876368
1563,-103.91989262836978
1564,-118.94031251434717
1565,-120.97343766361337
1566,-118.25938259462782
1567,-119.59826207368314
1568,-128.23019111122085
1569,-140.35528495810286
1570,-151.71365910185523
1571,-157.21542926290022
1572,-151.09071139076696
1573,-128.58962166025776
1574,-97.54227646762047
1575,-73.81879242666764
1576,-70.80928636489989
1577,-82.81387531958171
1578,-95.57267653380586
1579,-96.65580745253646
1580,-82.65338571861867
1581,-52.835529168769426
1582,-9.32235582955218
1583,36.87601608669502
1584,72.98946818592776
1585,88.06788189650251
1586,75.11113847331399
1587,28.009119001935687
1588,-39.60829559718877
1589,-86.03122456456185
1590,-70.06978729738148
1591,-8.0741033453196
1592,28.10570759377515
1593,-27.530474321829388
1594,-145.4827690734419
1595,-234.40129677757068
1596,-217.16617768158358
1597,-123.23753215928082
1598,-27.29548070650162
1599,13.26985606334165
1600,16.08835742372321
1601,18.919902539499162
1602,45.374370471434304
1603,81.22164018073636
1604,106.05159053363604
1605,108.04410030596591
1606,89.95904818779309
1607,56.356312788064315
1608,23.105772639246425
1609,18.41730620206181
1610,67.44079187018178
1611,146.71610797496396
1612,198.48313279023387
1613,174.5517445370897
1614,102.17182138868338
1615,41.99324147510015
1616,40.67588288821935
1617,84.54962368658926
1618,143.86434190037653
1619,192.46991553628504
1620,213.38622258254873
1621,191.36314101390417
1622,129.39054879662945
1623,58.52832389358264
1624,11.38634426927456
1625,1.3644878949708072
1626,23.662632753805156
1627,71.99065684594461
1628,132.72843819374611
1629,187.98585484696196
1630,222.74278488797427
1631,238.40910643703683
1632,241.9946976575593
1633,239.08943676140007
1634,230.6732020142099
1635,216.84587174077024
1636,196.61732433038924
1637,167.04743824230172
1638,125.57609201109699
1639,85.29316425219258
1640,75.88853366729563
1641,123.9220790499403
1642,211.37367929100583
1643,292.1632133842868
1644,328.40056043209006
1645,332.49559965082335
1646,334.81821037668306
1647,354.1582720712777
1648,373.0756643273435
1649,367.3602668744661
1650,336.1919595848249
1651,319.1306224789678
1652,357.52613573161034
1653,440.10837967746374
1654,503.5772348170831
1655,490.5825818227622
1656,423.83430154441703
1657,371.09227501554597
1658,381.09638345916755
1659,407.26650829382015
1660,374.1425311395669
1661,250.40433382404444
1662,116.87179838852171
1663,70.29480709400377
1664,130.01324242734518
1665,208.48698710739336
1666,216.28592409118392
1667,154.4499365801057
1668,93.28890802617025
1669,93.72272213824544
1670,141.3212628883357
1671,190.57441451790146
1672,205.6020615441921
1673,183.0140887666148
1674,126.30038127311491
1675,47.13082444660722
1676,-28.67469602858182
1677,-75.11629416025426
1678,-91.00408364181385
1679,-98.04817784576153
1680,-115.46868981712578
1681,-134.95573226688794
1682,-134.7794175653744
1683,-102.98985773560344
1684,-65.88716444663442
1685,-58.87144900687235
1686,-96.23282235734769
1687,-151.8813950649601
1688,-195.81727731571482
1689,-212.39057890790536
1690,-200.21140924530664
1691,-160.72987733028458
1692,-114.62609175692887
1693,-92.41016070414298
1694,-115.95219192868171
1695,-172.90229275820639
1696,-242.50057008425938
1697,-302.7171303552659
1698,-329.2520795694618
1699,-299.25552326781144
1700,-227.02756652691278
1701,-162.06831395184417
1702,-148.32786966900494
1703,-174.81633731892362
1704,-204.63382004902996
1705,-211.96042050640972
1706,-210.3562408305188
1707,-221.71138264588626
1708,-248.62594705477568
1709,-262.07003462982175
1710,-232.6337454066288
1711,-173.54717887636798
1712,-132.5004339783245
1713,-148.65360909240553
1714,-201.2868020316564
1715,-246.59011003471824
1716,-256.62362975825454
1717,-247.05745726938403
1718,-240.53168803804147
1719,-240.2464169293453
1720,-224.56173819590185
1721,-173.6877454701189
1722,-105.8945317564685
1723,-62.85218942372012
1724,-75.73081019715028
1725,-127.72048515071583
1726,-188.90130469923497
1727,-235.31335859047067
1728,-254.53673589724713
1729,-236.71152500951393
1730,-195.6878136263822
1731,-166.60568874811906
1732,-177.47523666814777
1733,-203.75654296498215
1734,-199.37969249413982
1735,-141.444769380063
1736,-71.05185700794937
1737,-39.201038015604354
1738,-59.28239428523739
1739,-98.62600693524473
1740,-125.0819563119403
1741,-139.0603219812947
1742,-159.10118272060572
1743,-192.93461651015969
1744,-207.10070052487208
1745,-159.21951112586794
1746,-53.96112385207198
1747,29.804386588264606
1748,14.136946326041652
1749,-79.22351766016618
1750,-158.3270775355668
1751,-151.32380460057357
1752,-89.36376928219215
1753,-33.9070411253997
1754,-22.203688784467886
1755,-45.12378001427169
1756,-88.06738166157265
1757,-133.2945596562622
1758,-160.43537900256706
1759,-154.3899037702522
1760,-130.2581970857791
1761,-113.63032112341534
1762,-118.59633709635818
1763,-134.01630524778193
1764,-146.0702848418914
1765,-154.6783341549235
1766,-172.41051046612665
1767,-206.88687004871645
1768,-231.81746816078703
1769,-208.05235903620996
1770,-127.76159587548318
1771,-56.29523083657659
1772,-65.78331502571564
1773,-145.9958984881614
1774,-207.3630301989415
1775,-175.39475805358052
1776,-93.29112885875475
1777,-50.212188322957445
1778,-87.81798104711197
1779,-136.27855051517508
1780,-113.15393908467195
1781,-8.534187977247711
1782,118.92066273084492
1783,211.6305741182623
1784,235.53550842815275
1785,165.53542907773772
1786,16.430300667921983
1787,-109.5399110070357
1788,-105.34523894985614
1789,8.724285049489481
1790,101.17863042350473
1791,66.5877678369543
1792,-38.77833080333767
1793,-104.79969233865631
1794,-78.77634234851939
1795,-19.148305140795856
1796,6.974396258221532
1797,-7.498259886215237
1798,-24.20629400733742
1799,-15.169725226838636
1800,-4.1985713448175375
