800,132.53354017942183
801,123.77504739221877
802,112.92976597690358
803,101.5979105374463
804,91.63969542469567
805,84.8953347349925
806,82.79504230881503
807,85.19903172939121
808,91.64751632134539
809,101.7007091493233
810,115.26882301664409
811,132.72207046393123
812,154.4506637677605
813,180.13481493931613
814,203.7647357230253
815,216.71063759522985
816,210.31273176283867
817,182.10122916197724
818,145.24634045666426
819,115.33827603747523
820,107.36724602019785
821,124.15346024452447
822,157.28712827271738
823,197.97845938828505
824,237.4876625946672
825,267.4549466139215
826,279.6505198853956
827,265.94459056444066
828,226.5073665210839
829,175.81905533873942
830,129.74986431289472
831,103.04000044982058
832,97.75967046527512
833,108.1790807832167
834,128.4484375344946
835,152.68794655559577
836,174.97781338732602
837,189.33824327355615
838,190.06944115994156
839,177.29161169262989
840,157.5349592170187
841,137.67968777645183
842,123.71600111099178
843,116.67410265612489
844,115.65419554152868
845,119.7964825897925
846,128.08116631518897
847,139.29844892239453
848,152.17853230526816
849,165.4616180455905
850,177.80790741183228
851,187.81760135791046
852,194.08090052195257
853,195.70800522506943
854,193.4291154701168
855,188.25443094048387
856,181.2841509988466
857,175.1184746859708
858,173.86760071948265
859,181.74172749265017
860,201.47105307318816
861,228.15577520202532
862,254.38609129211727
863,272.8021984272491
864,280.1942933608061
865,279.88257251460345
866,275.8172319776968
867,271.55846750515957
868,267.8264745169272
869,263.791448096601
870,258.6535829902532
871,253.53307360527833
872,254.23011400918585
873,267.23489792844157
874,298.23761874730553
875,341.6384695066499
876,383.17764290279956
877,408.385331286383
878,407.3717266611493
879,386.68702068284074
880,356.6214046580262
881,327.26506954294746
882,304.5882059423875
883,290.08100410851694
884,285.0236539397574
885,290.0163449796455
886,302.19926641569145
887,317.5626070782637
888,332.17655543944056
889,345.2812996119028
890,360.78702734780563
891,382.98392603765024
892,415.17218270918784
893,453.5619840262807
894,491.10351628781973
895,520.7869654265978
896,538.2025170082052
897,544.0203562299484
898,539.4906679197338
899,526.153636534973
900,508.479446161502
901,492.6982805124844
902,485.02032292732474
903,487.9957563705884
904,494.92476343092676
905,497.6575263199866
906,488.7242268713544
907,469.75504653946155
908,449.10016639854985
909,435.26976714156626
910,434.3640290791409
911,444.90313213849913
912,463.9372558624218
913,488.3365794081892
914,512.2612815465236
915,527.3615406605568
916,525.2375347447723
917,500.81944140397354
918,461.8274378522565
919,419.06170091194144
920,383.1424070125868
921,360.17973218991756
922,351.62385208484375
923,358.6749419423959
924,381.34317661073146
925,414.0287305401198
926,449.5617777819152
927,480.82249198755744
928,501.5710464075655
929,506.617613890523
930,490.8423668820924
931,452.4054774240067
932,406.2071171530897
933,372.4074573002399
934,370.73666868946384
935,402.3449217368834
936,444.65238644975216
937,473.5092324254856
938,469.94562885067717
939,443.5517445001169
940,413.75774773584453
941,399.67380650616724
942,406.5400883446964
943,420.8567603693955
944,427.7239892816233
945,414.9719413651601
946,386.0207824852914
947,349.9006780878244
948,315.54179319817194
949,287.05429242039827
950,261.8383399362774
951,236.8040995043666
952,209.93173445906723
953,185.38140770970858
954,169.6032817396026
955,168.87751860514618
956,182.05427993486956
957,197.71372692855584
958,203.7060203563069
959,190.6313205576298
960,164.9397874405513
961,138.7015804806997
962,123.79685872039408
963,124.0957807677787
964,132.87850479589906
965,142.69518854182934
966,147.2959893057723
967,147.0510639501863
968,144.4805688989054
969,142.06466013624959
970,140.16349320615882
971,136.45722321132052
972,128.47600481230256
973,114.18999222668754
974,93.79933922820965
975,68.20419914590639
976,38.304724863237425
977,5.851068817266423
978,-26.416617002209023
979,-55.72818105348779
980,-79.31347224383353
981,-94.48233993028043
982,-98.5446339204882
983,-89.02020447357063
984,-67.67890230091871
985,-40.46057856704647
986,-13.535084890372673
987,8.037726655915321
988,23.068003543074155
989,31.235892785980468
990,32.281540942336505
991,27.09509411183717
992,17.48669793539557
993,5.336497594331377
994,-6.635362190427259
995,-13.108737159125667
996,-8.313483513989922
997,12.640542080014711
998,43.1834824943744
999,68.80548013626321
1000,74.8366769477725
1001,54.43721440511399
1002,19.237233517880668
1003,-16.483125171735082
1004,-38.43372158969942
1005,-34.764416130901736
1006,-10.255069659895526
1007,23.484456488336946
1008,54.87430050763396
1009,75.45460011992873
1010,81.19549257448489
1011,68.44711464717875
1012,35.51960263974797
1013,-8.446907620942511
1014,-50.67228078359949
1015,-78.60638197325352
1016,-88.15907679197517
1017,-85.16023131958354
1018,-76.00971211436445
1019,-65.9473862137911
1020,-55.33312113520333
1021,-43.236784876542515
1022,-28.838245917035238
1023,-13.767373217890054
1024,-1.8340362229992024
1025,3.0118951403910614
1026,-0.26944953903148416
1027,-3.657941157311143
1028,2.6165489041013643
1029,27.164148777659648
1030,62.634986109060264
1031,90.5691880565646
1032,92.28688129034526
1033,61.06819199182064
1034,17.29324585298491
1035,-14.887831924208513
1036,-14.374916628548817
1037,13.642115959826697
1038,50.653389568768034
1039,78.18902743347826
1040,87.58915229588092
1041,85.88388640398989
1042,81.51335151126295
1043,81.67766887600555
1044,86.63695926071705
1045,94.30134293150513
1046,102.55093965744891
1047,109.83586870998988
1048,115.1762488623408
1049,117.64219838886856
1050,116.65383506449143
1051,112.92127616410653
1052,107.4646384619682
1053,101.17403823111817
1054,93.02959124279369
1055,80.72141276585171
1056,61.889617566184825
1057,37.44431990616067
1058,15.535633544028315
1059,5.233671733385563
1060,13.708547222579
1061,33.950372254179456
1062,52.429258564403426
1063,55.87531738258258
1064,42.988659430591724
1065,28.58939492232639
1066,28.627633563153722
1067,53.96348454938561
1068,93.91705656773047
1069,132.0884577947745
1070,152.7577958964721
1071,151.0851780275898
1072,130.98071083122522
1073,96.65450043828059
1074,53.61665246694065
1075,10.477272022193574
1076,-23.693536304690497
1077,-40.90566843665147
1078,-41.26902081132721
1079,-28.65349038155
1080,-6.9889746158278285
1081,17.344628501175976
1082,34.80742046816158
1083,35.649502266705895
1084,15.050974360823602
1085,-12.758063303524978
1086,-29.00751129888522
1087,-16.807270716773928
1088,15.372756831886363
1089,41.13266921628383
1090,33.822563785306556
1091,-14.607462632919123
1092,-76.46731373146577
1093,-119.92689372503264
1094,-120.0161073503823
1095,-91.36485986675507
1096,-62.8730570563057
1097,-62.300605224512765
1098,-91.41741120059305
1099,-126.34338233790913
1100,-142.1084265143818
1101,-124.63245213288792
1102,-88.81536812165359
1103,-54.33708393465167
1104,-39.12750955199408
1105,-46.71655548031231
1106,-73.68413275313469
1107,-116.45015293127653
1108,-166.37452810318973
1109,-208.52717088536338
1110,-227.54799442265903
1111,-214.5869123886805
1112,-182.9138389861364
1113,-150.47868894718704
1114,-133.99137753378272
1115,-137.1918205380298
1116,-156.1799342825052
1117,-186.88563562060517
1118,-220.91884193686928
1119,-243.53947114731818
1120,-239.45744169975296
1121,-201.6526725741005
1122,-155.61508328270975
1123,-134.87459387066156
1124,-169.231124916083
1125,-244.25459753043287
1126,-316.5649333588117
1127,-342.75205458025266
1128,-308.7358839080025
1129,-247.26634458979788
1130,-195.32336040817427
1131,-181.6368556806974
1132,-200.6467552602735
1133,-237.882984535383
1134,-279.1354694303682
1135,-313.42413640567065
1136,-331.92891245809005
1137,-325.97972512104207
1138,-295.90650246478253
1139,-256.21917309666424
1140,-222.6676661613601
1141,-207.79191134109897
1142,-211.20183885588813
1143,-229.3173794637387
1144,-257.95846446088035
1145,-286.15502568196825
1146,-298.7569955002946
1147,-280.86430682800346
1148,-234.23689311626367
1149,-184.53468835548847
1150,-159.29762707550435
1151,-175.48564434575383
1152,-213.53867577546043
1153,-245.98665751381304
1154,-248.53952625013517
1155,-226.2072192140513
1156,-199.55967417564352
1157,-188.86682944562563
1158,-199.35862387546513
1159,-218.2349968575636
1160,-231.61588832537382
1161,-231.891238753562
1162,-228.68098915811606
1163,-234.53508109650102
1164,-258.9334566677553
1165,-290.5060585126339
1166,-309.2028298137084
1167,-296.1237142954906
1168,-255.95865622451856
1169,-215.19760040947585
1170,-201.06049220127716
1171,-222.27727749316
1172,-250.48790272076621
1173,-252.83231486224395
1174,-206.94046143829655
1175,-139.3022905122707
1176,-90.65775069021765
1177,-97.90679112095677
1178,-151.559361496129
1179,-211.8654120502615
1180,-239.11489356078891
1181,-220.49775734812465
1182,-179.99395527567867
1183,-144.3034397498941
1184,-132.01616372028911
1185,-137.8520806794495
1186,-152.10114466307095
1187,-165.85331024996776
1188,-175.6685325620656
1189,-180.39676726442667
1190,-178.86797056522119
1191,-169.56209921574555
1192,-150.67911051038755
1193,-120.42896228661994
1194,-81.5116129249891
1195,-44.41702134904517
1196,-20.485147025365222
1197,-18.32594996347325
1198,-36.27939071581204
1199,-70.30543037769894
1200,-115.13403058725453
1201,-155.3951535253691
1202,-170.59876191561852
1203,-141.35481902419997
1204,-74.2632886598658
1205,-1.8941351738321828
1206,42.22267654029565
1207,41.057181046622645
1208,10.109412367053665
1209,-31.400596018607757
1210,-66.58281117255137
1211,-88.13720069883675
1212,-91.2137327433029
1213,-72.50237599342836
1214,-42.14309967820191
1215,-17.28587356799835
1216,-14.280667974442622
1217,-30.597453750257046
1218,-45.02620228911837
1219,-35.68688552550702
1220,4.060524065460413
1221,52.346053468188984
1222,84.18972912678146
1223,82.18157694520232
1224,56.98162228747606
1225,25.759889977867715
1226,4.006404301058865
1227,-5.208810997626642
1228,-4.495732712046447
1229,3.5656618249959138
1230,17.435394741934942
1231,36.503487628682706
1232,60.129961536866176
1233,84.70483698001954
1234,102.04813393385302
1235,103.61987183648853
1236,85.89006958870232
1237,59.748745554172274
1238,38.65591755975947
1239,34.19160289574393
1240,47.485818316123186
1241,76.1085800388646
1242,117.09990374619701
1243,161.71980458490725
1244,197.57829716661763
1245,212.61539556809475
1246,205.24111333154906
1247,185.35546346495357
1248,163.4684584423485
1249,147.9701102041745
1250,143.3104301575895
1251,153.44942917681328
1252,178.82711760346683
1253,207.55350524690766
1254,225.08860138458658
1255,219.72241476241106
1256,198.0749535950963
1257,173.94622556655122
1258,160.45623783023257
1259,161.584997009546
1260,175.08250919821694
1261,198.5287799607031
1262,228.04381433256276
1263,258.0876168208906
1264,283.02019140471566
1265,298.80154153541844
1266,304.42167013715334
1267,299.2105796072792
1268,284.2782718167964
1269,266.5447481107876
1270,254.11000930885166
1271,253.12405570559167
1272,258.4568870710391
1273,261.0385026511358
1274,253.18890116820148
1275,242.11808082142124
1276,243.7360392873161
1277,272.98277372024313
1278,321.4482807528948
1279,358.72255649679573
1280,353.9455965428115
1281,300.7773959616643
1282,229.5479493044677
1283,173.5472506032329
1284,153.84529337142885
1285,162.10207060450193
1286,185.60757478043524
1287,212.79179786029454
1288,236.37473128880083
1289,250.13636599487654
1290,249.47669239224342
1291,240.23570037998616
1292,232.42337934313582
1293,235.53971815327714
1294,252.66470516913614
1295,282.95832823717865
1296,325.2105746922425
1297,372.8714313581422
1298,414.26088454830096
1299,437.6089200663646
1300,437.84552320686817
1301,419.41067875585577
1302,387.5143709915501
1303,350.16658368498975
1304,321.46730010072133
1305,316.29650299744935
1306,343.2741746287138
1307,390.24029674359554
1308,440.7348505873779
1309,479.98781690228134
1310,501.8791759281212
1311,503.1089074030715
1312,482.1569905643428
1313,451.953404148926
1314,432.3281263943227
1315,441.5511350392808
1316,476.2124073245395
1317,517.8519199935909
1318,548.229649293422
1319,562.2155709752969
1320,567.6996602955314
1321,573.0318920162536
1322,581.1422404062141
1323,587.3606792415649
1324,586.4771818066693
1325,576.5417208948984
1326,562.1242688094608
1327,548.5747973642192
1328,540.0232778845129
1329,537.0296812079996
1330,539.5639776855041
1331,547.2061371818581
1332,557.9961290767642
1333,569.5539222656589
1334,580.1394851605819
1335,591.6227856910646
1336,607.1637913050017
1337,629.5224689695606
1338,657.6487851720613
1339,688.5927059209116
1340,719.0041967464913
1341,740.613222702108
1342,741.7997483648924
1343,711.8537378367673
1344,659.0451547453613
1345,608.7839622449901
1346,586.5201230175917
1347,597.8235992737045
1348,624.5143527534365
1349,647.1423447274574
1350,655.1875359979695
1351,652.0098868997175
1352,642.199357300984
1353,631.775906604611
1354,629.6994937489999
1355,645.2800772091596
1356,677.827614997721
1357,699.9120646659994
1358,679.6133833050135
1359,601.7815275465746
1360,510.1864535643199
1361,461.61811707480956
1362,496.2464733385914
1363,577.8714771612958
1364,648.2430828947163
1365,659.551244437931
1366,626.3159152383978
1367,586.1370482930815
1368,571.8445961495709
1369,578.5885109072224
1370,583.9287442182886
1371,567.765247289075
1372,534.9579708810998
1373,504.91686531225787
1374,495.9718804579752
1375,509.53296575241075
1376,534.9000701896457
1377,561.1531423248653
1378,577.7021302755638
1379,574.2669817227707
1380,541.4076439122546
1381,489.85406365576637
1382,451.2361873322643
1383,457.28396088915906
1384,507.6573298435742
1385,562.436239283601
1386,579.7806338695573
1387,547.1704578352856
1388,494.93565498941825
1389,456.55616871667735
1390,447.2619419791845
1391,451.02291731775404
1392,448.7790368532169
1393,432.5702422877548
1394,416.6064749062225
1395,417.727675577491
1396,443.02378475580554
1397,476.87474248213766
1398,500.5004883855636
1399,503.5709616846143
1400,498.6661011886972
1401,502.10584529944754
1402,522.3001320121602
1403,543.0388989171806
1404,543.3820832013407
1405,511.6596216493581
1406,468.8314506452971
1407,443.0275061739976
1408,454.35772382252617
1409,491.00203878164393
1410,533.2203858472658
1411,564.142699421951
1412,579.7689135163655
1413,579.6689617508164
1414,565.2527773567017
1415,546.9002931780742
1416,537.7714416731287
1417,547.3361549157307
1418,564.8743645969917
1419,572.8860020267675
1420,557.6309981352388
1421,527.8992834744768
1422,500.77078822001204
1423,491.0254421724112
1424,498.8431747588729
1425,518.6339150348322
1426,544.4575916855556
1427,568.1841330277821
1428,580.7234670113157
1429,575.0255212206957
1430,558.8202228768114
1431,546.3474988385751
1432,549.9872756045861
1433,567.5194793147857
1434,589.9540357521419
1435,608.96087034435
1436,621.5699081655348
1437,627.3410739379306
1438,626.3342920336236
1439,622.3994864762717
1440,621.2465809428413
1441,627.7554987653402
1442,639.8061629325894
1443,651.7484960919737
1444,658.942420551215
1445,665.5478582801552
1446,680.1547309125544
1447,709.7929597478851
1448,748.202465753131
1449,782.3931695646261
1450,799.8249914898734
1451,791.9978515093771
1452,752.4316692784996
1453,678.2063641293189
1454,595.481855072474
1455,544.6580607990745
1456,559.3748996825634
1457,618.9222897806067
1458,676.7001488370188
1459,691.7783942836631
1460,668.0069432423734
1461,629.7557125268977
1462,598.88461864483
1463,577.9735777995684
1464,561.1125058922826
1465,543.0513185238742
1466,523.279930996965
1467,503.23825831788963
1468,484.35621519869164
1469,467.8537160591477
1470,454.88067502876766
1471,445.75700594884984
1472,435.9626223744908
1473,419.1874375766711
1474,391.2813645442893
1475,359.56431598625204
1476,335.246204333529
1477,325.9769417412699
1478,321.97644009089163
1479,308.15461099219647
1480,274.1513657854757
1481,230.65661554366307
1482,194.19027107445436
1483,177.48224292248233
1484,178.202441371448
1485,190.3407764463227
1486,205.84715791551025
1487,209.7314952930301
1488,185.46369784075432
1489,127.49367457058725
1490,64.0913342466938
1491,30.006585387740415
1492,44.15933626914375
1493,82.92949492530533
1494,115.6569691518871
1495,123.23166650808889
1496,113.39349431892151
1497,97.70235967751432
1498,84.97816944741135
1499,78.5208302648989
1500,80.9002485413148
1501,88.90633046540097
1502,89.41898200564538
1503,68.56810891264831
1504,26.593616721465878
1505,-15.424589245976676
1506,-35.17660387851538
1507,-26.152522273341674
1508,-1.5524397335866524
1509,24.22354823409296
1510,39.77534592194934
1511,36.792857423599344
1512,7.995986636469752
1513,-37.03536273573991
1514,-73.8512871805815
1515,-79.1818833743564
1516,-53.51724817963077
1517,-14.777478642728965
1518,19.597328008798286
1519,41.74707436869721
1520,49.56166285455765
1521,41.770995710359784
1522,22.98497500904341
1523,0.753502655079501
1524,-18.5835196129392
1525,-36.34619021970502
1526,-56.82460775058098
1527,-81.52887094898688
1528,-98.13907871376432
1529,-90.15533009655155
1530,-49.98772429908786
1531,-3.916360670600625
1532,13.758661294907142
1533,-14.69275803868004
1534,-58.830718446855826
1535,-79.61531984184148
1536,-58.16666226979396
1537,-20.64484590813663
1538,0.8800289372284169
1539,-9.19213816534284
1540,-38.14144777046931
1541,-70.60800055296204
1542,-97.49189730503349
1543,-118.02323893349603
1544,-131.94212645695916
1545,-137.96866100298394
1546,-133.83294380526604
1547,-117.77507620078359
1548,-96.52515962691541
1549,-83.41329561861312
1550,-90.09958580547573
1551,-109.50413190887775
1552,-123.71703573905688
1553,-117.29839919218648
1554,-93.6683242474628
1555,-64.28691296415491
1556,-39.734267478637776
1557,-25.86049000145249
1558,-27.035682814297616
1559,-45.469948267065774
1560,-75.57338877482835
1561,-110.08610681482605
1562,-141.27820492343199
1563,-160.2697856931336
1564,-158.1009517694656
1565,-134.45180584795344
1566,-104.15245067104297
1567,-83.35298902500836
1568,-78.67352373685026
1569,-84.66415767120088
1570,-95.23499372718106
1571,-106.49613483526628
1572,-116.57768395416315
1573,-123.79974406762813
1574,-127.79241818128685
1575,-129.04580931947385
1576,-128.24002052202195
1577,-127.3251548410517
1578,-128.7913153377467
1579,-134.41860507913225
1580,-142.46712713482157
1581,-150.11698457374405
1582,-153.65828046089882
1583,-146.54111785403802
1584,-121.67559980040824
1585,-79.93182933339449
1586,-38.919909469244885
1587,-18.149943203698058
1588,-26.23203350865697
1589,-56.26628332882137
1590,-99.90279557830945
1591,-142.6616731372833
1592,-164.21301884853528
1593,-146.42693551409138
1594,-100.1835258917763
1595,-55.18289269177512
1596,-36.82513857318736
1597,-38.750366140571714
1598,-41.058677940443886
1599,-29.81017645781867
1600,-16.97496411267275
1601,-21.423143256468393
1602,-49.66481616860074
1603,-75.12008505285121
1604,-66.05905203383918
1605,-16.65181915347057
1606,34.93151163267066
1607,47.68083845889487
1608,21.626059553031155
1609,1.8070732400428824
1610,31.40377794565211
1611,98.81607220000114
1612,153.80385464130632
1613,153.7870240195316
1614,118.20547920009085
1615,93.97911916751582
1616,114.67784302920882
1617,156.50155001914572
1618,180.36013950163579
1619,164.1435109750546
1620,128.66156407563358
1621,101.21419858123045
1622,95.21131441513353
1623,102.7728116498638
1624,114.45859051100524
1625,127.27855138102859
1626,144.32259480316498
1627,168.49062148524717
1628,198.32253230360584
1629,229.75822830695142
1630,258.67761072028225
1631,280.6005809488033
1632,290.93704058187177
1633,288.4068913969204
1634,281.9300353634517
1635,282.3663746469865
1636,293.6558116130527
1637,307.3582488312295
1638,314.23358907910915
1639,317.8117353463658
1640,335.252590838787
1641,381.87605898235233
1642,444.6020434272814
1643,492.550448052134
1644,500.4211769679205
1645,477.2141345222153
1646,444.1892253032838
1647,419.126354144224
1648,408.7654261271473
1649,417.6863465873266
1650,444.39902111740594
1651,476.9233555715964
1652,502.3792560698894
1653,510.1566290022947
1654,491.96538103309103
1655,442.2654191050842
1656,381.5666504438759
1657,345.0289825621621
1658,358.5023232640433
1659,401.54658064932846
1660,439.681663117899
1661,449.49747937402026
1662,435.77393843073514
1663,407.70094961422546
1664,373.6784225682295
1665,341.0162672584229
1666,316.6843939768514
1667,303.46271334638914
1668,300.9411363251511
1669,307.4595742110141
1670,313.71793864605024
1671,307.17614162106656
1672,280.70409548008683
1673,245.1017129248903
1674,214.79890701957447
1675,196.4455911950845
1676,183.2316792538095
1677,167.27708537415674
1678,146.2717241151713
1679,122.99551042113853
1680,100.68835962623598
1681,84.5701874591723
1682,80.8609100478534
1683,91.8504439240769
1684,104.79870602821757
1685,103.34561371393102
1686,80.58108475290283
1687,47.58503733956786
1688,17.13739009589517
1689,-5.751937923854712
1690,-23.773027228349747
1691,-39.685957884359595
1692,-53.76080951193762
1693,-65.03766127959534
1694,-73.02659189945007
1695,-79.00767962234568
1696,-84.75100223297159
1697,-92.03663704497376
1698,-102.68466089602043
1699,-118.20515014289413
1700,-133.07818065651554
1701,-135.1238278170149
1702,-114.83216650871873
1703,-85.45327111516781
1704,-71.0572155141308
1705,-87.17407307252506
1706,-119.37391664141978
1707,-146.7968185509544
1708,-158.72285060526156
1709,-161.13208407740058
1710,-161.23458970420143
1711,-161.22043768118965
1712,-159.17969765742055
1713,-154.19243873032428
1714,-152.1287294405356
1715,-161.45863776671285
1716,-184.83223112030464
1717,-208.85957634036458
1718,-217.72073968828226
1719,-207.6157868425562
1720,-190.09478289348044
1721,-177.10779233790345
1722,-173.8248790738944
1723,-181.27610639542036
1724,-196.77153698703478
1725,-201.591232918483
1726,-172.7852556393682
1727,-110.57366597373766
1728,-59.6865241146952
1729,-67.4938896189633
1730,-133.73582140145663
1731,-215.47237772981862
1732,-271.78361621896147
1733,-285.7395938255595
1734,-250.25036684255065
1735,-172.10599089362222
1736,-96.17652092765638
1737,-72.68201121317725
1738,-108.27251533279377
1739,-156.26808617756797
1740,-171.82877594144338
1741,-159.7346361156142
1742,-152.45571748286056
1743,-171.63207011192026
1744,-197.28374335176886
1745,-200.0007858259687
1746,-171.97324542693786
1747,-139.4211693102061
1748,-129.5446038886912
1749,-142.2535948269251
1750,-158.2781870352719
1751,-161.2984246641281
1752,-150.94435109810547
1753,-131.59600895019685
1754,-109.16344005592873
1755,-92.38668546748522
1756,-89.71578544781732
1757,-98.6207794647562
1758,-107.47170618506425
1759,-107.48860346852052
1760,-107.51150836193847
1761,-122.50045709321057
1762,-154.98548506530096
1763,-180.37662685023497
1764,-172.02391618307956
1765,-135.12738595588235
1766,-104.2870682116154
1767,-108.60299413807479
1768,-135.87519406181673
1769,-158.09369744198375
1770,-159.94853286422403
1771,-155.80972803448094
1772,-163.28730977285886
1773,-178.0313040074161
1774,-174.5717357679423
1775,-132.83862917975966
1776,-72.99200745744383
1777,-30.931892898574006
1778,-25.348306877443974
1779,-34.62126983876988
1780,-32.31080129134898
1781,-13.016919801742915
1782,8.78035701209592
1783,19.271012487202825
1784,13.785030921972066
1785,-8.967602417396847
1786,-44.076901290482056
1787,-73.11287847619496
1788,-76.97554576630682
1789,-57.454913958945326
1790,-34.600992852101626
1791,-26.03379123711602
1792,-33.013316892094736
1793,-51.24957657538289
1794,-73.87257601897545
1795,-88.99231992188834
1796,-85.33881194357127
1797,-69.13205469725108
1798,-59.85204974328008
1799,-69.93879758244111
1800,-78.66229764927448
