800,200.90248393428556
801,219.5278862749201
802,263.78048033851155
803,324.98048990422467
804,381.2981384933573
805,410.7036493736414
806,397.86724556351874
807,350.51914983630377
808,281.4095847243443
809,203.2587725230951
810,129.53693529514203
811,74.57429487419722
812,52.791072868982155
813,75.85749066713288
814,134.32376943897543
815,208.7701301413199
816,279.7467935211316
817,332.8439801191944
818,366.41191027372406
819,380.780804123895
820,376.4308816133271
821,356.762362493555
822,327.88546632739235
823,296.0204124922748
824,266.1674201835558
825,237.21670841772175
826,205.9784960355919
827,169.40300170544833
828,129.3704439261037
829,96.36104102995341
830,81.68501118594031
831,95.07257240249601
832,128.52394253042075
833,163.10933926570578
834,179.72898015233295
835,168.22308258500016
836,147.21186381180087
837,141.07554093687577
838,173.21433092299048
839,239.84845059407598
840,307.60811663772984
841,341.6235456076556
842,314.54495392606077
843,244.35255788600443
844,165.90657365371408
845,113.9272172708279
846,105.67470465661245
847,125.98925161012994
848,156.20107381235175
849,178.86038682823528
850,190.6874061087492
851,197.4123469928545
852,204.92542470945045
853,216.75685437924585
854,229.00685101663657
855,236.3256295314859
856,233.67340473088552
857,223.3903913208851
858,215.3868039081517
859,219.90285700159257
860,244.82876501396458
861,285.6447422633846
862,333.76100297484845
863,380.5877612816821
864,420.47523122695566
865,452.3836267648512
866,475.65316176199667
867,489.5640499987585
868,492.586505170475
869,482.7807408886765
870,458.2069706822367
871,421.6854079985078
872,387.3562662043896
873,371.0597585873893
874,387.24609835660885
875,430.18549864371016
876,478.7081725038479
877,511.2743329165369
878,512.7041927865084
879,490.61796494450755
880,457.77586214806615
881,426.7880970822134
882,406.66488236019177
883,402.5264305240853
884,419.29295404543336
885,458.47466532581893
886,503.6817766973909
887,532.7245004233791
888,523.7730486985365
889,474.06763364958533
890,408.9384673355962
891,355.90576174833586
892,339.10972881259295
893,357.6305803864507
894,399.2985282615391
895,451.903784163238
896,505.1765597508456
897,552.567066617723
898,587.9655162913969
899,606.2021202336273
900,611.737089840437
901,614.710636442107
902,625.2929713031608
903,647.8243056222636
904,671.8848505321639
905,684.7848170994966
906,674.9544163246737
907,646.5038591416414
908,615.0633564176587
909,596.5631189530268
910,600.2433574807892
911,614.2942826663984
912,622.8061051073382
913,610.929035332756
914,584.8632838029935
915,569.4890609091563
916,590.2965769726088
917,660.3160422444525
918,744.6276669049803
919,796.7716610630796
920,772.1482347556121
921,672.2675979468004
922,546.4199605275116
923,446.17553231456804
924,411.89452305003033
925,433.64714240040666
926,487.3835999558687
927,549.3441052294347
928,604.8688676560942
929,649.9980965919694
930,681.3920013133611
931,696.3007910158485
932,695.1746748132882
933,679.4238617368628
934,650.5285607340174
935,611.2389806674328
936,566.0253303139616
937,519.4578183634985
938,476.0866534178749
939,440.53204398967864
940,417.4041985010899
941,411.16332528267776
942,420.72963257213087
943,437.43332851303785
944,452.0646211535677
945,456.2537184451867
946,446.35082824129677
947,420.4461582958684
948,376.77991626209405
949,320.5523096909219
950,266.65354602965454
951,230.71383262048585
952,224.7733766989877
953,239.822385392632
954,259.2310657192411
955,266.58962458544374
956,255.8282687850715
957,235.21720499757794
958,214.06663978640245
959,200.21677959731824
960,193.10783075677682
961,189.21999947018776
962,185.1134918202115
963,180.85851376504434
964,181.24527113662043
965,191.35396963885796
966,213.56481484582764
967,235.6180121999605
968,240.34376701018118
969,211.1222844500444
970,149.97376955583968
971,82.01842722470246
972,33.79646221266012
973,24.968079132704588
974,41.693482452807075
975,59.952876493956865
976,56.336465428095835
977,25.294453276150307
978,-18.79295609404653
979,-60.46555896980499
980,-86.6631517956921
981,-94.46553117561052
982,-83.66249387492644
983,-54.40383682261745
984,-14.879357113419246
985,18.821147989969177
986,30.257881054734753
987,10.281044475679664
988,-23.969159526935982
989,-49.44252890970529
990,-44.588861808329966
991,-13.747956539857114
992,17.070388394975453
993,21.156374309441162
994,-15.249797671516717
995,-67.66792661360887
996,-104.55781177557583
997,-97.08925261158947
998,-51.37204877361728
999,2.243999886162783
1000,32.969093312913174
1001,23.733431246728287
1002,-10.162786779852468
1003,-48.71936144429492
1004,-71.92609363657175
1005,-63.32278446164128
1006,-30.179235241979768
1007,10.424752479895687
1008,41.52937693888089
1009,53.71483614474346
1010,48.391327879526216
1011,27.809049694995338
1012,-5.051801089997753
1013,-43.31102739206108
1014,-78.70843236596193
1015,-103.24381940720559
1016,-115.20699215469358
1017,-120.357754493416
1018,-124.89591055707933
1019,-133.201264730822
1020,-141.94362165389612
1021,-145.79278622237325
1022,-139.4885635918945
1023,-119.90075918033472
1024,-85.88917867063356
1025,-36.33362801348267
1026,25.2960865699024
1027,81.26015858497703
1028,110.97878126109572
1029,95.97214754874585
1030,45.07045011669106
1031,-13.71611865081286
1032,-52.017366656848026
1033,-54.44310209466494
1034,-35.06313345054514
1035,-12.047269506656448
1036,-1.3253193438904418
1037,0.29290765525001916
1038,5.637601803737198
1039,27.508953107197158
1040,67.74715126095543
1041,110.78238564712956
1042,139.44484533175273
1043,139.74471906180042
1044,115.31219526231871
1045,75.86746203340954
1046,31.21070714734742
1047,-6.757881954399636
1048,-23.858118164145708
1049,-5.829814710919891
1050,52.37721483650603
1051,123.0731565666938
1052,171.30819622248964
1053,165.2725191980935
1054,115.8163105359854
1055,64.73975492396494
1056,54.47303669213579
1057,103.51633980985571
1058,177.94984788274087
1059,236.93374414959544
1060,245.37821147944123
1061,211.69343236839632
1062,164.03958893668096
1063,130.34686292555853
1064,123.41543569423084
1065,135.65548821686752
1066,158.037201079449
1067,181.66075447673575
1068,198.19632820920015
1069,199.4341016799408
1070,178.07425389157652
1071,141.06696344320517
1072,106.90240852726856
1073,94.40076692649382
1074,111.19221601076788
1075,138.90693273406214
1076,155.4550936313135
1077,142.88687481532543
1078,115.03245197365322
1079,100.33200036549897
1080,126.61569481861079
1081,194.94370972613615
1082,271.5362190435444
1083,320.3133962854481
1084,315.72541452255973
1085,272.6124463785018
1086,215.5346640267271
1087,167.66223918735705
1088,133.3753431240766
1089,103.77414664101525
1090,69.70882007959881
1091,27.91953331541663
1092,-13.603544244877412
1093,-45.56024366673955
1094,-60.200396490832645
1095,-58.593834736162535
1096,-45.05039090321952
1097,-24.079897977124347
1098,-5.072189430713479
1099,-2.227099227697181
1100,-29.894461825802864
1101,-90.56411217987988
1102,-154.90588574504
1103,-188.33961847978208
1104,-161.87514684911002
1105,-91.5723078276751
1106,-15.300938902892085
1107,29.559121921960468
1108,29.208036124564387
1109,-0.4840353394829435
1110,-41.756932039847015
1111,-79.1404940745415
1112,-105.06456207304655
1113,-113.59897719941728
1114,-100.6235811553961
1115,-80.19821618351125
1116,-77.10272507017726
1117,-115.80695114881019
1118,-196.540738302916
1119,-283.6939309691479
1120,-338.71637414047655
1121,-335.0979133691908
1122,-293.7283947700307
1123,-247.18766502325525
1124,-225.63557137771932
1125,-230.36196165392903
1126,-243.74668424713673
1127,-248.07958813037476
1128,-240.0405228575437
1129,-239.2293385664343
1130,-267.34588598179835
1131,-335.8700164183938
1132,-413.90158178400816
1133,-459.56043458251224
1134,-435.1664279168799
1135,-354.8994154922075
1136,-267.48925161874286
1137,-221.80579121489063
1138,-237.88888981023047
1139,-290.1984035485002
1140,-349.15418919061267
1141,-391.30610411762973
1142,-417.54400633375553
1143,-434.8477544693051
1144,-449.27720778368166
1145,-456.77222616834115
1146,-447.0126701497502
1147,-409.8484008923224
1148,-348.4092802013911
1149,-284.87517052610565
1150,-242.91593496240966
1151,-238.25143725591988
1152,-259.09154180486075
1153,-287.70611366297453
1154,-308.03501854240676
1155,-319.21812281661914
1156,-328.52529352324564
1157,-343.05639836699265
1158,-361.26130572248803
1159,-371.25988463716203
1160,-360.58200483405744
1161,-325.11753671473707
1162,-283.7963513620416
1163,-259.4683205429719
1164,-269.7733167114857
1165,-297.04121301127816
1166,-308.8618832786342
1167,-274.7852020451719
1168,-204.491044540624
1169,-144.7092866956482
1170,-143.35980514451876
1171,-214.18247722795059
1172,-302.17718099577905
1173,-344.08379520973176
1174,-294.8121993461209
1175,-194.19227359854995
1176,-106.89389888065853
1177,-92.0369568287606
1178,-142.87132980454408
1179,-209.6269008977215
1180,-242.48355392873418
1181,-225.22117345134393
1182,-187.62964475528133
1183,-162.82885386889393
1184,-172.52868756174212
1185,-204.56903334719755
1186,-240.56977948503118
1187,-263.38081498400425
1188,-264.46202960442315
1189,-238.8433138606997
1190,-182.69455902388654
1191,-112.7656571242369
1192,-63.64650095367688
1193,-70.2069840683289
1194,-135.9270007910236
1195,-208.91644621378146
1196,-231.57521620025727
1197,-168.67320738819762
1198,-68.9803171919084
1199,-1.0864438046846772
1200,-23.311486201189837
1201,-107.13534413988964
1202,-180.43791816546218
1203,-173.6091096111304
1204,-83.76882060106436
1205,25.423045947300125
1206,87.69658632088976
1207,70.65189600870144
1208,8.459069699481915
1209,-57.041798720583756
1210,-92.90061617013998
1211,-102.39729037491634
1212,-98.0017298699895
1213,-91.27384400204392
1214,-85.60354293155251
1215,-80.15073763503824
1216,-74.16533990721655
1217,-68.44726236319548
1218,-65.37641844067184
1219,-67.37272240202947
1220,-74.19608933651398
1221,-80.56643516233453
1222,-80.69367662876175
1223,-71.55773131823662
1224,-60.468517648423585
1225,-57.155954874288
1226,-69.03996309012655
1227,-86.3804632315987
1228,-91.59737707772001
1229,-68.17062725288997
1230,-19.370137228841486
1231,34.834168673391105
1232,74.13236528151174
1233,93.87452657004906
1234,113.36072565843642
1235,153.91103480910897
1236,223.0655254256526
1237,288.88426805089694
1238,312.37733236510394
1239,265.3947871841301
1240,179.63670045759864
1241,107.33313926712799
1242,96.25416982453316
1243,143.17985747009516
1244,212.9402666707756
1245,270.59546101852175
1246,301.9255032285546
1247,315.4704551376817
1248,320.9703777025934
1249,328.30533099826425
1250,347.66537421626344
1251,389.2905656631701
1252,454.5009627589643
1253,513.8066220354231
1254,531.067599134607
1255,478.2639488072564
1256,379.6557249113175
1257,280.07298041037575
1258,221.28576737225012
1259,205.30413696742107
1260,207.11813946767506
1261,201.87782424458783
1262,185.6932397681885
1263,178.63443360550082
1264,201.90145241921346
1265,262.0343419662822
1266,337.7231470966435
1267,404.49791175184873
1268,444.9286789637954
1269,464.4454908534499
1270,473.0983886295653
1271,478.70741258747876
1272,476.2126021078584
1273,455.9539956555236
1274,410.691630778274
1275,357.60554410569966
1276,328.2957713480864
1277,352.4523472952678
1278,415.665305815528
1279,461.91467985454074
1280,434.3505014342918
1281,321.3028016520948
1282,178.70161067949084
1283,67.98695776132809
1284,27.858871214764804
1285,42.31737842829898
1286,87.3225058608732
1287,140.2442790409259
1288,183.98272256552082
1289,202.7578600994966
1290,185.29971437459244
1291,149.46830718863202
1292,124.78365940473668
1293,138.6657909505011
1294,194.0247208172841
1295,278.5004670594499
1296,379.1830467936379
1297,476.7524761980749
1298,545.8387705119239
1299,561.2719440345936
1300,520.6120101251618
1301,453.95898120170386
1302,393.8328687407884
1303,359.6736832768147
1304,342.66143440157975
1305,330.306130763689
1306,315.6177800680889
1307,310.03638907557615
1308,328.76196360237736
1309,380.98450851971575
1310,444.95402775338516
1311,489.04052428338036
1312,486.5440001435454
1313,450.2744564212553
1314,412.0618932570542
1315,401.53630984442134
1316,418.57770442947003
1317,442.2360743107274
1318,452.13141583891047
1319,449.8337244166978
1320,458.85299449862214
1321,503.1192195908734
1322,581.75239225119
1323,658.9725040887606
1324,696.5595457641284
1325,676.9235069891729
1326,623.70437652705
1327,565.4521421922036
1328,524.0567908503763
1329,502.5483084186526
1330,500.6466798655347
1331,516.8118892110215
1332,544.403919526736
1333,575.4827529360591
1334,602.6683706142903
1335,621.9107527888555
1336,630.3198787394831
1337,626.0757267984809
1338,616.0782743509844
1339,611.5974978352424
1340,623.0833727429163
1341,650.3758736194504
1342,686.0549740644092
1343,722.84064673186
1344,758.072863330799
1345,793.3815946256
1346,830.2568104364364
1347,861.5584796398034
1348,869.8165701690305
1349,837.3010490147899
1350,766.6918822256885
1351,692.5190349088589
1352,652.0124712305478
1353,660.6121544167618
1354,689.1480467539768
1355,703.0201095897428
1356,681.1383033335005
1357,638.70258745725
1358,596.9629204963458
1359,571.2392600502826
1360,556.0315627835444
1361,541.219784426401
1362,519.5038797758352
1363,496.4738026963896
1364,481.40950612113375
1365,481.8309420525766
1366,494.71806156367893
1367,513.1508147988279
1368,530.3491509748965
1369,540.923018382262
1370,540.1223643859048
1371,524.407135426547
1372,502.6472770217406
1373,490.96273376704266
1374,504.283449337232
1375,540.639366487485
1376,585.970427054639
1377,626.2765719584822
1378,652.7377412029855
1379,661.0438738776866
1380,647.3849081590197
1381,616.6207813116707
1382,582.6114296900196
1383,559.3367887395361
1384,550.5367929982713
1385,547.301376098294
1386,540.0504707672444
1387,524.5740088298662
1388,504.64192120955704
1389,484.60413792998224
1390,470.1605881166761
1391,469.34119999869654
1392,490.325900910324
1393,533.0246172927218
1394,580.8872746957022
1395,615.3837977794756
1396,625.0441103164303
1397,614.8581351929533
1398,592.1657944112776
1399,562.4070090913083
1400,525.9016994726153
1401,482.09978491625225
1402,435.81118390676056
1403,408.2058140541594
1404,423.64359209593385
1405,491.67443389907567
1406,569.7882544621498
1407,604.044967917398
1408,559.2244875328252
1409,474.4867257144033
1410,407.4715940082024
1411,402.0990031026122
1412,440.9388628305642
1413,489.53108217183035
1414,518.0955692552707
1415,520.2022313611669
1416,496.5809749235923
1417,452.04170553272706
1418,413.284327937341
1419,414.4387460471662
1420,480.21486293539056
1421,579.4225808411102
1422,660.3418011719114
1423,680.3324245063377
1424,655.1743505965387
1425,623.6674783708113
1426,619.3717059362862
1427,639.1669305815558
1428,664.603048779376
1429,679.6299561893829
1430,686.3075476608283
1431,694.6857172353994
1432,713.1843581499561
1433,737.263362839436
1434,756.3826229396727
1435,761.6420292902949
1436,757.3614719376637
1437,754.1908401378168
1438,761.4100223594287
1439,777.1089062868596
1440,793.8573788231333
1441,804.6353260930846
1442,806.3026334463793
1443,797.6291854606825
1444,779.5148659448023
1445,770.8495579418741
1446,799.5631437325574
1447,887.1755048383166
1448,1000.3765220246532
1449,1078.3160753044394
1450,1068.164043941215
1451,986.1203064525616
1452,882.7847406135188
1453,804.4672234599602
1454,760.2576312920573
1455,741.0558396777669
1456,738.2017234563391
1457,747.7151567418223
1458,767.8560129266771
1459,795.774164685321
1460,820.2994839778039
1461,826.4318420534328
1462,801.2711094544502
1463,747.5571560197714
1464,674.8398508887112
1465,593.8090625047698
1466,522.3246586194218
1467,481.2865062959645
1468,484.97447191334504
1469,505.4984211701267
1470,498.4782190883234
1471,430.8637300174123
1472,336.81481763827105
1473,275.02134496725193
1474,290.493174360141
1475,354.40016751630174
1476,413.12218548274177
1477,422.4290886582239
1478,384.52073679748355
1479,315.7869890153597
1480,233.63770379105335
1481,159.87273897237174
1482,117.52195177997783
1483,122.66519881176646
1484,163.96233604711597
1485,223.22321885133715
1486,281.8777019800291
1487,319.87563958352985
1488,316.8268852113506
1489,266.68129181670156
1490,207.38871176098473
1491,185.35899681834417
1492,223.0519981802645
1493,278.7275664601766
1494,299.98555169806787
1495,256.77580336519895
1496,170.9881703687679
1497,71.8925010566636
1498,-16.181356777804467
1499,-78.84355589107145
1500,-103.01424958453208
1501,-86.03359169968826
1502,-43.251736613248795
1503,8.341160767773545
1504,60.32494501099791
1505,116.86946016364527
1506,182.65454975753892
1507,243.6600568141439
1508,262.4558238496393
1509,202.36169287996017
1510,84.5975054259834
1511,-8.5468974813557
1512,3.3083247041031427
1513,109.7430120489953
1514,220.01700414566585
1515,246.50014011740132
1516,184.65225862378793
1517,90.86319786600143
1518,19.362795592194743
1519,-14.309110897112987
1520,-17.9026847436362
1521,0.4319104741734918
1522,31.72451074656783
1523,66.67495163803687
1524,95.71306829284731
1525,107.85869544061643
1526,91.59166740193177
1527,40.621818093932234
1528,-25.62101896394597
1529,-79.84701064435649
1530,-100.44632420625203
1531,-87.51912728918978
1532,-46.2755879074939
1533,13.884125555523497
1534,71.51984435342456
1535,103.03139938251115
1536,96.93862118773177
1537,68.8813399686187
1538,38.00938558524285
1539,12.562587564239948
1540,-18.039224895204825
1541,-65.73622291527863
1542,-123.93857793347343
1543,-161.47646169643122
1544,-146.91004625385176
1545,-83.179503952284
1546,-8.065007428915123
1547,40.68327039461292
1548,49.51515631855
1549,23.710476871256105
1550,-29.400941684423742
1551,-86.15927334481967
1552,-113.38469235906814
1553,-84.84737322267029
1554,-24.1774906710707
1555,23.634780326839973
1556,22.53926457520356
1557,-18.344213342239527
1558,-75.92582905562085
1559,-128.88575840232807
1560,-162.19417742038422
1561,-162.17126234179523
1562,-128.23718958586323
1563,-92.12213575248461
1564,-90.23627761539319
1565,-136.69979211539976
1566,-206.3528563535765
1567,-270.33564758443026
1568,-314.1583432090447
1569,-341.4211207681983
1570,-356.69415793540975
1571,-360.29763251000986
1572,-348.68172241016873
1573,-318.61660566587307
1574,-272.15246041187856
1575,-214.69946488066853
1576,-153.7777973953198
1577,-111.9576363623928
1578,-118.51916026478284
1579,-189.59254765450896
1580,-277.94797714551896
1581,-317.27562740643407
1582,-269.59567715326193
1583,-186.63830514211077
1584,-137.7436901618421
1585,-157.48201102671374
1586,-207.2434465689621
1587,-239.67817563145582
1588,-233.00637706011548
1589,-201.89822969656234
1590,-163.3539123705159
1591,-125.0836038923153
1592,-85.86748304529465
1593,-45.13572857824329
1594,-14.228519197731657
1595,-12.216033560474898
1596,-52.61845026564697
1597,-109.61594784716362
1598,-140.6787047659418
1599,-116.13689940212498
1600,-61.99071004727739
1601,-19.150314896560303
1602,-15.495892040860781
1603,-44.01761945893668
1604,-91.89567500944031
1605,-144.58023642303306
1606,-184.61148129438152
1607,-194.81958707415106
1608,-174.98473106096208
1609,-143.42709039339024
1610,-117.94684204178338
1611,-97.16416280023259
1612,-66.14922927835505
1613,-14.15221789316638
1614,36.95669513916437
1615,50.88733381148995
1616,4.819522334004432
1617,-66.2069148574883
1618,-111.7421530932661
1619,-105.08636746132106
1620,-79.56973279903104
1621,-77.28242368468273
1622,-103.94461442911779
1623,-109.27647906719722
1624,-41.258191349385015
1625,87.85007526681511
1626,204.56814762538852
1627,241.06585288038696
1628,212.56301850450473
1629,182.5894722977573
1630,201.8150423960833
1631,246.23955728006695
1632,266.202845783635
1633,230.41473710279388
1634,164.81506080440522
1635,106.30364683497464
1636,79.12032552949677
1637,84.64492762025839
1638,121.41728424578832
1639,174.99722695968012
1640,217.16458773961494
1641,222.32919899624176
1642,202.08089358221696
1643,191.4895048012113
1644,218.15486641696407
1645,264.5068126622973
1646,296.77517824830284
1647,292.0597983733933
1648,261.49050873251326
1649,222.8071455262616
1650,195.1595454701528
1651,200.02754580381588
1652,257.3509843002903
1653,345.74969927526035
1654,403.0035295964408
1655,374.3623146928512
1656,295.42589456423957
1657,252.65410979045555
1658,307.45680154086585
1659,396.45381158381497
1660,418.3649822961088
1661,323.0501566725143
1662,190.37917833527172
1663,119.16189154366293
1664,142.37814120362236
1665,202.0577728772987
1666,236.37063279271388
1667,226.82656785342988
1668,188.0154256482274
1669,136.34705446083535
1670,94.40130327965016
1671,87.31802180751401
1672,128.6270604715137
1673,193.0582704327935
1674,247.37150359639782
1675,271.4466126211555
1676,267.7034509295481
1677,240.76187271767776
1678,194.55173296515932
1679,132.37288744515536
1680,59.62519273431462
1681,-0.9614937771402765
1682,-18.127313875414984
1683,24.077591486973688
1684,82.39308220125531
1685,99.4590190125964
1686,52.575263530179654
1687,-14.758321762557898
1688,-53.201873497753695
1689,-51.24552741288426
1690,-34.88941834050638
1691,-28.743680197974754
1692,-31.42844597716612
1693,-28.333847734116716
1694,-12.240016578678478
1695,-5.4470826641627355
1696,-37.29517517691784
1697,-114.97442232588583
1698,-204.11495133219069
1699,-266.6668884186256
1700,-285.25035879918505
1701,-262.0654866685036
1702,-203.0423951913217
1703,-137.29120649193646
1704,-104.89204164354305
1705,-127.74502065769411
1706,-163.86026247357586
1707,-157.87788494737833
1708,-97.92800484159307
1709,-43.460737814286404
1710,-56.87619840840125
1711,-139.80450004089653
1712,-244.7057549920537
1713,-328.4100743946183
1714,-384.32756822295414
1715,-419.9783452822194
1716,-438.85251319744566
1717,-433.4201784026445
1718,-394.5914461298853
1719,-325.796420398332
1720,-246.5952040032571
1721,-177.22789850506524
1722,-133.79460421824842
1723,-129.86542020035267
1724,-169.81044424089123
1725,-217.5497728502669
1726,-226.07350124868026
1727,-181.14172335492913
1728,-131.34453177530668
1729,-129.9520177923987
1730,-180.55427135387072
1731,-242.2313810612468
1732,-277.5434341586624
1733,-283.12051652160517
1734,-269.5427126455761
1735,-244.0701056348189
1736,-204.8127771909676
1737,-148.68080760168232
1738,-86.36427572926186
1739,-45.3632589992485
1740,-49.67783338899244
1741,-79.30807341623586
1742,-89.76405212758618
1743,-54.355841087086446
1744,-14.123510364654067
1745,-25.37712852457844
1746,-103.03676261396686
1747,-196.75247815113107
1748,-253.27433911404296
1749,-257.53240792867655
1750,-221.40674545738875
1751,-160.71741098725397
1752,-107.28446221837658
1753,-97.5279552522079
1754,-139.34794457980024
1755,-186.1544830700841
1756,-188.3376219581005
1757,-150.63741083320565
1758,-123.02389762727762
1759,-144.5171286028999
1760,-184.5671483414917
1761,-188.42399973147258
1762,-130.88772395635897
1763,-51.34836048287252
1764,3.294052950994228
1765,8.31948034792731
1766,-40.5421125367684
1767,-138.9807581831774
1768,-234.53648729473935
1769,-256.3293287862798
1770,-174.59930977194017
1771,-55.58645555311523
1772,23.039210393639223
1773,36.367666428657685
1774,10.30889276131711
1775,-29.607128537816607
1776,-73.54041352485729
1777,-117.79097637040468
1778,-152.47882934738664
1779,-153.36398281879883
1780,-96.1164452255216
1781,0.45377692597321584
1782,76.83667907584459
1783,82.23225862320032
1784,29.300514938371634
1785,-45.52855062474191
1786,-108.7849347163392
1787,-133.7686319783752
1788,-97.35963503217499
1789,-25.887934466045408
1790,11.116481177130481
1791,-37.896374587668106
1792,-119.03648617516956
1793,-143.39383591733713
1794,-74.87840405091993
1795,20.55983129510423
1796,69.12089411197303
1797,54.81481052370509
1798,5.441608799646929
1799,-50.70868063298258
1800,-88.19602517649764
