800,177.42627774597895
801,170.01055651346906
802,153.1256960804967
803,128.3319093699738
804,99.10940901287722
805,68.94840734712307
806,41.969116416463294
807,24.471747969329954
808,23.22651345775921
809,44.73362403628744
810,86.25329056084229
811,133.44572358767437
812,171.27113337226547
813,186.69972986827452
814,182.441722726453
815,168.6273212936103
816,155.43673461154685
817,149.38017141601995
818,147.81784013571996
819,146.64994889122318
820,141.97670549398026
821,133.6083174452997
822,124.81499193535456
823,118.94693584216475
824,118.52435573061302
825,121.5674578514645
826,124.63644814036888
827,124.3215322169126
828,119.60291538363526
829,113.63080262507538
830,109.9453986068238
831,111.69690767456996
832,117.82553385315987
833,124.63148084568274
834,128.4049520325225
835,127.42615047044092
836,126.4852788916869
837,131.6525397030564
838,148.6981349850157
839,175.21226649079836
840,199.80513564550893
841,210.64694354526364
842,198.60789095629116
843,170.96817831406588
844,141.07800572245833
845,122.24757295287054
846,121.66707944337031
847,135.18672429787148
848,157.41670628526845
849,183.02722383862238
850,207.51847505431215
851,226.93065769123677
852,237.28396916997553
853,236.61860657199577
854,229.23476663883048
855,220.66264577128823
856,216.2124400286648
857,215.40434512794127
858,211.91855644300813
859,199.13526900389297
860,172.90467749597155
861,141.96697625921843
862,119.312359287449
863,117.81102022753657
864,140.20315237869363
865,173.30894869170515
866,202.54860176819784
867,215.02230385990697
868,212.76024686793426
869,205.47262234204754
870,202.92962147992876
871,210.61143512649141
872,223.718253773146
873,235.93026755711435
874,241.40766626071854
875,241.91063931069402
876,244.90937577749173
877,258.05406437459897
878,284.8448934578646
879,313.9820510248064
880,330.8657247139672
881,321.50610180422154
882,288.85336921413545
883,254.0477135013025
884,239.13932086168643
885,260.39837712898225
886,303.79506777397546
887,345.48957790389613
888,361.95209226178486
889,348.1727952258789
890,326.2918708089601
891,320.58950265777094
892,351.1458740523649
893,406.73116790551103
894,462.1155667620951
895,492.11925279848583
896,486.12240782197114
897,461.90521327014903
898,440.4878502103311
899,440.8104993389643
900,460.273340981048
901,483.6465550895482
902,495.5503212448384
903,488.35481865411566
904,473.8702261508406
905,466.91672219417524
906,480.94448486841975
907,510.31369188246936
908,535.3445205692533
909,536.0271478851955
910,502.0517504096588
911,453.7285043444226
912,417.42758551314364
913,418.0791693608153
914,453.7634309532441
915,498.6805449765325
916,526.1806857365464
917,517.2340271584126
918,482.02074278598957
919,437.7210057813718
920,401.1549889243688
921,380.72286461201475
922,376.07480485807173
923,386.42098129250917
924,409.94156516104704
925,439.9967273246384
926,468.6166382589927
927,487.95146805409786
928,494.2413864137379
929,488.546562655014
930,472.18716570787
931,447.3233641146344
932,420.41532602953885
933,399.28321921826864
934,391.567211057496
935,397.467468534418
936,407.7441582463125
937,412.51744640008656
938,404.1274988118166
939,387.16448090632184
940,370.40855771670067
941,362.53989388392256
942,366.3086536563551
943,376.51500088936154
944,387.3290990448477
945,393.3911111908619
946,391.77120000114337
947,380.3795277547051
948,357.28625633543925
949,324.63154723167463
950,290.33556153576137
951,262.7384599436955
952,248.59040275466214
953,245.3115498706702
954,246.952060796124
955,247.62209463743966
956,243.12181010264612
957,231.72136550097275
958,211.86091874247722
959,183.01062733765139
960,150.7606483970212
961,122.80113863078623
962,106.71225434840926
963,104.154151458255
964,108.96698546720836
965,114.44091148030202
966,114.86608420033554
967,109.9226579275055
968,101.06078655905003
969,89.80062358887517
970,78.69232210718474
971,71.59603480012629
972,72.45191394943504
973,82.65011143207266
974,91.0907787198721
975,82.91406687919152
976,43.90012657055195
977,-21.350891951695303
978,-87.21883883973351
979,-126.8935646525988
980,-121.54492035654584
981,-86.07275732537892
982,-44.37692734077791
983,-19.537282592651536
984,-17.083675679466978
985,-25.245959608570047
986,-31.503987796531874
987,-27.40761406945785
988,-19.076692663327776
989,-15.941078224310331
990,-26.670625809101693
991,-47.04519088521374
992,-62.06462933133298
993,-56.33879743759462
994,-21.397551905929504
995,30.979250149634026
996,85.25175120266431
997,126.66009331401256
998,150.46441813150886
999,158.8948668896519
1000,154.31158040930495
1001,140.14469909739637
1002,122.25436294662177
1003,106.88071153514284
1004,100.26388402628618
1005,106.63401916825387
1006,116.81125529382734
1007,116.04573032007465
1008,89.81758174805873
1009,36.836946662548144
1010,-25.3460382682606
1011,-77.65123679304816
1012,-104.6285130776323
1013,-110.51773170528031
1014,-106.1787576769566
1015,-102.29145641163996
1016,-103.30569374656079
1017,-106.331335937517
1018,-108.07824965912187
1019,-105.80630200509222
1020,-99.27536048851289
1021,-88.89529304211464
1022,-75.11596801854648
1023,-59.1972541906307
1024,-43.179020751638745
1025,-29.12113731556383
1026,-18.093473917366282
1027,-7.94590101326321
1028,4.071710519039698
1029,20.44948938006746
1030,39.99756384831562
1031,58.93606178000664
1032,73.4351106088252
1033,79.94483734565983
1034,75.43536857835534
1035,56.996830471451176
1036,23.579348765944815
1037,-9.80695122097859
1038,-20.03194459617589
1039,15.7644931091927
1040,95.48248593941753
1041,177.20215751400428
1042,215.36363102741961
1043,175.82702924884688
1044,87.65247452195763
1045,1.7600887646494812
1046,-32.33000653118506
1047,-5.427690299877213
1048,47.557158097741194
1049,89.41465887413506
1050,93.69493181480539
1051,72.02809627808165
1052,44.43427119485932
1053,29.763575068385762
1054,30.676125974025126
1055,38.03204155902313
1056,42.491439042281854
1057,39.26443521413967
1058,33.55114643612069
1059,31.92168864073028
1060,39.8761773312126
1061,55.18472758135431
1062,72.03745403522225
1063,84.72447090697278
1064,91.0658919806101
1065,93.59183060978103
1066,95.18239971754338
1067,97.4377117961485
1068,96.4478789068362
1069,86.88301267959832
1070,64.13322431298002
1071,35.608624573855195
1072,18.45932379721853
1073,30.045431885953803
1074,74.06705831065301
1075,122.28431210937742
1076,141.91730188746442
1077,106.03613581730133
1078,32.71092163813955
1079,-39.28823334413937
1080,-71.78122225722109
1081,-54.877938662542874
1082,-15.358276555538396
1083,17.50786963417886
1084,22.530605042622483
1085,9.390034371212096
1086,-4.773738113430227
1087,-4.260608579665131
1088,7.879526368955339
1089,15.34676969348402
1090,1.6412239193759888
1091,-37.36700886368453
1092,-81.87782700201387
1093,-109.4011292781106
1094,-102.8468149108412
1095,-76.60478355565465
1096,-56.4049353047576
1097,-66.87717068733036
1098,-107.57139066969103
1099,-153.32749665551455
1100,-177.90539048600112
1101,-166.5849744400839
1102,-135.28615123460804
1103,-105.00882402452771
1104,-94.68289640307194
1105,-106.62827240196566
1106,-135.18485649159265
1107,-174.4825535811833
1108,-214.3112690190137
1109,-238.9709085925624
1110,-232.42137852871747
1111,-187.46258549396043
1112,-127.0344365945275
1113,-80.45683937660579
1114,-74.05970182650526
1115,-103.1629323708512
1116,-144.82643987675328
1117,-176.11013365197323
1118,-184.6239234451259
1119,-173.68771944583204
1120,-147.85143228491143
1121,-112.70497303455159
1122,-77.75825320847434
1123,-53.5411847621217
1124,-49.69368009281607
1125,-65.59565203994498
1126,-93.9470138851193
1127,-127.30767935235781
1128,-160.11756260823495
1129,-189.74657826207294
1130,-213.83464136609655
1131,-230.03166741560017
1132,-236.1175723491233
1133,-229.87227254860045
1134,-209.90568483954303
1135,-184.79772649118786
1136,-169.7583152166717
1137,-179.9273691731887
1138,-218.104806962152
1139,-267.6605476293571
1140,-310.23451066513735
1141,-332.146616004522
1142,-338.5167840274062
1143,-339.11493555869856
1144,-342.8509918684649
1145,-349.07487467212013
1146,-351.20650613054204
1147,-342.6358088502584
1148,-321.282705883581
1149,-291.47712072876675
1150,-258.0989773301608
1151,-226.38820007835966
1152,-202.9947138103471
1153,-194.8384438096582
1154,-207.5793158065153
1155,-235.11725597797522
1156,-265.0821909480892
1157,-285.1740477880321
1158,-287.64275401626037
1159,-270.10823759864616
1160,-230.55042694861913
1161,-173.7192509273209
1162,-122.95463884373021
1163,-104.76652045481751
1164,-139.14482596567723
1165,-201.42948602965407
1166,-248.42043174850915
1167,-239.05759467252574
1168,-176.18090680066416
1169,-103.26030058069409
1170,-65.1557089093094
1171,-83.45706513229379
1172,-133.02430304461814
1173,-183.13735689059286
1174,-208.63616136399105
1175,-210.62065160817474
1176,-197.80076321622255
1177,-178.75643223106272
1178,-159.5875951455837
1179,-144.8441889027763
1180,-138.99615089584222
1181,-142.97341896832768
1182,-152.92593141423276
1183,-164.6536269781409
1184,-174.65644485533085
1185,-181.5743246919028
1186,-184.41720658488885
1187,-182.19503108236495
1188,-173.9877391835671
1189,-158.89527233901572
1190,-136.2175724506178
1191,-108.58458187176984
1192,-81.59624340748269
1193,-60.902500314483405
1194,-51.2532963013291
1195,-55.7185755284936
1196,-77.20828260848975
1197,-114.38236260596932
1198,-149.94076103782936
1199,-162.8334238733005
1200,-135.5102975340651
1201,-80.37132889432905
1202,-24.82646528094301
1203,4.634345526505058
1204,6.021155295602512
1205,1.704015341027116
1206,15.00297652442896
1207,52.36808925436526
1208,87.20940348620024
1209,89.07696872201814
1210,40.09083401053795
1211,-26.658952052970562
1212,-65.1823413267739
1213,-36.29928612275398
1214,39.35026079351519
1215,110.15634620267701
1216,126.26901643152814
1217,83.73831735293606
1218,24.014294385760877
1219,-9.703007505213463
1220,2.826456190654426
1221,38.912729529783974
1222,71.1558561143047
1223,79.65587909200076
1224,72.17284115623261
1225,62.856784545883784
1226,64.16775104529188
1227,75.61578198419011
1228,90.8209182376504
1229,103.62320022602762
1230,112.52266791489455
1231,119.95936081501168
1232,128.48331798224717
1233,140.97457801754172
1234,160.78317906686243
1235,191.29915882115347
1236,230.34255451628997
1237,259.91340293303074
1238,259.1217403969895
1239,214.20760277858972
1240,150.43102549301693
1241,106.50204350020795
1242,117.23069130478689
1243,173.54700295606926
1244,238.81101204799234
1245,276.7827517191272
1246,273.83225465261785
1247,241.20955307618533
1248,191.45467876209295
1249,138.92766302712334
1250,101.4185367325772
1251,97.12733028423827
1252,135.31407363237304
1253,194.2687962717173
1254,245.56152724146523
1255,265.81229512525897
1256,263.7311280511949
1257,260.73805369181537
1258,276.4830992640982
1259,308.0662915294779
1260,337.25765679383767
1261,346.0272209075156
1262,331.55500926532477
1263,308.371046806551
1264,291.8753580149714
1265,291.7479669188724
1266,306.8088970910703
1267,334.6481716489179
1268,370.46581325435363
1269,401.8418441138947
1270,414.7462859786974
1271,398.8391601445637
1272,364.70048745198255
1273,330.3102882861749
1274,312.3385825771129
1275,313.8953897995798
1276,330.07072897319813
1277,355.6346186624869
1278,380.59707697690465
1279,390.48812157090106
1280,370.91776964397104
1281,322.22603794072165
1282,266.77294275090935
1283,228.7084999095241
1284,222.8927247968477
1285,241.81563233851193
1286,274.70723700558665
1287,311.3175528146403
1288,343.53659332782627
1289,363.7243716529483
1290,366.18090044356177
1291,357.4161918990412
1292,348.89025776468407
1293,351.52310933178705
1294,370.144757437758
1295,405.7852124662022
1296,459.0144843470189
1297,522.0825825565171
1298,579.3595161175163
1299,615.0152935994593
1300,621.2899231185202
1301,601.8334123377281
1302,561.2857684670835
1303,509.59699826367796
1304,468.38710803182767
1305,460.77610362320047
1306,498.23399043694735
1307,553.6507734198403
1308,591.8764570664134
1309,586.8610454191039
1310,559.0345420683989
1311,543.7369501529993
1312,570.5782723599441
1313,623.3385109248011
1314,663.8176676318035
1315,656.9657438140312
1316,610.1427403535654
1317,560.3786576816747
1318,544.1234957789802
1319,569.7072541756388
1320,617.5399319515291
1321,666.9815277364269
1322,706.4120397102215
1323,736.8114656030812
1324,760.1198026956663
1325,775.6470478193387
1326,777.433197356353
1327,758.9182472400771
1328,721.4321929551988
1329,688.6650295379586
1330,688.2867515763555
1331,737.5573532103899
1332,811.2468281322763
1333,873.3151695866891
1334,894.2323703710172
1335,882.92842283557
1336,862.2033188838559
1337,852.6370499728218
1338,855.3496071131176
1339,861.7209808693478
1340,863.7611613603422
1341,862.2901382594209
1342,864.1079007946701
1343,875.7044377492275
1344,894.9597374615496
1345,911.9637878257163
1346,916.7365762917088
1347,906.3580898657165
1348,886.2983151104363
1349,862.5272381453706
1350,841.8648446471452
1351,832.4211198498306
1352,842.3660485452419
1353,871.5696150832882
1354,902.9318033722848
1355,917.2825968793004
1356,902.2619786304804
1357,863.8599312114147
1358,811.1064367674626
1359,753.8514770041274
1360,704.7150331873981
1361,676.9470861441387
1362,679.0176162624302
1363,697.5366034919589
1364,712.7740273444051
1365,708.6698668938152
1366,691.344100776998
1367,675.0867071939174
1368,672.2576639080944
1369,680.2569482470244
1370,689.4345371025702
1371,690.9204069314055
1372,684.014533755395
1373,672.7768931620849
1374,661.0674603050775
1375,649.3762099045052
1376,635.7731162474684
1377,618.6781531884881
1378,603.491294149946
1379,601.6525121225786
1380,624.1617796659157
1381,666.2690689087758
1382,706.8643515497297
1383,724.5475988575963
1384,714.068781671931
1385,690.2178704035359
1386,668.864835034934
1387,659.2996451209146
1388,661.1522697890177
1389,673.2326777400831
1390,690.4008372487551
1391,700.7867161640461
1392,691.9002819098405
1393,662.1115014854695
1394,631.5403414662596
1395,622.896768004086
1396,646.6407468279358
1397,684.8022432444941
1398,715.3812221387179
1399,721.8976479744142
1400,702.7914847948359
1401,658.9326962232917
1402,598.4612454637299
1403,551.6670953013745
1404,553.1702081033291
1405,620.5205458192013
1406,711.3580699817521
1407,770.1327417075136
1408,758.8745216974494
1409,709.5733702376019
1410,671.6192471997601
1411,682.342112042119
1412,725.4719238099515
1413,769.8086411363056
1414,789.9222222426706
1415,789.0226249396965
1416,779.1298066278796
1417,770.3237242982759
1418,762.0643345332355
1419,750.2315935070965
1420,731.5654569869494
1421,707.8758803333549
1422,682.8928185011027
1423,660.3962260399658
1424,644.6560570954571
1425,640.2022654096072
1426,650.2748043217325
1427,669.7336267692408
1428,689.878685288395
1429,703.3599320151425
1430,712.7373186859058
1431,724.9207966384129
1432,745.4203168125168
1433,768.5658297510145
1434,783.5272856005249
1435,781.4946341122868
1436,769.8978246430706
1437,763.9168061560013
1438,776.7615272214553
1439,804.8919360179298
1440,836.5879803329481
1441,861.0196075639378
1442,875.5767647191587
1443,881.7393984186128
1444,881.6474548949518
1445,883.0108799944355
1446,896.3296191778481
1447,930.0236175214777
1448,974.6628197180416
1449,1011.8571700776811
1450,1024.836612528923
1451,1010.9010906196672
1452,974.3605475181848
1453,921.2249260141161
1454,871.1141685194871
1455,850.2782170697319
1456,879.6370133247055
1457,937.0504985697498
1458,979.9086137167233
1459,971.4612993050596
1460,920.7684955028562
1461,857.9701421079153
1462,809.5761785488467
1463,775.2465438861782
1464,742.8111768134331
1465,701.6600156582645
1466,652.2429983835682
1467,599.5900625886134
1468,549.1111455102036
1469,508.18618402380525
1470,485.0251146447299
1471,485.54787352928906
1472,502.29439647600157
1473,522.8746189267586
1474,536.3184759680371
1475,539.2659023321194
1476,530.8868323983043
1477,510.31120019414084
1478,476.4989393966807
1479,428.3199833337221
1480,366.62426498507193
1481,300.75171698382655
1482,242.45227161764888
1483,202.38586083006885
1484,187.07241622178663
1485,201.9618690519801
1486,245.09415023964357
1487,288.4691903649182
1488,298.38691967043997
1489,257.5572680626992
1490,199.2101651134035
1491,166.2555400608726
1492,182.2733218114081
1493,218.93343894072132
1494,239.36581969532017
1495,222.96039199395818
1496,187.1570834290378
1497,154.71582126809517
1498,140.34653245523077
1499,142.5291436125881
1500,157.74358104183193
1501,179.23977072564412
1502,194.68763832922195
1503,191.3971092017964
1504,168.38810837815618
1505,141.8705605801897
1506,129.11439021843034
1507,134.1895213936259
1508,144.7158778983012
1509,147.57338321834868
1510,138.5319605346358
1511,122.7115327245956
1512,105.72202236386329
1513,93.5133517278955
1514,92.3854427936385
1515,107.50821724116395
1516,128.24159645534382
1517,132.35550152754695
1518,100.43985325731592
1519,46.08457215407907
1520,2.769578438888857
1521,-0.0952079538765247
1522,31.250132625253173
1523,73.155519542599
1524,103.70087188308207
1525,112.7761084520389
1526,94.851147776988
1527,48.215908109455995
1528,-10.039692573200227
1529,-57.075736565973784
1530,-74.33230643432944
1531,-59.42948501238607
1532,-13.8173554009918
1533,53.75399903411562
1534,113.40449466425162
1535,131.47404759967685
1536,95.02257369151994
1537,37.24998853374382
1538,-2.613792534928507
1539,-6.168854429017301
1540,9.134717685674332
1541,22.54683839407153
1542,23.447422033827024
1543,14.586382697356385
1544,-0.42636576613040233
1545,-19.58090974858169
1546,-42.44733588102463
1547,-68.48573103150193
1548,-94.02618230295957
1549,-113.00877703115111
1550,-119.703602782507
1551,-112.61074735200782
1552,-92.70029876101216
1553,-62.05234525511696
1554,-30.406975301950297
1555,-10.754277588997866
1556,-13.27434102137704
1557,-33.767254719617995
1558,-63.62310801742751
1559,-94.23199045941692
1560,-116.96399179886794
1561,-123.19920199540866
1562,-110.7177112127265
1563,-93.1696098162738
1564,-86.50498837091072
1565,-97.06393763856977
1566,-114.25654857590052
1567,-125.94291233187869
1568,-127.06312024543513
1569,-121.50726384303016
1570,-113.75543483623915
1571,-108.16772511931413
1572,-109.014226766727
1573,-119.79503203070453
1574,-134.88023333873207
1575,-142.80992329106812
1576,-134.65419465819832
1577,-120.79314037834592
1578,-120.23685355487214
1579,-146.07542745375576
1580,-182.9189555009707
1581,-206.73753127990676
1582,-199.49124852876594
1583,-161.95020113790815
1584,-98.64448314721812
1585,-23.724188743428385
1586,28.52058774255238
1587,21.919751838335287
1588,-44.62679106722317
1589,-122.46913572129961
1590,-161.07737700434336
1591,-153.13160992732628
1592,-132.8719296289455
1593,-133.21843137283395
1594,-151.47121054473973
1595,-161.8603626496788
1596,-142.28598330911154
1597,-98.99816825804919
1598,-50.26701334217432
1599,-12.312614514936286
1600,7.884932165361533
1601,5.785530538516468
1602,-15.940915654626224
1603,-35.45450276919655
1604,-27.995327253298456
1605,10.096514354980172
1606,46.62092543062681
1607,47.18780926472209
1608,15.167069067518241
1609,-4.771392028467744
1610,29.762329034632785
1611,102.69813524316305
1612,156.74592951508384
1613,143.95561470313623
1614,91.22709359799228
1615,58.55026893149443
1616,88.75504337981874
1617,150.66131956673962
1618,193.4590000668759
1619,187.55798740895443
1620,157.20818407909974
1621,134.80949252414575
1622,137.13181515496035
1623,156.96505434979917
1624,185.17911245765754
1625,215.69389180167127
1626,245.28929468250863
1627,270.8952233818072
1628,290.0515801656129
1629,300.5882672878324
1630,300.4551869937368
1631,288.1822415234419
1632,262.4993331154674
1633,227.996364010236
1634,207.46323645366647
1635,226.97985270075515
1636,289.28611501915657
1637,355.1719256928445
1638,382.617187025724
1639,371.67180134531554
1640,367.1256710064263
1641,411.13869839487234
1642,491.18078593118844
1643,560.3118360743938
1644,579.6517513257331
1645,560.1904342325033
1646,530.7977873918298
1647,512.4737134545139
1648,501.6681151288867
1649,490.1308951846695
1650,476.07195645688444
1651,468.8112018497668
1652,478.34853434068464
1653,503.69385698413134
1654,533.0170729156689
1655,554.7780853559689
1656,564.9167976148019
1657,563.5931130950976
1658,550.2269352970306
1659,520.5581678220678
1660,469.2167143771312
1661,400.1624787786841
1662,341.0453649569263
1663,322.6252769599396
1664,347.5921189579258
1665,379.80579524739005
1666,382.81621025541244
1667,357.7432685439162
1668,334.48687481394154
1669,338.57693390997883
1670,360.86335082429105
1671,377.8860307012892
1672,371.2748788418976
1673,339.81980070796453
1674,285.9807019267064
1675,221.21748829513672
1676,172.40006578455723
1677,166.13834054505242
1678,191.60221891001675
1679,203.4916074006851
1680,162.9864127307228
1681,95.65654181080572
1682,58.44190175323638
1683,87.89239987660949
1684,140.92794371043055
1685,155.4484409998513
1686,105.5337997103561
1687,34.33392803251081
1688,-8.751265613282158
1689,-11.331872571994609
1690,2.332016050844686
1691,8.560309393966236
1692,2.3129168452451268
1693,-11.940251953428742
1694,-29.819287101252485
1695,-47.54427843355188
1696,-61.51531551683365
1697,-68.41248764380543
1698,-65.54588382835391
1699,-50.68559280053523
1700,-29.931703001482674
1701,-17.314302578339266
1702,-25.4634793791447
1703,-53.31932094770673
1704,-93.41191451842133
1705,-136.8013470111
1706,-169.7177050257451
1707,-177.48107483732383
1708,-158.7415423904913
1709,-133.9591932943058
1710,-124.65411281690831
1711,-135.96638588017413
1712,-159.75609705434726
1713,-186.89333055265524
1714,-204.46817022586038
1715,-198.10069955684048
1716,-164.83100165507858
1717,-133.0991592511873
1718,-135.82525469137545
1719,-173.20936993187934
1720,-203.53158653337778
1721,-187.4119856553989
1722,-141.75064805067268
1723,-117.95765405945349
1724,-153.2930836038504
1725,-220.30701618208877
1726,-273.83953086276415
1727,-287.41070627908084
1728,-270.5006206230337
1729,-236.8593516395904
1730,-203.54697662081162
1731,-190.58357239998622
1732,-212.539215345716
1733,-246.70398135595497
1734,-255.15794585204458
1735,-218.5511837727281
1736,-169.0537695681087
1737,-146.81577719359848
1738,-162.82728010383107
1739,-192.43835124654288
1740,-211.06906305644588
1741,-216.34948744903886
1742,-218.31969581442354
1743,-224.04975901106263
1744,-229.14974735952273
1745,-226.5697306361908
1746,-213.49977806696188
1747,-193.73995832088076
1748,-171.87033950376826
1749,-154.81098915182884
1750,-151.08197422520243
1751,-165.6833611014972
1752,-186.36521556931075
1753,-195.89760282168209
1754,-186.42058744956557
1755,-168.064233435216
1756,-152.71860414559342
1757,-146.84376232571776
1758,-152.39977009197537
1759,-169.95668892542562
1760,-192.95457966508002
1761,-212.313502501087
1762,-221.40351696798825
1763,-218.79468193785215
1764,-204.07705561343028
1765,-182.31069552126064
1766,-163.68565850474442
1767,-157.7520007171879
1768,-168.9897776148373
1769,-199.87904394982797
1770,-241.0198537631768
1771,-255.2022603776677
1772,-203.7063163907551
1773,-101.73207366742645
1774,-16.499583333012197
1775,-4.668895765991692
1776,-41.78006059074687
1777,-71.63312667028913
1778,-62.218142098961835
1779,-38.50515419510157
1780,-32.124209493671515
1781,-43.625353738854756
1782,-44.16863187661511
1783,-12.624088047252371
1784,18.09823442211382
1785,-5.001706974915578
1786,-96.76395391647566
1787,-188.05854724482379
1788,-202.66552695870814
1789,-140.62493220571014
1790,-68.51680127453437
1791,-41.45117158729772
1792,-40.028079691726816
1793,-20.05756125339758
1794,30.64034895212535
1795,62.41561704713786
1796,23.708210059712655
1797,-60.65190406836882
1798,-107.94475647366016
1799,-60.77037736302373
1800,17.99120399439198
