800,73.37512396032434
801,58.14587949291854
802,64.31078923681616
803,87.24500413456826
804,111.14567487794102
805,120.05695190349252
806,104.16398538818612
807,74.85592524503954
808,48.0939211188288
809,39.462122381806694
810,51.40767812949434
811,69.91973717648125
812,79.95544805228383
813,68.86295899723882
814,42.63441795843846
815,16.030972585688687
816,3.8377702275347474
817,13.7439579273032
818,35.476682419185636
819,55.96109012437228
820,62.73032714721012
821,55.2215392714088
822,43.84287195627803
823,39.41047033300947
824,49.9474792009878
825,68.9310430241494
826,85.09830592736762
827,87.27341169288502
828,71.15950375677676
829,44.295725205445706
830,15.382218772177112
831,-7.340873166306665
832,-20.699408593217413
833,-24.657245855064502
834,-19.22524366496873
835,-5.97426110593824
836,8.4988423658815
837,16.583206917998723
838,11.002972338404106
839,-6.708721967565907
840,-25.404736980334746
841,-33.4559340691585
842,-22.038174995149348
843,0.7616780857160848
844,20.547762619639798
845,23.01621565206733
846,3.818173824797668
847,-22.89422662688412
848,-40.95484987703094
849,-35.743560511831674
850,-10.261223532361328
851,21.256295642680016
852,44.40013117427861
853,49.70241680044819
854,43.3042858336039
855,34.41187115796038
856,31.985305226980017
857,38.96772006083302
858,52.15524724390889
859,68.07001792235224
860,83.19116280161961
861,93.76781214409311
862,95.9800957667012
863,86.08514303858556
864,65.44208287879701
865,43.47804375401756
866,30.331153676318536
867,34.51954020095309
868,50.37333042416958
869,64.89265098105989
870,65.0376280434466
871,45.843387317791894
872,21.734054043132346
873,9.976752989058696
874,26.496608453712724
875,67.40074426181673
876,113.65828376274203
877,145.8643498285919
878,150.53106485232638
879,135.41955074590805
880,113.06592893848392
881,95.7113203745912
882,87.92784551239492
883,86.03862432195547
884,85.95377628351434
885,84.40542038582589
886,82.40767512450384
887,82.36565850040006
888,86.68248801801201
889,97.48428068392059
890,116.5021530052436
891,145.42822098813758
892,184.71060013630722
893,225.56940544955432
894,255.08675142235097
895,260.39875204243435
896,237.5415207894339
897,199.87117063353344
898,162.73881403413634
899,140.17656293858
900,132.6915287808706
901,132.85082248043727
902,133.12955444091676
903,129.29183454896884
904,125.36777217310828
905,126.67347616256939
906,138.12105484619406
907,159.05361603134315
908,184.71226700284205
909,210.23911452193533
910,231.1412648252799
911,244.07182362395815
912,245.91289610251806
913,233.80658691803728
914,209.94100019920188
915,180.982239545433
916,153.7534080260084
917,133.54660817923286
918,119.77194201161547
919,110.42651099708655
920,103.66041607621901
921,101.2687576554872
922,108.8376356065528
923,132.12814926555347
924,173.5123974324424
925,220.09747837032137
926,254.70648980482838
927,260.6455289235164
928,236.54169237528004
929,198.9740762697893
930,165.54677617695415
931,150.24188712640535
932,148.61350360700453
933,150.38471956636386
934,145.48762841040661
935,131.91532300293056
936,117.99389566520586
937,112.7234381755843
938,122.22804176913905
939,136.70179713732432
940,140.8627944276477
941,119.76312324337505
942,73.2048726432431
943,20.99313114121287
944,-15.637013293783639
945,-19.78947323804823
946,0.23283818667550804
947,27.070007313032875
948,43.54911992789857
949,41.78926127223349
950,26.83551604097829
951,4.689968382946063
952,-18.130298099250467
953,-32.047200349256855
954,-26.381655857019723
955,9.20441734119595
956,69.46210066280946
957,127.6234749789337
958,155.33862061442233
959,131.31261734792042
960,74.50854441194315
961,18.13748049296464
962,-5.141496268469382
963,13.738691722393014
964,52.50612151465339
965,86.72186961193165
966,96.34301197254626
967,84.92362400972797
968,63.87478059182558
969,44.4015560425496
970,30.04602414123201
971,14.865258123090825
972,-7.678669320477638
973,-41.90068604159114
974,-81.32172043555511
975,-116.19470144052593
976,-137.0635585371574
977,-142.93822174821344
978,-142.31662163818874
979,-144.19768931289764
980,-154.47235641905354
981,-165.78855514382394
982,-167.27521821437404
983,-148.62427889740502
984,-112.28567099865359
985,-73.26232886239632
986,-47.09318737092781
987,-45.05918194402693
988,-63.0952485384023
989,-93.68532364713519
990,-129.27134429909256
991,-161.68224805833142
992,-182.23397302348803
993,-182.2234578271573
994,-158.21264163524665
995,-122.31546414631975
996,-89.50786559093376
997,-73.68078673094897
998,-74.65416885883042
999,-82.49695379694094
1000,-87.08608389680921
1001,-82.57650203838602
1002,-73.1991516292992
1003,-64.64697660407819
1004,-62.61292142337061
1005,-70.89793107314745
1006,-80.56595106390341
1007,-77.4299274298146
1008,-47.63280672792007
1009,5.38546396273523
1010,53.35193704195808
1011,66.06066438929156
1012,21.831697364889806
1013,-54.60491318956883
1014,-122.81611694997719
1015,-143.36886410887018
1016,-109.28410537448417
1017,-51.72079196980576
1018,-4.0338756316205036
1019,9.52269139047894
1020,3.1879563350703393
1021,1.3589659299032064
1022,27.201766392906393
1023,78.61540343321576
1024,130.10192225220726
1025,155.2633675445386
1026,138.2867834992103
1027,96.71421380063293
1028,54.64070162970711
1029,34.77628966491466
1030,41.48902008341702
1031,66.27893456217316
1032,100.37507427905985
1033,135.19547991400668
1034,162.5811916501434
1035,174.43324917494738
1036,163.78069168141883
1037,133.36755786925278
1038,90.84888594602398
1039,43.93671362838904
1040,0.8540781432875519
1041,-29.36298377084313
1042,-37.60143586283175
1043,-17.702242367548024
1044,20.067631995350894
1045,59.76822202267067
1046,85.85556202894895
1047,93.98468584772854
1048,92.09862683283518
1049,88.76541785968038
1050,90.29409132655655
1051,94.97967915594836
1052,99.35321279585332
1053,100.16172322111288
1054,97.20724093474382
1055,92.49979596928915
1056,88.10741788817268
1057,86.35813578705802
1058,90.1559782952254
1059,102.48397357694466
1060,124.46514933286926
1061,143.27153280142647
1062,139.72415076022662
1063,95.17002952747225
1064,15.087194963378352
1065,-62.58632752840367
1066,-97.60451299934539
1067,-63.12933695460288
1068,11.006224648435818
1069,80.01819540160432
1070,101.69859844742768
1071,75.99845648059363
1072,36.950791749421114
1073,19.528626057367546
1074,42.106980764499895
1075,84.32487678900452
1076,120.28633460869787
1077,127.6173742625324
1078,110.84501535211803
1079,86.88427704325295
1080,72.4431780674513
1081,73.07073672348542
1082,79.84297087892901
1083,82.85989797170987
1084,75.63453501167442
1085,64.76589858214084
1086,59.99100484146766
1087,70.11786952464536
1088,91.58150794486119
1089,112.05493499509612
1090,119.0701651497111
1091,106.78921246605205
1092,82.150090586043
1093,53.55181273780909
1094,28.235391737281134
1095,6.713839989817643
1096,-12.925830508172112
1097,-32.47360816759374
1098,-50.95548180503556
1099,-64.6664406411328
1100,-69.79047429891853
1101,-64.6105728021721
1102,-53.00372657377193
1103,-39.773926434036184
1104,-29.41916359905281
1105,-23.947429679021297
1106,-24.173716676576078
1107,-30.817016985111877
1108,-41.57332338710148
1109,-50.33562905241524
1110,-50.7449275366298
1111,-40.52821277933799
1112,-31.25347910245091
1113,-37.425721208498544
1114,-71.43793417892721
1115,-123.81911347239111
1116,-172.2462549230404
1117,-194.48535473880838
1118,-182.53740949969506
1119,-149.43641615604156
1120,-109.92537202680887
1121,-76.57927479784576
1122,-53.42212252016634
1123,-42.36891360820664
1124,-44.95964683809507
1125,-58.25832134590564
1126,-76.40493662591689
1127,-93.53349252887438
1128,-107.11298926022664
1129,-119.92742737839035
1130,-135.23480779298552
1131,-154.23113176308289
1132,-169.52940089544427
1133,-171.50661714276612
1134,-151.96078280190977
1135,-119.98190051214078
1136,-96.16897325335322
1137,-101.0610043443121
1138,-137.4369974408728
1139,-180.0459565342071
1140,-201.14988594903207
1141,-181.86679034182725
1142,-138.61167469906013
1143,-96.57954433539908
1144,-78.65040489193507
1145,-81.84126233440111
1146,-87.08612295137391
1147,-75.42799335249492
1148,-45.891880466686416
1149,-23.282791540348626
1150,-34.41773413557894
1151,-92.91071612837277
1152,-166.6677457068372
1153,-213.69483136938925
1154,-197.81498192296112
1155,-135.80020648120535
1156,-72.63251446270169
1157,-52.5229155891484
1158,-84.91441988356837
1159,-137.56703766851388
1160,-175.7757795642592
1161,-178.21265648700137
1162,-160.31967964706018
1163,-143.8068605470744
1164,-146.30821098020078
1165,-157.73674302831114
1166,-156.4794690601866
1167,-122.22040172971901
1168,-61.52455397410358
1169,-5.7999390120330645
1170,12.739429658093286
1171,-17.995461740008068
1172,-69.64962725871919
1173,-109.00008122470172
1174,-110.50383823710581
1175,-84.57391316576377
1176,-52.12632114938242
1177,-32.689077593745424
1178,-29.260198169909927
1179,-34.03969881240937
1180,-39.118595717443895
1181,-40.193905341086975
1182,-37.90864439748657
1183,-33.26482985705752
1184,-27.249478944690964
1185,-20.810609137959545
1186,-14.8922381653083
1187,-9.886384004272259
1188,-2.446064879673031
1189,12.33870073817161
1190,38.94889413524197
1191,73.92649635560338
1192,106.91748820320845
1193,127.38385024366926
1194,129.2815628060589
1195,114.50860598469444
1196,85.77295964092536
1197,47.71760340490346
1198,12.273516677387306
1199,-6.912321368495213
1200,1.4350682145432074
1201,28.45866414972079
1202,55.195444937968205
1203,63.19838885970148
1204,48.01847397659003
1205,19.145678133331785
1206,-13.334021040574044
1207,-41.40464612906635
1208,-61.112219927756996
1209,-68.96976544216068
1210,-63.92730588593804
1211,-54.793864679139915
1212,-52.88246544644062
1213,-67.16413201539854
1214,-86.0788884146832
1215,-87.44475887234239
1216,-50.15976781404606
1217,20.21706013865696
1218,91.77170017008848
1219,131.6291272721719
1220,126.43131624617581
1221,99.3112417044531
1222,77.42287807217053
1223,79.67819958903601
1224,94.53118031103622
1225,103.40579411215549
1226,90.73501468609356
1227,63.72381554799904
1228,39.974170036176474
1229,36.20005131380367
1230,52.37843237063953
1231,74.30828602474048
1232,87.45558492415967
1233,84.7803015486461
1234,70.76340821135636
1235,50.86787706053656
1236,29.464680081226106
1237,7.776789096943503
1238,-13.526824228626538
1239,-33.079188389951014
1240,-45.690332037963344
1241,-44.848283978396466
1242,-24.932073170094554
1243,9.723271276645391
1244,48.53272010174442
1245,81.02124389700475
1246,102.7368131077692
1247,115.83939803457815
1248,122.83196883482196
1249,126.95949552439015
1250,132.8839479793196
1251,145.42729593742843
1252,165.52450899996347
1253,180.6315566332296
1254,175.29040817021996
1255,138.2470328122472
1256,85.19639963056125
1257,42.45447756796784
1258,34.27323544045248
1259,58.4636419387798
1260,94.8466656301116
1261,123.16727495960185
1262,131.7474382520022
1263,118.67112371325129
1264,82.62729943206978
1265,30.7729333815505
1266,-13.646006579269851
1267,-25.57155270382009
1268,8.614262643574875
1269,65.25540698926488
1270,113.10884775183877
1271,126.67855224368759
1272,113.30148767256196
1273,91.91762114312678
1274,80.35191965850663
1275,84.63035012183173
1276,103.84187933777775
1277,136.63947401410041
1278,174.53610076316727
1279,202.2987261034841
1280,204.63731646121414
1281,178.00583817170082
1282,136.45125748097507
1283,95.44954054726713
1284,65.56065344250692
1285,45.519562153824154
1286,32.326232585044636
1287,24.64063055817678
1288,27.64672181489459
1289,48.136472018027234
1290,90.30484675301705
1291,141.4178115294062
1292,181.95633178229946
1293,194.43137287381614
1294,184.32390009454866
1295,171.49687866502427
1296,175.1142737371374
1297,194.50205039560024
1298,210.1401736593698
1299,202.13360848308912
1300,169.81731975850835
1301,139.99427231590653
1302,141.506430925504
1303,184.79276029888388
1304,240.5822250903866
1305,274.4087898985226
1306,263.9424192673514
1307,227.0640776878945
1308,189.9827295995001
1309,174.27533939123987
1310,177.71387140327352
1311,190.47128992822672
1312,202.98255921254713
1313,207.89064345787665
1314,198.89250682239162
1315,170.93411342216586
1316,135.08442733250467
1317,113.6714125892886
1318,128.1370331903072
1319,174.1622530965842
1320,221.78503623370307
1321,240.37334649312106
1322,220.8631477334893
1323,184.53240378195096
1324,154.86807843544284
1325,143.7861354620045
1326,140.15953860205173
1327,130.1352515696708
1328,107.1782380538998
1329,85.53746171999956
1330,83.1408862107246
1331,110.87747514758121
1332,150.93719213209897
1333,178.1840007470655
1334,172.24286455779293
1335,140.6607471133393
1336,101.10661194776458
1337,69.12542258134272
1338,42.126142521808106
1339,8.416735265554962
1340,-42.159835701138036
1341,-99.57360690090354
1342,-140.07561486407394
1343,-140.9708961274946
1344,-105.37548723332384
1345,-59.776424727854646
1346,-30.917745160323648
1347,-25.88448508174497
1348,-28.319681043733
1349,-20.683369597346427
1350,1.780412708080803
1351,23.844629326077666
1352,28.62424371420002
1353,11.986219335161877
1354,-4.08048034202784
1355,5.602108159069758
1356,52.42494832344164
1357,110.79800364575021
1358,148.96923763144332
1359,145.35361379785718
1360,114.16609567532578
1361,77.50864680827453
1362,53.6462307563188
1363,43.139811095330515
1364,41.45835141853968
1365,44.3448153375939
1366,49.18316648363816
1367,53.9613685083641
1368,57.45638508508273
1369,64.56017990976034
1370,83.02771670208222
1371,119.14295920647692
1372,164.082871193159
1373,200.2204164591585
1374,210.86055882933942
1375,193.36626215742854
1376,155.13549032701303
1377,104.21620725255616
1378,56.30137688040304
1379,33.69596318976073
1380,57.71293019370387
1381,119.44924194014948
1382,178.65886251284064
1383,194.5577560323145
1384,159.5708866568766
1385,107.11121858355637
1386,72.71271604906451
1387,69.04834333075269
1388,75.44206474754264
1389,68.76284466088055
1390,42.17664747566232
1391,16.790437641167046
1392,16.365179651978906
1393,49.93183804889759
1394,97.02337741986594
1395,133.67676240086166
1396,146.1959576768022
1397,144.76492798244635
1398,142.95663810327642
1399,148.8960528763855
1400,156.0571371913611
1401,155.48185599114913
1402,140.96917427293283
1403,114.83905708898419
1404,81.05046954753288
1405,44.66837681361085
1406,14.631744109896317
1407,0.7445367175650972
1408,9.184719977116401
1409,31.743259289205525
1410,56.63012011547835
1411,73.38626797937104
1412,77.49466846694395
1413,66.08328722768238
1414,39.939089975297975
1415,17.880042488532126
1416,24.29811061194596
1417,75.72526025670777
1418,145.9864574013809
1419,194.4586680926941
1420,188.5698584463189
1421,143.6409946476324
1422,92.56004295248385
1423,64.08196968794891
1424,60.17574125307874
1425,72.25732411965146
1426,92.12968483290842
1427,114.4197900122972
1428,134.93660635219112
1429,150.9421006226321
1430,170.22123967003336
1431,205.21699041790816
1432,265.0803198675785
1433,333.61019509887956
1434,382.8875832708518
1435,389.16445162246237
1436,362.51176747326826
1437,329.16449822411323
1438,313.19161135781906
1439,319.89307443984944
1440,345.37685511898144
1441,383.9869211279847
1442,415.92724028427165
1443,414.34278049055865
1444,357.67150973551725
1445,269.68539609442723
1446,196.9414077298161
1447,181.3165128920955
1448,223.38167992019953
1449,302.9618772422082
1450,398.7850733759842
1451,481.8482369297726
1452,519.2863366028369
1453,484.64934118606016
1454,404.3132195625467
1455,330.5039407082386
1456,308.00247369250064
1457,320.90278767871587
1458,324.40185192487843
1459,280.6156357841728
1460,205.83810870556044
1461,141.2732402343454
1462,122.5730000127578
1463,144.09735778051072
1464,182.05728337536766
1465,214.49774673370666
1466,232.64671789105796
1467,233.22016698267635
1468,214.34706424406704
1469,183.06038001154502
1470,149.87408472276093
1471,123.57114891724177
1472,102.66254323691737
1473,81.91623842665012
1474,57.16520533474977
1475,30.034414913506225
1476,4.095838219687721
1477,-17.73455358494084
1478,-35.78578923310761
1479,-51.3748973515394
1480,-65.40190646045448
1481,-76.90584497307191
1482,-84.41474119511713
1483,-87.77662332433556
1484,-92.060519450004
1485,-103.62745755245578
1486,-123.03146550259498
1487,-130.50857106143485
1488,-101.8478018796095
1489,-27.841185496922662
1490,54.57525065812388
1491,99.6204792687904
1492,81.5754731305542
1493,28.57820515156709
1494,-22.310351646900017
1495,-45.380224130002716
1496,-41.40643904888566
1497,-14.975023040230553
1498,22.20499737416867
1499,44.13659578784791
1500,23.39874591010721
1501,-41.47957843356653
1502,-107.19640330106904
1503,-126.62575463325538
1504,-87.35165825351942
1505,-28.10113986738088
1506,9.002774937934191
1507,8.376060693907675
1508,-12.339307948867827
1509,-33.64535622028143
1510,-42.48710923028921
1511,-32.61559196852522
1512,0.9101706960991578
1513,44.66115401580373
1514,68.9743333643155
1515,46.38268423727641
1516,-11.828817747376888
1517,-65.94119684901852
1518,-79.79847720395628
1519,-62.37868282504405
1520,-49.850837601298736
1521,-73.04996529753043
1522,-115.98808955395816
1523,-139.8222338858368
1524,-113.85942168308884
1525,-60.13967620992935
1526,-21.260020604500824
1527,-30.189477878501748
1528,-72.37007091682699
1529,-118.69782247720286
1530,-147.06875518982451
1531,-161.93189155699565
1532,-174.00725395277186
1533,-191.51886462260336
1534,-215.40774568298275
1535,-245.26991912108224
1536,-273.322406794412
1537,-275.33923043046525
1538,-225.20541162636528
1539,-126.45097184851966
1540,-33.507932432273265
1541,-4.674314581564431
1542,-49.74213936857359
1543,-114.34442773338833
1544,-141.5782004836483
1545,-120.00147829421712
1546,-84.3082817068289
1547,-69.35263112975827
1548,-80.89554683747156
1549,-102.21204897029475
1550,-117.09715753407454
1551,-120.72789239983467
1552,-114.88627330345025
1553,-101.54531984530058
1554,-83.35805148993677
1555,-63.27948756575006
1556,-44.21264726463323
1557,-28.782549641641708
1558,-19.535213614670283
1559,-17.65065796410363
1560,-19.516901332497582
1561,-20.479962224229894
1562,-17.63685900517976
1563,-12.417609902381628
1564,-6.923233003697533
1565,-3.1267462574815
1566,-2.801167472243833
1567,-7.648514316314504
1568,-17.499804317511916
1569,-29.81405486280346
1570,-41.96028319796824
1571,-52.47550642726492
1572,-60.96174151308787
1573,-66.81700527563589
1574,-66.7353143925684
1575,-55.662685398668145
1576,-30.156134685498728
1577,1.197321498932979
1578,24.444667050524913
1579,29.155886009416463
1580,22.006962560338252
1581,14.817881032950936
1582,16.391625902203486
1583,25.942181788667767
1584,40.77853345889707
1585,55.50266582577569
1586,59.027563948861825
1587,39.869213034758104
1588,2.4415984374509208
1589,-26.254294341324567
1590,-18.83547965172511
1591,22.52102830455442
1592,67.16021547465334
1593,85.68306795489661
1594,77.200571991174
1595,59.27971397930014
1596,47.77248046538898
1597,44.29785814622028
1598,44.44883386962465
1599,44.43539463484831
1600,43.22052759294638
1601,40.51022004715014
1602,37.582459453264164
1603,39.907233420047305
1604,53.58552970959863
1605,79.3813362377623
1606,108.98164107451248
1607,133.45143244435076
1608,151.26469872671532
1609,169.00942845637837
1610,192.47761032386097
1611,211.50523317583065
1612,204.66528601552727
1613,155.97275800317766
1614,90.87863845640913
1615,53.17291685068176
1616,72.939582819713
1617,121.36362615590315
1618,153.96203681078077
1619,144.77080489543005
1620,114.68492068094292
1621,91.67737459885666
1622,90.22215724161015
1623,104.02025936299196
1624,125.10867187861004
1625,147.96938586633678
1626,169.40939256679576
1627,186.16868338381482
1628,193.46024988491263
1629,185.60208380177664
1630,160.1411770307468
1631,132.53052163330267
1632,124.38110983656225
1633,148.46793403377615
1634,190.05898678483663
1635,229.14126081678114
1636,252.2367490243114
1637,257.60244447030436
1638,245.0603403863479
1639,223.30543017325726
1640,210.4897074016235
1641,222.91416581233898
1642,250.78579931716286
1643,267.8746019992468
1644,253.36756811371833
1645,219.32169208822233
1646,189.56896852350746
1647,180.74139219398694
1648,186.94195804832998
1649,197.9736612100396
1650,209.9664969780515
1651,229.98146082733456
1652,265.3355484094918
1653,304.28275555337586
1654,316.2160782657065
1655,274.91451273169787
1656,204.93305531568694
1657,159.37170256177615
1658,177.00545119447634
1659,225.08229811936235
1660,249.14224042373098
1661,219.89027537726452
1662,172.00240043271515
1663,149.54961322657346
1664,167.16091157976734
1665,198.7732934983478
1666,216.4447571742121
1667,208.97530098578682
1668,177.99092349877537
1669,127.46962346686723
1670,75.01039983247665
1671,43.835251727493414
1672,47.31117847402129
1673,65.80817958514581
1674,73.01825476570593
1675,60.043403913054135
1676,47.98062711785951
1677,59.48292466488783
1678,88.38329703380714
1679,101.90974490000372
1680,72.33626913539138
1681,21.544870809244458
1682,-4.371448810962647
1683,23.002311741288395
1684,63.01415413241375
1685,58.616080229596264
1686,-8.06890789834415
1687,-80.11280798006737
1688,-94.64661754081226
1689,-47.07433390150436
1690,9.480045822164357
1691,24.59252472065691
1692,-6.991893908484599
1693,-67.52320655967651
1694,-136.59040951836596
1695,-184.20149886004947
1696,-178.22547044930434
1697,-113.87531993881294
1698,-37.7390427683531
1699,-0.16763416380672425
1700,-10.119089136138427
1701,-37.313402480368495
1702,-52.82956877453853
1703,-50.84858237865865
1704,-36.45443743364922
1705,-14.456127860277775
1706,11.508352641940292
1707,38.01201059581672
1708,58.94685274760832
1709,63.809886068128435
1710,42.584117753875034
1711,0.023555228171971976
1712,-47.17779385767335
1713,-83.37592162321744
1714,-101.8088199576905
1715,-99.13548051882208
1716,-77.19089473162421
1717,-51.954053787193516
1718,-41.418948641475254
1719,-47.82257001402468
1720,-53.222908386761446
1721,-40.48795400269955
1722,-15.998696864674457
1723,-0.5711267340502673
1724,-9.91123312941454
1725,-36.19700532526804
1726,-65.12343235068238
1727,-82.40650298797391
1728,-73.829205771327
1729,-26.7515289854382
1730,41.075539335875874
1731,84.65401141107759
1732,67.05889971231773
1733,12.037216966863525
1734,-31.860023841461043
1735,-32.59380947081445
1736,-3.939126419873901
1737,32.59603907365272
1738,58.9997010345196
1739,61.56587375147046
1740,30.235571778754093
1741,-12.276190062324531
1742,-24.98939668185176
1743,16.19996728028127
1744,71.43791745595627
1745,86.44346975043572
1746,42.83064034398558
1747,-21.16555430648441
1748,-64.62909746577952
1749,-77.88797211874589
1750,-73.25416096857953
1751,-60.73864643514116
1752,-37.1634106532274
1753,4.43256452915648
1754,56.9352975525444
1755,86.32780714778346
1756,58.50811233780405
1757,-9.751767560572262
1758,-59.334812934816
1759,-44.218003874866554
1760,0.35067982873806613
1761,10.913258686702648
1762,-37.95624648711964
1763,-88.50481457383194
1764,-75.55042414757463
1765,-7.332053473584892
1766,40.11131949375522
1767,3.0907171129019844
1768,-88.92183794287303
1769,-170.86432268346198
1770,-200.50271379989317
1771,-189.26098766229006
1772,-155.95112031779718
1773,-113.44708748850462
1774,-68.90386456934266
1775,-29.27742662595756
1776,-1.648748392570269
1777,6.875195730179257
1778,-2.429568322583691
1779,-8.692014277776252
1780,10.488884477866122
1781,50.08915490002801
1782,79.15282428906448
1783,72.04792029228793
1784,41.97347090625681
1785,16.671504479099895
1786,14.868049712853463
1787,35.381135665816146
1788,73.47079175492763
1789,107.8520477581742
1790,102.78593381700466
1791,35.10548043877134
1792,-47.68828150080844
1793,-74.68032075516658
1794,-21.721605704381545
1795,44.99489564735086
1796,53.811215674259074
1797,5.911387131573974
1798,-42.34755684189349
1799,-47.282582721126346
1800,-28.48565659227461
