800,120.12311131416845
801,140.27957931179208
802,142.04744055633
803,128.15489946838443
804,108.78615999731119
805,94.2304256182324
806,91.73089932910443
807,98.03978364779414
808,107.64328060918979
809,115.13959176234493
810,118.87991816764043
811,121.93746039398593
812,127.67441851603235
813,138.7709921114356
814,152.55638025812277
815,163.85278153160198
816,167.46739400229671
817,160.65441523289792
818,146.83704227576618
819,130.4094716703221
820,115.67589944050906
821,105.40352109224295
822,100.93453161091747
823,103.56112545891847
824,113.53349657317176
825,125.66783836271406
826,133.0153437062918
827,128.67920494999544
828,109.77861390489124
829,80.34976184471725
830,45.1098395035724
831,8.967037073653046
832,-20.95345579699824
833,-36.16245000671461
834,-28.157757002392827
835,6.066811218322982
836,51.780442104909525
837,90.69632255183478
838,105.08463889646919
839,91.99757691700324
840,64.61832183041952
841,36.93705829045393
842,21.034970385609995
843,17.47224163718056
844,22.515054997299558
845,32.43659284702335
846,44.94803699442127
847,60.43556867270945
848,79.57236853839277
849,102.65161666943277
850,125.51249256345545
851,141.1761751359536
852,142.61184271854017
853,125.91767305721532
854,97.06284331064035
855,63.95253004846836
856,34.368909249665194
857,13.210156300874587
858,2.4154459947949363
859,3.7899525285856726
860,17.886849502288896
861,38.611309917285325
862,57.683506174758804
863,66.93561007418975
864,65.53479281187538
865,64.2582249794632
866,74.90007656251237
867,107.20451693907489
868,152.93671487830306
869,194.56283853906643
870,214.50305546860636
871,204.83953260120416
872,180.84943625686174
873,161.2169321400297
874,163.36218533831834
875,186.04536032127635
876,213.79062093913944
877,230.7601304216496
878,226.00405137685811
879,206.11454578996563
880,181.62277502217603
881,162.8078998095907
882,153.4480802620874
883,150.31247586225618
884,149.82424546432685
885,149.2765472931378
886,150.52753894311354
887,156.91837737726564
888,171.71721892620462
889,194.36821928719746
890,218.71353352320875
891,238.14531606198943
892,247.4277206951774
893,251.4239005774125
894,259.535008225469
895,281.1211955174231
896,317.48061369182415
897,354.2424133468867
898,375.22874443970886
899,366.24275628550095
900,333.427597556848
901,294.85841628296566
902,268.7473598489969
903,265.4485749953237
904,275.58120781688376
905,286.70940376252474
906,287.1323076343606
907,275.554063587153
908,258.3248151277112
909,241.97770511430826
910,232.00187575612472
911,230.58346861268546
912,239.27062459333865
913,259.27348395674744
914,285.6611863103917
915,308.0338706100847
916,315.8006751595258
917,301.9117376098493
918,272.9111949592043
919,238.60418355233742
920,208.64083908021166
921,188.69729657963398
922,180.33769043288885
923,184.93015436739734
924,202.44682145540537
925,226.57682411366477
926,249.2382941031483
927,262.50436252876716
928,263.17815983912624
929,253.6288158262705
930,236.53045962546275
931,214.76821971497884
932,192.24022391590734
933,173.1655993919685
934,161.70447264936593
935,159.4289695366242
936,164.6102152444746
937,175.29833430572216
938,189.29945059515921
939,203.06368732947521
940,212.5721670671901
941,213.8810117085959
942,206.52434249572798
943,194.7352800123299
944,183.08794418384423
945,175.34945427743878
946,170.6169289019981
947,166.3154860081795
948,159.8792428884608
949,149.53531617719818
950,134.6158218507062
951,114.52887522735728
952,89.437590967691
953,63.92708307452813
954,44.19046489310858
955,36.32684911124852
956,42.29334775949974
957,58.32407221132598
958,80.22813318329645
959,103.65664073530206
960,123.29470427075466
961,133.49343253683946
962,128.72093362474698
963,108.45631496994247
964,78.81968335243982
965,46.40414489707655
966,17.35880507382899
967,-4.483231301883279
968,-16.064860068874623
969,-14.484977719848757
970,-2.1464814010378177
971,11.949731088132467
972,18.39976129545721
973,10.250710116311893
974,-7.508322205922013
975,-26.277236079460636
976,-37.724932563674884
977,-41.58731336866913
978,-46.62228085480638
979,-62.06673803226113
980,-93.33058856053685
981,-129.53473674797715
982,-155.46908755126788
983,-156.5885465749252
984,-133.43702007076354
985,-101.38841493737527
986,-76.46263871956762
987,-69.92659960781384
988,-75.93720643767301
989,-84.80036868922798
990,-87.25799648645989
991,-81.4900005966756
992,-71.93029242987177
993,-63.199784038117286
994,-58.084388114912144
995,-53.909017994530586
996,-47.00758765138198
997,-34.11401169931378
998,-17.324205390952557
999,-2.433084616992346
1000,4.687434094486889
1001,1.0144335787554155
1002,-9.767003964852847
1003,-23.00379697221433
1004,-34.040864513654014
1005,-39.162126293202164
1006,-41.00850264782457
1007,-44.84391454664183
1008,-55.82128359015951
1009,-73.02653200945497
1010,-86.86758266538163
1011,-87.06435904774844
1012,-66.39278527450188
1013,-34.232786090880836
1014,-5.573286868580908
1015,4.946786395104937
1016,-5.638492921851139
1017,-26.59205206533443
1018,-46.387818904220694
1019,-55.50072192945845
1020,-52.89069025319259
1021,-39.7596536078363
1022,-17.420542345160356
1023,10.452712564632748
1024,38.01117953385619
1025,59.31292635828504
1026,70.06102021809602
1027,71.10152767884938
1028,64.29051469245678
1029,51.628046598159926
1030,36.82618812351757
1031,24.812003385417484
1032,20.533555891068318
1033,26.752908539023338
1034,41.26412362020892
1035,61.174262818940406
1036,83.173387213983
1037,100.40155727958881
1038,104.1948328865492
1039,86.02727330327434
1040,47.91493719685241
1041,8.707882634129419
1042,-11.220832917186272
1043,3.5618474125585635
1044,41.00797989606508
1045,79.59162021019438
1046,98.30582343710739
1047,91.2026440653517
1048,68.83413599103369
1049,42.60435251893796
1050,21.941346363684715
1051,9.296169650875527
1052,5.576873918284036
1053,11.534510116985984
1054,25.722128612573215
1055,45.10277918631073
1056,66.59851103635265
1057,87.768372778919
1058,107.55641244951403
1059,125.0866775041377
1060,139.55821482050305
1061,150.77607069924852
1062,158.80229086520012
1063,163.69592046857542
1064,165.05700408625853
1065,161.86558572303147
1066,153.0577088128448
1067,138.45141622007213
1068,121.57975024078587
1069,106.96275260403672
1070,98.97446447313814
1071,99.64892644693828
1072,109.12217856113966
1073,127.47226028958175
1074,151.72021054556353
1075,171.78406768313653
1076,176.55786949844696
1077,157.18365323104263
1078,121.93845556520864
1079,86.99531263130302
1080,68.31026000710699
1081,71.25233271915204
1082,87.46456524410132
1083,107.66099151006892
1084,124.07264489802947
1085,134.7515582431406
1086,139.1407638361561
1087,136.86129342477943
1088,129.900178215059
1089,121.92344887277613
1090,116.61613552484232
1091,115.55726776068514
1092,116.26087463367548
1093,115.7809846625205
1094,110.87862583267633
1095,96.67482559777818
1096,67.67861088105929
1097,18.943008076781553
1098,-42.61795694834109
1099,-98.37725885369218
1100,-129.20687282331346
1101,-123.54377456446855
1102,-89.94894030617434
1103,-40.315346797764505
1104,12.963028692589432
1105,53.52720837933339
1106,63.09121396099363
1107,24.042066621659615
1108,-55.87021296754938
1109,-136.99760464698556
1110,-177.6280887670182
1111,-152.3476461865066
1112,-91.06825827133616
1113,-35.45490689291
1114,-23.36057442665515
1115,-53.13624375050313
1116,-99.92189824339766
1117,-138.75752178377843
1118,-156.1220987480574
1119,-155.39761400911084
1120,-141.3340529347497
1121,-119.01240138619323
1122,-94.83064571654177
1123,-75.51477276924561
1124,-67.33276987656245
1125,-71.07062485801907
1126,-83.9393260188699
1127,-103.07686214854948
1128,-125.15822251912505
1129,-146.11339688374574
1130,-161.80737547506396
1131,-169.6041490037187
1132,-173.10470865673597
1133,-177.53204609597742
1134,-187.41015345657615
1135,-198.64102334535892
1136,-201.4016488392772
1137,-185.9120234838283
1138,-152.22414129147546
1139,-115.91599674006648
1140,-93.93758477125266
1141,-97.05090078888861
1142,-111.32994065746425
1143,-116.70570070049143
1144,-95.60317769891299
1145,-58.154368889528996
1146,-31.73327196335049
1147,-43.5348850640421
1148,-98.20620678629348
1149,-168.05723617421972
1150,-222.88997271974768
1151,-241.0974163610099
1152,-230.85156748072222
1153,-206.7754269045854
1154,-182.40599589964586
1155,-161.40027617269334
1156,-142.1472698686248
1157,-123.03897956882975
1158,-104.10640828956457
1159,-87.33655948031264
1160,-74.83843702217746
1161,-67.71904522622935
1162,-64.32838883187469
1163,-62.555473005240856
1164,-60.7773033375106
1165,-60.70588584330835
1166,-65.44922695904461
1167,-77.90633354128477
1168,-96.83321286508726
1169,-117.15687262239408
1170,-133.6723209203392
1171,-142.9845662796397
1172,-145.34461763292347
1173,-141.43648432309055
1174,-132.2921761016496
1175,-120.52870312708183
1176,-109.22807596317216
1177,-101.25430557734944
1178,-96.86040333905476
1179,-94.5883810180494
1180,-93.02125078278368
1181,-93.62402519871648
1182,-101.80371722667223
1183,-123.25834022116032
1184,-158.15290792873202
1185,-190.26243448628156
1186,-200.3409344194315
1187,-173.1664226408102
1188,-121.07291444843759
1189,-67.88342552401264
1190,-36.40697193127198
1191,-30.04957011431179
1192,-35.35623689591739
1193,-38.39398947589325
1194,-33.25584542939032
1195,-28.191822705226514
1196,-32.90493962422988
1197,-52.909214877552586
1198,-77.98666752499776
1199,-94.21831699334689
1200,-89.3621830746888
1201,-65.49628592473891
1202,-31.888646061162945
1203,2.1877156381051464
1204,28.766777936521976
1205,41.190519240635695
1206,32.90491760173791
1207,4.421950717567597
1208,-29.90340406602627
1209,-54.10116975341225
1210,-57.44436969747767
1211,-50.47202759795982
1212,-49.119167499780815
1213,-67.00881379134626
1214,-97.52099120287312
1215,-123.56772480472682
1216,-128.605040005712
1217,-110.7999625514185
1218,-82.8455185225339
1219,-58.000734333161745
1220,-42.994636729144986
1221,-32.33725278637576
1222,-19.19460990915104
1223,0.4852641715515347
1224,20.496341399728408
1225,32.256593396019525
1226,28.735991459410798
1227,14.614506568890647
1228,-0.07289061485971615
1229,-5.710229747788617
1230,-0.5255408008124505
1231,10.610145941886003
1232,22.647799884514825
1233,32.80239012134916
1234,41.78088543842023
1235,50.57825431518722
1236,59.180464926188506
1237,64.68548514275426
1238,63.67028253465287
1239,53.92482437176841
1240,39.90407762578434
1241,28.359008971847288
1242,25.653584790232344
1243,33.787771168026666
1244,52.01653390079446
1245,79.37483849424461
1246,110.03265016590012
1247,132.8099338467673
1248,136.3386541830132
1249,119.29377553760787
1250,99.65026199201202
1251,97.5720773478406
1252,124.92318512850943
1253,164.8205485809267
1254,194.1621306771267
1255,194.21489411595758
1256,174.29980132472156
1257,154.77581446084878
1258,154.40689541355096
1259,171.26800580548115
1260,189.35210699439085
1261,192.91816007478883
1262,182.29312587958702
1263,176.08596498176667
1264,193.7766376960335
1265,239.14210408045437
1266,286.1323239381218
1267,305.34025681880485
1268,278.43186202058314
1269,223.1470985915239
1270,164.56192533129433
1271,125.1483007928382
1272,112.36618328399527
1273,128.38653086916383
1274,173.58630137093496
1275,229.8954523717348
1276,268.3919412154628
1277,261.496725009134
1278,212.92176062452018
1279,155.91400469976543
1280,124.51241364105408
1281,131.65994362421952
1282,158.69855059638394
1283,184.39519027759525
1284,195.13281816244307
1285,195.57938952170662
1286,193.09885940396998
1287,192.48918263723863
1288,188.48031383058697
1289,173.31720737576507
1290,142.61481744882622
1291,113.93609801174534
1292,113.63400281403483
1293,164.6694853943718
1294,251.65049908221044
1295,335.17799699938223
1296,376.9919320617373
1297,371.2372569807321
1298,342.8769242650469
1299,317.842886222199
1300,308.9830949601419
1301,310.43950238888647
1302,314.93106022208303
1303,317.11171997864585
1304,315.84443298433325
1305,310.54815037337175
1306,300.12482309002917
1307,281.79140189023383
1308,252.4248373431492
1309,211.8420798327861
1310,174.9530795595747
1311,161.50178654197043
1312,187.40815061804824
1313,237.9341214470678
1314,283.63864851107064
1315,296.80568111646426
1316,273.5381683956075
1317,226.57405930839377
1318,169.15430264381212
1319,118.1698470215415
1320,94.13464089352055
1321,117.19763254553072
1322,182.13377009874603
1323,248.01200151133344
1324,271.38627457999246
1325,234.76253694155275
1326,172.31473607451335
1327,124.34481930061884
1328,117.22973378642018
1329,137.7724265448469
1330,165.79584443673593
1331,185.10493417242287
1332,195.78064231327699
1333,202.0579152732589
1334,207.40269932048068
1335,210.8449405787469
1336,209.7945850291053
1337,202.47357851139714
1338,193.94086672580306
1339,192.68439523438064
1340,206.35610946261477
1341,231.69695470094848
1342,258.028876106333
1343,274.87081870375187
1344,278.37272738776664
1345,270.6895469240426
1346,254.24322195088462
1347,233.1916969807662
1348,213.73391640185946
1349,202.14682447955965
1350,201.38736535800672
1351,209.213483061616
1352,222.92812149658675
1353,239.0862244524469
1354,252.73173560353644
1355,258.720598510552
1356,252.12975662204735
1357,228.64315327595068
1358,184.04273170107626
1359,119.92743501863151
1360,58.35420624372273
1361,25.89598828686212
1362,41.58472395548597
1363,89.71135595543456
1364,144.56282689245927
1365,183.34007927374114
1366,200.75605550935688
1367,197.99269791379993
1368,177.53294870746686
1369,151.84275001814785
1370,138.06004388251313
1371,150.7287722476176
1372,177.64187697236594
1373,191.01829982902382
1374,165.60498250468117
1375,112.85286660274141
1376,70.40789364441116
1377,74.27800507016764
1378,120.4861422412414
1379,170.47824644109278
1380,185.79525887688214
1381,158.9921206809522
1382,114.80177291229302
1383,79.19115655800852
1384,68.20921253478627
1385,85.66388169037236
1386,134.28610480503085
1387,200.0668225929967
1388,244.58397570395937
1389,227.87150472450412
1390,143.2863501795764
1391,41.327452533952965
1392,-22.060247806328334
1393,-19.07181049249448
1394,21.734704768408847
1395,65.10723821497413
1396,87.69173003287324
1397,93.826120356307
1398,91.77934926946
1399,87.0613568079425
1400,77.76608296022641
1401,60.74946766910034
1402,36.64845083310502
1403,17.713972307974473
1404,18.43997190807022
1405,46.635389407820185
1406,86.57516454316283
1407,117.3682370129718
1408,124.32154648048709
1409,117.45303257476371
1410,112.91163489207429
1411,123.02929299737116
1412,143.08194642567832
1413,163.61353468355264
1414,176.4369972504901
1415,179.69727358035016
1416,173.48030310278045
1417,159.20802522464146
1418,145.49937933142974
1419,143.4133047886844
1420,161.22874094342478
1421,190.69062712553932
1422,217.4829026492389
1423,230.0555068144331
1424,234.67937890817666
1425,244.66045820604813
1426,270.7426839735981
1427,305.9609954677344
1428,335.92233193813627
1429,348.67163262867143
1430,350.2188367787876
1431,354.5228836249353
1432,373.3527124019656
1433,401.45726234453105
1434,425.7144726884926
1435,435.1522826723267
1436,436.2536315385223
1437,443.8574585349761
1438,470.5087029164042
1439,509.43030394572816
1440,544.3802008954935
1441,561.0753330492353
1442,562.2786397029104
1443,559.2580601662612
1444,561.745533764235
1445,565.979999838366
1446,561.409397748168
1447,539.7826668725429
1448,512.7197466111447
1449,501.8205763857932
1450,524.930095641872
1451,567.6932438496824
1452,599.7279605058811
1453,594.2671851348277
1454,555.2528572899955
1455,501.64391655536383
1456,451.42630254678807
1457,413.95395491339696
1458,394.4808133389779
1459,396.85581754336454
1460,414.47990728382683
1461,435.93602235644175
1462,449.92710259749765
1463,446.1990878848628
1464,414.9599181393842
1465,350.08453332625504
1466,270.4428734564153
1467,205.32187858792713
1468,178.07248882735985
1469,173.89664433116923
1470,163.05128530709044
1471,122.24335201551548
1472,66.4027847708694
1473,24.378523943005348
1474,18.616509958583265
1475,36.825683302442485
1476,55.042984519004676
1477,54.364354213636034
1478,40.74873305404617
1479,27.76806177166145
1480,25.835281163010222
1481,31.343332091108095
1482,36.81115548683556
1483,36.10369235033431
1484,28.400883752376103
1485,14.205670835748606
1486,-4.400005183342728
1487,-19.78620301391493
1488,-23.11198128880642
1489,-11.91339856329796
1490,-3.3305133137237135
1491,-18.25338393608763
1492,-63.831068744679214
1493,-110.34362597067957
1494,-122.00411376078046
1495,-84.61359017579343
1496,-34.30411318926417
1497,-14.180740686075296
1498,-40.42653046106898
1499,-75.09554021764598
1500,-74.11882756638079
1501,-25.924450023625468
1502,24.97753498988459
1503,29.244070150409243
1504,-22.347901767378062
1505,-79.88843788901977
1506,-89.93159523885151
1507,-44.00843073863871
1508,10.078998793851497
1509,22.69463664623254
1510,-10.64757378709146
1511,-46.77068900353879
1512,-42.554765390934335
1513,0.8801407738883427
1514,43.30097332648256
1515,46.11367621621139
1516,12.694193507641103
1517,-22.77153061804711
1518,-28.67255186164948
1519,-8.4749258045249
1520,13.214292092812684
1521,14.515046492108013
1522,-1.6987178212220897
1523,-20.470055936662902
1524,-28.991022817197518
1525,-28.667673297883084
1526,-26.440062084422607
1527,-28.54824375175849
1528,-37.67927274262365
1529,-55.4492033661536
1530,-80.33108979640565
1531,-98.9729860709931
1532,-95.21694608959842
1533,-61.580023612572404
1534,-15.746272259491889
1535,20.074254492290493
1536,31.589503309056454
1537,22.204421002183153
1538,-2.245045470408513
1539,-33.00994900282785
1540,-56.34934233976128
1541,-58.376278075009395
1542,-39.89480865005862
1543,-21.121986352609383
1544,-22.905863315128954
1545,-48.75049151339408
1546,-84.56592276502579
1547,-115.66820872803237
1548,-130.56540089933696
1549,-120.21555061331492
1550,-78.16070904031858
1551,-23.506927185222594
1552,9.767744114078596
1553,-6.0177458118669165
1554,-52.76144746258706
1555,-92.71741116620069
1556,-96.38468707793254
1557,-75.70032517861182
1558,-55.446375273209924
1559,-53.302886989313265
1560,-62.06190977563983
1561,-69.07049290054874
1562,-65.76768545051254
1563,-53.72853632862916
1564,-36.09609425310737
1565,-18.60740775575232
1566,-11.559525180445235
1567,-25.4884946816328
1568,-62.003364222795426
1569,-111.42518157492759
1570,-163.14199431500492
1571,-202.67684982444734
1572,-212.05079528759325
1573,-175.92587769014972
1574,-111.09614381764914
1575,-54.98864025390958
1576,-39.950413379471684
1577,-58.24450937005713
1578,-84.27897419500277
1579,-95.91185361569842
1580,-88.12319318401751
1581,-61.017038240758666
1582,-19.568433914056186
1583,15.868574882185385
1584,21.962943449881095
1585,-10.298372691655459
1586,-59.767417804111574
1587,-101.67523592858561
1588,-121.74187088399503
1589,-120.60636626546238
1590,-100.456765442711
1591,-72.23811155845942
1592,-55.34844752679237
1593,-67.27981603155604
1594,-99.00925952471789
1595,-124.34882022474176
1596,-121.16854011495798
1597,-97.64846094191762
1598,-74.83162421375255
1599,-68.48707119851588
1600,-71.46584292254738
1601,-70.47998016879956
1602,-58.5415234751772
1603,-45.53851313286668
1604,-44.02298918467022
1605,-56.12599142331965
1606,-66.27155938978922
1607,-57.55273237161691
1608,-24.153549401201417
1609,27.57295074589547
1610,89.80672955265527
1611,143.6997487623148
1612,162.61297038007433
1613,126.72435667483387
1614,67.13787018090898
1615,37.512473699767725
1616,74.20013030177324
1617,139.22080332791666
1618,174.8334563915887
1619,150.98105338031655
1620,107.61455845753335
1621,95.03693606434717
1622,129.2871509213146
1623,173.6581680302279
1624,188.53295267588965
1625,168.44047042791226
1626,140.395687142518
1627,129.90256896434403
1628,133.60808232825548
1629,131.3561939611618
1630,108.95387088384086
1631,86.39008041277248
1632,95.39379016198018
1633,151.0839680448662
1634,216.8875822760765
1635,246.4886013733476
1636,222.45999415937968
1637,179.23272976370117
1638,155.5627776245601
1639,161.07010749079473
1640,174.3736894237436
1641,175.08949379913065
1642,171.3274913089881
1643,189.12765296355337
1644,246.48195009321716
1645,313.2173543504223
1646,341.8918377116306
1647,308.55137247924813
1648,262.4559312835863
1649,266.5734870848137
1650,338.43301317494115
1651,416.9754831797836
1652,435.8018710609367
1653,386.0561511177875
1654,315.8662979895098
1655,271.7132866570528
1656,259.96309244518216
1657,264.4406910244852
1658,269.6250584134159
1659,264.510170980323
1660,239.4620054455063
1661,192.8585388832762
1662,143.40074872401146
1663,112.76461275623751
1664,111.90710912871145
1665,136.9722163525057
1666,182.5249133031184
1667,235.85217922257652
1668,278.65899372154945
1669,294.50333678148854
1670,280.574188756751
1671,239.65853037674424
1672,178.7803427480967
1673,118.9766073567971
1674,84.02930607038434
1675,81.2744211401241
1676,89.73393520319678
1677,86.48083128490453
1678,66.32409280087813
1679,40.44170355929691
1680,20.095647763117086
1681,12.078910012314736
1682,21.013475306128385
1683,47.15032904533109
1684,73.91245703448203
1685,80.75384548422153
1686,60.7014810135488
1687,32.719350652128014
1688,17.88144184259454
1689,18.3187424428761
1690,17.402240728524703
1691,-0.21307460494881525
1692,-31.718214439714757
1693,-65.0481892332682
1694,-89.76700901605909
1695,-102.1746833890993
1696,-100.25522152157919
1697,-86.59563214845639
1698,-72.4299235680437
1699,-69.28410363957664
1700,-74.55017978078013
1701,-72.21315896542183
1702,-49.224047720840645
1703,-20.034852125491852
1704,-12.096577806447385
1705,-40.94922993691034
1706,-80.23281323370702
1707,-94.73333195477153
1708,-71.93078989660899
1709,-36.577190391764816
1710,-15.703536306263231
1711,-16.619830037045176
1712,-30.6930735093938
1713,-49.189268174340214
1714,-65.71241500606993
1715,-74.75251449930329
1716,-73.26956666666865
1717,-64.98457103607234
1718,-54.78152664804111
1719,-47.87943205306419
1720,-49.92028530891366
1721,-65.29008397795587
1722,-84.35682512445965
1723,-88.87350531186712
1724,-67.32912060008493
1725,-38.4926665427256
1726,-29.338138184372838
1727,-48.95653005780696
1728,-72.02483618122187
1729,-70.82705005544176
1730,-47.306164661111325
1731,-29.984172455873704
1732,-42.175065371545315
1733,-65.94083481126563
1734,-66.4804716466324
1735,-26.44096621483459
1736,23.300691684233243
1737,44.3515127908795
1738,24.620508388527924
1739,-15.754309693357754
1740,-55.037929076319415
1741,-75.45333682995806
1742,-61.41251946895591
1743,-7.957462950085755
1744,50.187847330775185
1745,69.46042654168377
1746,36.75229041763669
1747,-12.999544736365351
1748,-42.69306204226359
1749,-43.19224404587385
1750,-25.040072713787595
1751,0.7094705697300014
1752,22.6524050058606
1753,29.315750384364947
1754,16.14952708673627
1755,-8.142243910633624
1756,-33.27754103327425
1757,-47.89634210544045
1758,-39.740624346895856
1759,-2.887364369691568
1760,32.76846182508962
1761,24.932878850579073
1762,-40.46808806258832
1763,-115.83841306299473
1764,-147.5950696751197
1765,-127.31003079602306
1766,-88.25426869199782
1767,-61.41675499521807
1768,-53.53346070036696
1769,-62.06135616123993
1770,-79.99841108733926
1771,-89.99459454045245
1772,-74.29187493121299
1773,-39.027220015635066
1774,-13.360596891648129
1775,-21.15397199560266
1776,-46.31531109875141
1777,-57.13357930374241
1778,-38.98574104105228
1779,-17.33976006544617
1780,-21.68859945238637
1781,-44.803221594434945
1782,-44.744588197651865
1783,10.329339722050463
1784,82.36360184254772
1785,107.18023853918112
1786,56.99929088843055
1787,-15.937199328369388
1788,-51.37318962131394
1789,-38.49563678818504
1790,-9.638496910691174
1791,6.476274649307015
1792,8.727723253598924
1793,5.217894991430512
1794,-0.22016331665145117
1795,-11.99540411495309
1796,-34.319779108760486
1797,-54.646239260448965
1798,-47.71473478556891
1799,-0.6622151489218595
1800,42.42537093939427
