800,79.36197422306395
801,60.277130633648994
802,41.33614075657897
803,26.251177304438897
804,21.288412730312302
805,32.73301922578867
806,62.83216871900913
807,99.83803287270166
808,128.98978308226106
809,135.90259047382824
810,119.28062590237914
811,94.2260599498386
812,76.8720629232148
813,81.00980485272794
814,102.22345548998146
815,127.53118430611903
816,143.92116049001925
817,143.72355294649424
818,132.79053029450824
819,119.0802608654003
820,110.2089127011377
821,107.02465355256754
822,104.13965087769975
823,95.94007183998656
824,78.75808330662767
825,59.13185184688882
826,46.914543730429614
827,51.845324925655405
828,74.42836109806467
829,99.28381760863158
830,109.47485951219278
831,90.04865155584139
832,47.90335817734831
833,3.4711435035887916
834,-22.623828651015174
835,-16.906394786038618
836,11.083608283413014
837,47.17534342518957
838,77.54497318859558
839,97.38265980289088
840,111.71456517582737
841,126.06585089217242
842,144.60967821226586
843,163.39120807058407
844,175.42260107430684
845,173.77501750192278
846,158.08361730180877
847,140.18056009087013
848,133.22000515315085
849,148.872111438478
850,181.80803756112255
851,215.8619417984537
852,234.69898208962968
853,227.2303160342808
854,198.92610089121536
855,158.50949357713853
856,114.66265066538108
857,75.0357283846397
858,46.239882617725016
859,34.82826890033812
860,44.998042419838384
861,68.43035801404403
862,92.68537017002382
863,105.45723302291572
864,103.09910035475605
865,95.65512559331273
866,94.37746181093826
867,109.07526172343205
868,136.92967768890685
869,168.59186170668545
870,194.67396541618837
871,210.1331400958461
872,220.3635366620183
873,232.29230566792467
874,252.19559730258788
875,276.75656138978684
876,295.3303473870301
877,297.093104384513
878,275.5439811041306
879,239.73312589845864
880,202.20068674976756
881,175.21081126904664
882,163.96464669504076
883,166.04433989327754
884,178.65503735513994
885,198.9578851969136
886,223.88302915888107
887,250.2796146043902
888,275.03078651895885
889,296.58568950939116
890,315.6904678028741
891,333.28026524612596
892,349.89722530452946
893,363.2414910612715
894,369.7272052165217
895,365.7915100865821
896,350.5935476030836
897,328.6074593121648
898,304.91538637368103
899,284.2994695604111
900,268.4078492572771
901,257.0546654605778
902,250.03605777722896
903,247.96916542400777
904,253.5541272268265
905,269.8140816199866
906,299.1061666454716
907,334.5045199522292
908,362.2482787954723
909,368.4165800359897
910,345.82856013946184
911,308.59035517579196
912,275.0001008184381
913,262.61993234376587
914,275.25398463039437
915,304.46139215857784
916,341.37628900956315
917,376.9148088649845
918,401.1680850062503
919,404.02025031394805
920,375.99443726725804
921,323.24777794336296
922,268.1574040168898
923,233.86244675933722
924,237.56903703853004
925,269.79630531806833
926,313.56038165679547
927,352.1513957082698
928,377.29347672024414
929,390.61975353416346
930,394.313354584654
931,390.4504078990358
932,380.47704109683855
933,365.6413813893205
934,347.1695555790129
935,325.197690059249
936,298.4659108137148
937,265.6263434160119
938,226.87511302922303
939,190.9763444054788
940,169.62916188554755
941,174.2406893984189
942,203.19905046090662
943,237.2363681772522
944,255.81976523873527
945,243.19836392330672
946,211.32828609520402
947,182.13565320459747
948,177.15558628723466
949,199.4192059640891
950,226.2266324410266
951,232.96598550846647
952,200.89338454106291
953,145.63494849738527
954,95.28779591961211
955,77.50904493322105
956,98.64881324670841
957,135.67121815128485
958,163.3733765206125
959,161.17140481051774
960,134.80341905873684
961,99.31953488465206
962,69.60486748904077
963,52.85953165383489
964,46.08464174188248
965,45.579311696712466
966,47.84765504232382
967,50.52478488295583
968,51.60881390289069
969,49.16385436624569
970,43.28501811677506
971,36.5864165776884
972,31.83716075146276
973,30.740361219670376
974,29.827128142813308
975,24.055571260152647
976,8.598799889558904
977,-15.236077072637272
978,-39.26895115178468
979,-54.94871429505474
980,-56.30325887156687
981,-48.32247767251192
982,-38.90326391126655
983,-35.683511223507594
984,-40.32411366731594
985,-48.60996572327713
986,-56.07696229456451
987,-59.87399870703575
988,-62.98097070930271
989,-69.68177447281687
990,-83.69630659192535
991,-98.93246408394134
992,-101.07714438919538
993,-75.55824537108401
994,-17.295665316120903
995,50.74169706603243
996,100.42094264252955
997,105.88317185731466
998,70.65248473109841
999,18.626980861348784
1000,-25.89924057772714
1001,-46.89908083517912
1002,-47.86644158332183
1003,-35.11522491771393
1004,-14.961333357164222
1005,6.546330156303156
1006,25.19686225746318
1007,37.52535915792032
1008,40.0909166461397
1009,30.604630087491387
1010,8.420594424294904
1011,-26.978095824139928
1012,-74.05234656144512
1013,-120.09806411414411
1014,-148.62215523158557
1015,-143.67852708586634
1016,-106.81408727176313
1017,-60.126743806651575
1018,-26.89440513041518
1019,-23.788980105362498
1020,-39.49837801612739
1021,-55.327508569568636
1022,-53.231281894670246
1023,-28.664608542424503
1024,10.426600514276288
1025,55.616433880765726
1026,99.19297974072197
1027,135.70532585629462
1028,160.1405595682436
1029,168.1107677960763
1030,163.38103703818342
1031,155.4414533719928
1032,153.87910245412513
1033,162.23906952053312
1034,170.32343938667964
1035,166.03629644769535
1036,139.18972467854383
1037,95.92980763420474
1038,50.682628449842014
1039,17.848269840992543
1040,4.986814103751385
1041,8.737343114958094
1042,24.746938332398713
1043,48.33268079499976
1044,72.9406511230336
1045,91.37392951832044
1046,96.6635957644512
1047,88.22172922698974
1048,72.47340885370068
1049,56.19271317477069
1050,44.920720303032795
1051,39.79450793420256
1052,40.98615334711121
1053,48.232733403940074
1054,55.36332455047068
1055,51.91400281632741
1056,27.364843815226777
1057,-19.37507725476462
1058,-68.76068561097873
1059,-98.51190688587576
1060,-90.09866712678468
1061,-53.30889279563962
1062,-10.804510768692126
1063,15.041551663746759
1064,17.439366797598268
1065,10.563006515297275
1066,10.070542286070122
1067,26.961045166234726
1068,52.52058579948971
1069,72.84023441721092
1070,75.02306083875101
1071,62.84013447174311
1072,53.522524312411406
1073,64.65929894587043
1074,101.73752654645523
1075,142.0332748780229
1076,158.78661129427383
1077,129.94660273908812
1078,69.47631574683146
1079,7.931816442700438
1080,-24.54782945695024
1081,-17.974556644275253
1082,11.486699780403796
1083,45.91200430893423
1084,69.85342102568393
1085,77.38401360788157
1086,64.85384532597618
1087,29.60897904398007
1088,-17.737522780170366
1089,-57.18059809425267
1090,-68.6301852514016
1091,-46.74122300973795
1092,-14.612650532013504
1093,1.408592614776353
1094,-19.036433540249163
1095,-61.448669371471624
1096,-98.79805565639799
1097,-105.17853357527838
1098,-80.80304471072577
1099,-51.618531047322904
1100,-44.656934971239934
1101,-74.21219926984213
1102,-120.6032671312887
1103,-158.5390821441424
1104,-166.0005882969699
1105,-147.43772997793712
1106,-120.09945197441084
1107,-101.014699472541
1108,-95.97041805686513
1109,-96.61055370988652
1110,-93.66405281166408
1111,-81.73186213939789
1112,-68.52592886700586
1113,-64.54820056470999
1114,-79.10262519860134
1115,-109.11215113023081
1116,-144.2217271161644
1117,-174.0393023075685
1118,-191.37182624976504
1119,-193.7612488818022
1120,-179.12852053602273
1121,-148.651591937617
1122,-116.32741420418733
1123,-99.32593884530252
1124,-112.85811776205082
1125,-148.87790324660364
1126,-184.1472479817494
1127,-195.37910504045703
1128,-174.50042788541214
1129,-137.69317036857137
1130,-103.31528673069897
1131,-86.54673160090533
1132,-89.2904599961912
1133,-110.01442732098712
1134,-146.60458936667965
1135,-189.98690231115052
1136,-226.45332271830466
1137,-242.34580753760656
1138,-233.22031410359705
1139,-209.15680013542897
1140,-181.53122373638598
1141,-160.519543393405
1142,-151.5237179766018
1143,-158.76370673878046
1144,-185.42646931495892
1145,-223.28096572188133
1146,-256.9921563575281
1147,-271.33400200063534
1148,-262.13646381019953
1149,-241.09550332498839
1150,-221.14008246304365
1151,-210.75416352119555
1152,-203.01970917455765
1153,-187.69468247603527
1154,-156.49104685582006
1155,-118.96476612089828
1156,-94.16880445453535
1157,-100.64212641578615
1158,-136.7366969389841
1159,-176.58848133322772
1160,-192.90744528187952
1161,-171.43855484205687
1162,-133.74477644411854
1163,-107.49607689115146
1164,-115.24542335845581
1165,-144.6937833930324
1166,-169.05312491306722
1167,-162.89241620740722
1168,-129.09862593504386
1169,-96.7167231245985
1170,-95.65767717378458
1171,-136.77545784890572
1172,-192.62003528430978
1173,-231.134379981876
1174,-227.94946281048396
1175,-194.68325500548417
1176,-153.46572816816933
1177,-125.1898542652425
1178,-115.94160562828529
1179,-122.13595495322261
1180,-139.95587529979275
1181,-162.84434009100642
1182,-180.48032311260886
1183,-182.26879851254944
1184,-162.23974080043354
1185,-128.11312484698647
1186,-90.14292588351145
1187,-57.5961195013424
1188,-32.961681651310755
1189,-15.90058864319144
1190,-5.897817145152658
1191,0.6876558167759868
1192,10.214852859266102
1193,29.052796242228396
1194,56.248507869377136
1195,77.94900928876723
1196,78.96932169335287
1197,50.59946592153938
1198,8.486462457743983
1199,-25.99866856706194
1200,-34.00590737478251
1201,-18.246234539652505
1202,7.758369012332878
1203,30.635922003968517
1204,42.63044280740087
1205,41.57794944469333
1206,25.598459588381957
1207,-2.00000943795294
1208,-27.745440659132328
1209,-36.97481744781089
1210,-21.37712352390372
1211,1.6466570459670038
1212,8.172539849050736
1213,-21.942459872970176
1214,-75.61032722340587
1215,-122.56604764999338
1216,-133.51160694432292
1217,-104.77299124127148
1218,-58.0011870184162
1219,-15.851181095485117
1220,8.83303936624361
1221,21.56248686449726
1222,29.868173556596957
1223,39.747111260021484
1224,51.56731145300182
1225,64.39578527508093
1226,76.81154352769954
1227,83.68659667479369
1228,78.21395484334607
1229,54.31062782398112
1230,18.809625071551636
1231,-10.495044294286345
1232,-15.676371488480072
1233,7.825651939985619
1234,44.05803410869703
1235,75.30378280237892
1236,90.05690547349514
1237,94.58440924281967
1238,98.30830090004383
1239,108.95558690434882
1240,124.87027338500411
1241,141.18236614195484
1242,153.2658706464117
1243,159.4187920414479
1244,159.7701351425858
1245,154.48390443839162
1246,143.9901040910663
1247,129.01873793705272
1248,110.339809487612
1249,92.23732192943135
1250,85.71827812522315
1251,102.56068061430778
1252,147.6015316132307
1253,201.6648330163407
1254,240.37058639640964
1255,243.928793005216
1256,221.97345377415695
1257,195.7345693148418
1258,184.9241399196926
1259,189.6631655625606
1260,196.74264589931227
1261,193.09558026845116
1262,177.75796769169392
1263,163.53180687461645
1264,163.8960962072233
1265,183.2298337645716
1266,208.62801730738283
1267,225.2396442826357
1268,223.90471182418696
1269,214.01221675337547
1270,208.71815557963237
1271,218.61752450109816
1272,239.62131940522522
1273,262.45753586939463
1274,278.3791691615261
1275,284.1982142406978
1276,279.9946657577493
1277,266.14651805591166
1278,248.30476517140414
1279,237.10440083406866
1280,243.19841846797863
1281,267.21181119205175
1282,294.77057182067074
1283,310.2756928643121
1284,304.4101665301514
1285,282.93798472269555
1286,253.8401390443887
1287,225.03262079625347
1288,204.14942097849962
1289,198.7575302911482
1290,214.26693913465897
1291,242.02163761055635
1292,267.7206155220465
1293,278.51786237465785
1294,278.0253673768475
1295,280.1551194406493
1296,298.39610718228323
1297,333.75031892280276
1298,375.34874268870954
1299,411.8673662125857
1300,433.3421769337365
1301,431.7551619988062
1302,399.2963082624228
1303,339.0236022878271
1304,277.46603034750297
1305,244.2325784238201
1306,257.86123220966147
1307,300.21997710906726
1308,345.5817982378612
1309,372.3586804243041
1310,380.24960820971864
1311,375.7585658491389
1312,364.9275373119399
1313,350.1225062824906
1314,331.9454561607927
1315,311.5643700631099
1316,297.6282308226364
1317,304.01802099012457
1318,343.84072283452406
1319,410.2933183436544
1320,476.7317892248193
1321,515.9781169054841
1322,516.8012825339028
1323,490.4002669797828
1324,449.6710508349206
1325,407.2276144138723
1326,375.114937754588
1327,365.32100061907477
1328,382.5757824940556
1329,411.01426259161235
1330,431.13141984984213
1331,430.44323293352863
1332,425.08668023479186
1333,438.5167398737449
1334,486.93438969915223
1335,544.1326072891061
1336,568.519369951664
1337,524.8806547255299
1338,432.18543838071855
1339,336.61469741921064
1340,281.3934080756226
1341,269.85154631787736
1342,278.20508784787853
1343,283.11000810214864
1344,280.2922822525452
1345,282.73388520690423
1346,303.6827916097136
1347,344.56897584278886
1348,392.70641202595834
1349,434.66007401773095
1350,462.0889354159626
1351,474.6099695585672
1352,472.54414952414845
1353,457.82444813272923
1354,435.6798379463953
1355,411.7382912700077
1356,389.109780151859
1357,364.1382763843849
1358,332.0427515048368
1359,291.54517679596574
1360,253.70452328672854
1361,232.29976175295815
1362,237.19286271807232
1363,260.1737964537615
1364,287.83653298067475
1365,308.36104206913024
1366,319.472293239799
1367,322.42625576441515
1368,318.96889866646234
1369,314.66019072189283
1370,316.8411004598138
1371,331.6085961632007
1372,352.2426458696009
1373,364.5662173718347
1374,355.56127821871814
1375,329.0667957157557
1376,300.9527369258658
1377,286.7690686700871
1378,291.33775752829206
1379,310.19976983991
1380,338.5530717046331
1381,370.53162898315077
1382,399.1714072978557
1383,417.58137203357455
1384,423.3384883382887
1385,419.5397211238669
1386,409.5890350667805
1387,395.1563946088436
1388,375.3807639579354
1389,349.2531070887417
1390,319.7923877434778
1391,296.95656943263293
1392,291.3256154357068
1393,305.5664888019455
1394,326.51015235108116
1395,339.1235686740847
1396,338.60570013390134
1397,343.954508866198
1398,377.52895678011646
1399,446.0820055590202
1400,514.409616661248
1401,540.3267513208684
1402,499.29437054843584
1403,421.2614351317443
1404,346.6599056365958
1405,307.18374240755475
1406,303.7339055687153
1407,330.44535502447434
1408,379.5310504602812
1409,435.58495134342775
1410,481.29201692380775
1411,502.6812062347035
1412,500.69647809354046
1413,480.41879110269565
1414,448.3391036502553
1415,417.835373910807
1416,404.4185598462209
1417,418.82561920645094
1418,445.7545095302985
1419,461.10418814623154
1420,445.9406121731636
1421,412.022738521252
1422,382.3785238927021
1423,376.36692478256464
1424,389.67589747954025
1425,408.6643980667877
1426,421.3613824227232
1427,427.5008062218494
1428,431.7076249355541
1429,438.4927938329247
1430,451.3212679815815
1431,473.20900224848447
1432,505.7749513007684
1433,540.0590696065492
1434,562.196311435785
1435,560.939630861073
1436,546.0939817585104
1437,537.5243178085148
1438,552.4955924966716
1439,586.3187591145725
1440,623.5347707606616
1441,650.0035803410892
1442,663.3421405705467
1443,667.0174039731346
1444,664.2653228832187
1445,656.0078494462796
1446,641.9949356197767
1447,622.8745331740238
1448,606.9525936930422
1449,606.3760685754369
1450,630.1369090352846
1451,660.5070661029813
1452,666.4524906261522
1453,622.8091332705126
1454,553.3669445207661
1455,505.8638746814895
1456,520.4728738780268
1457,575.7988920573807
1458,621.1448789891201
1459,612.845784266272
1460,562.390557306233
1461,506.61214735167596
1462,477.5995034714606
1463,472.0135745615489
1464,470.93630934592875
1465,457.58765637753004
1466,430.33256403914584
1467,393.8429805443775
1468,353.12985393854615
1469,315.1871320996479
1470,287.78276273927986
1471,276.07269340358744
1472,269.824871474204
1473,253.19124416922295
1474,214.61375854412017
1475,165.78436149273966
1476,126.18999974823237
1477,111.03261988403756
1478,114.39716831484475
1479,123.8955912975598
1480,127.79283493229468
1481,117.24884516333896
1482,84.22456778014202
1483,26.867948418307606
1484,-32.22906743941985
1485,-64.41653446215514
1486,-51.19850746987686
1487,-9.635041432419712
1488,35.43080853152878
1489,63.60098715544791
1490,68.18543902599413
1491,45.12910858401665
1492,-1.724059874404702
1493,-47.35412219694081
1494,-63.27113437398111
1495,-38.39715253758732
1496,-2.243232960464411
1497,10.041567945097086
1498,-16.52580637173469
1499,-56.3604125992797
1500,-79.22330756228075
1501,-72.55054822084912
1502,-54.30219166938332
1503,-45.17629513551219
1504,-50.22591597900191
1505,-51.44211169068967
1506,-29.510939891381895
1507,14.501541669224025
1508,54.04427511364429
1509,61.87220243770298
1510,34.81426551164259
1511,-4.88759391876647
1512,-34.53143423111669
1513,-45.9493139252354
1514,-43.81529162206425
1515,-33.07042606253435
1516,-16.202776106416422
1517,6.11159926880282
1518,32.484640969070824
1519,53.57328978492387
1520,55.23848639263633
1521,25.607171355383798
1522,-28.073714875592486
1523,-89.21423195981879
1524,-141.9714396664067
1525,-175.70739787286857
1526,-181.80616656394886
1527,-155.82080583041352
1528,-113.73037586785904
1529,-77.77593697551765
1530,-66.60854955503328
1531,-85.25127410926143
1532,-135.49817124104538
1533,-210.59430165199137
1534,-278.9547261412363
1535,-304.5945056042128
1536,-273.4147010314118
1537,-220.18437350713066
1538,-186.01258420821523
1539,-187.79439440281112
1540,-200.8138654490922
1541,-196.77105879398914
1542,-169.28403597192028
1543,-140.95485860349618
1544,-135.25058839424037
1545,-148.58828713329603
1546,-149.9360166921133
1547,-109.75183902315712
1548,-39.93281615858359
1549,15.606989791073829
1550,17.105516638235713
1551,-24.237297880398728
1552,-67.60351610251018
1553,-77.80220043881218
1554,-62.04941337170021
1555,-45.76121745390628
1556,-49.373675307113444
1557,-68.19084962060333
1558,-89.74280314987391
1559,-102.7265987152523
1560,-100.0062992005096
1561,-75.37296755146417
1562,-32.01666677456706
1563,3.6355400644870315
1564,1.8425898421974125
1565,-45.0735806213288
1566,-105.89303456094422
1567,-145.94683526502195
1568,-150.9940460740154
1569,-132.633730378996
1570,-103.9919516202117
1571,-75.32377328560324
1572,-54.30025890933757
1573,-47.45847207033694
1574,-49.29847639077525
1575,-46.58533553459711
1576,-28.600113206006426
1577,-4.098873147961058
1578,9.481320859341395
1579,-0.7275950000084777
1580,-25.38468457610088
1581,-48.46501175166759
1582,-56.57564044053288
1583,-44.657634586069435
1584,-9.345058159621658
1585,44.96502484105349
1586,97.54355039337133
1587,125.92245445149365
1588,124.7476729479331
1589,112.97714179515333
1590,110.55179688716635
1591,118.21357410116889
1592,118.20740929914245
1593,94.20423832951019
1594,55.530997028760794
1595,28.116621223110997
1596,34.77604673015048
1597,74.51120936051575
1598,136.22704491955847
1599,206.16748920903592
1600,259.3774780287931
1601,267.9059471784658
1602,220.94483245918764
1603,153.54806967530112
1604,108.11859463609744
1605,105.59034315752888
1606,130.3982510639653
1607,163.81625418993917
1608,198.2262883819085
1609,238.17028950002077
1610,287.8811934198893
1611,339.2289360343848
1612,375.36845325542436
1613,381.74068101577996
1614,361.8995552708875
1615,327.40301200067006
1616,289.5289872113699
1617,258.1274169373846
1618,242.67123724312842
1619,248.40038422487032
1620,269.8337940126239
1621,299.7904027720124
1622,329.32814670615426
1623,346.8029620575717
1624,341.24178511007995
1625,320.89055219071724
1626,312.27719967166195
1627,339.39466397217166
1628,392.7448815605194
1629,443.31078895595965
1630,467.0843227306859
1631,469.18841951180457
1632,464.7450159833206
1633,465.1370488881321
1634,470.06545503003053
1635,477.00517127571675
1636,487.07713455683097
1637,507.93028187197524
1638,547.2545502887697
1639,595.9368769459006
1640,626.9831990551838
1641,615.9964539036537
1642,578.0375788556275
1643,552.9875113548233
1644,573.5301889264538
1645,628.3635491793475
1646,690.4155298080823
1647,736.9940685951105
1648,759.1481034129283
1649,750.7125722262226
1650,716.0604130940428
1651,677.7835641719921
1652,659.450963714411
1653,664.8865500765905
1654,678.3872617169773
1655,684.4180371994144
1656,677.427815195364
1657,657.4735344861701
1658,625.3061339653059
1659,584.7395526406563
1660,540.5287296367987
1661,498.85360419729204
1662,469.4721156869873
1663,462.47020359434464
1664,476.55880753376823
1665,494.7368672479324
1666,500.0733226101529
1667,494.06811362673307
1668,492.33718043936096
1669,506.58746332747796
1670,519.759902710689
1671,502.9264391511733
1672,441.0750133561078
1673,365.7675661801086
1674,317.9820386276715
1675,311.5243718556385
1676,313.4275071756656
1677,287.68638605671913
1678,230.93695012756052
1679,169.95714117926582
1680,130.4279011677454
1681,119.5611722162812
1682,135.57289661806863
1683,172.0300168387921
1684,204.83047551917662
1685,205.7342154775988
1686,165.93517971266465
1687,113.74731140583663
1688,80.60255392405179
1689,72.96185082236298
1690,72.55014584658875
1691,62.20038293597645
1692,43.62650622588535
1693,28.1624600504756
1694,21.524188945404603
1695,7.08163765055906
1696,-37.06524888722652
1697,-108.0545255114157
1698,-156.53624685301475
1699,-130.91446732780605
1700,-41.68724113355256
1701,41.80737775279522
1702,57.268335577911785
1703,16.678578814929097
1704,-32.92994583372274
1705,-55.4302914334703
1706,-53.68851081471166
1707,-39.06265656994583
1708,-21.855781050869155
1709,-10.641936365464971
1710,-13.32017437507875
1711,-29.33554669147179
1712,-51.289104673875045
1713,-71.96189942601268
1714,-86.53798179312253
1715,-91.12840235895601
1716,-84.71121144276003
1717,-74.12345909625583
1718,-67.41919510059415
1719,-68.06246896329685
1720,-73.6303299151823
1721,-81.39082690727992
1722,-89.56200860772697
1723,-96.93292339865366
1724,-103.04561937304516
1725,-110.70614433159153
1726,-123.55854577953232
1727,-137.30587092347105
1728,-132.4021666681847
1729,-89.28947961340964
1730,-21.823856050620634
1731,26.175658040217968
1732,18.46101699389692
1733,-23.249824536752385
1734,-53.55691157757792
1735,-45.96028882980136
1736,-26.325000666693995
1737,-28.68909113024347
1738,-59.51360392779952
1739,-91.47658242871148
1740,-98.96706966093006
1741,-92.98710830762593
1742,-104.9407407037479
1743,-151.4550088326132
1744,-193.05295432243838
1745,-177.75261844288707
1746,-95.7480421015689
1747,-3.7382658405631446
1748,39.610670167126955
1749,28.158726121077052
1750,-7.253137402979519
1751,-38.98395944960157
1752,-58.425778680050826
1753,-62.62563336868607
1754,-53.46256139934849
1755,-42.02660026173089
1756,-39.918787047709884
1757,-49.3381584476856
1758,-64.66475074689333
1759,-79.83759982169249
1760,-87.72374113584829
1761,-80.84320973678768
1762,-57.75804025184425
1763,-30.227266884473465
1764,-11.45092341047257
1765,-7.993043174153172
1766,-20.298659084522114
1767,-47.223803611425865
1768,-79.20650878169363
1769,-103.46780617523746
1770,-113.68572692116959
1771,-118.65430169386218
1772,-128.68556070901832
1773,-140.21253371971488
1774,-136.28925001241896
1775,-103.30673840300005
1776,-52.534027232711196
1777,-4.992144364157866
1778,24.2538828227498
1779,34.15902743487459
1780,26.0102630699339
1781,7.903563820613272
1782,-5.624095721305821
1783,-3.092740460809182
1784,6.765605204533131
1785,7.6609173887345605
1786,-7.006827278392848
1787,-22.538651647017105
1788,-22.48257804304376
1789,-10.441628263850362
1790,-7.524823574004586
1791,-29.449184700970363
1792,-59.504731830764285
1793,-70.2294846036375
1794,-53.930462109698055
1795,-41.0946828845299
1796,-63.70616490480006
1797,-111.19792558382323
1798,-140.74798176712648
1799,-121.37234972798342
1800,-78.91504516293662
