800,32.57312032209484
801,31.66564038973047
802,57.55919555303808
803,103.15495860382725
804,150.26910190904528
805,180.57079741020243
806,181.2262166227374
807,158.38053063543157
808,122.27391010982501
809,83.10752527959812
810,49.87854595001227
811,30.084141497312885
812,31.12648086815716
813,58.65473257903068
814,104.72006471569148
815,154.97064493260223
816,195.03264045235483
817,214.28821806513406
818,211.61854412814864
819,187.3897845650954
820,142.40710486560056
821,86.40567008470316
822,37.33864484228434
823,13.466193322576146
824,27.938479273596386
825,67.2626660066544
826,109.27491639581785
827,131.96039287739404
828,124.95325744942602
829,97.92767167119564
830,62.529796662696754
831,30.00479310415176
832,7.26682123552564
833,-1.4609591439893848
834,8.006611323566176
835,36.547691554414996
836,74.3984400225836
837,109.65601475941367
838,130.73957335310297
839,134.39027294822517
840,126.44527024528543
841,113.19472150025831
842,100.29778252411052
843,89.58660868238985
844,81.46735489474668
845,76.33817563451521
846,73.58722492825473
847,70.73465635533285
848,65.10262304749085
849,54.537277688405084
850,42.96277251328502
851,38.167259308445864
852,48.00488941089134
853,75.9718137079035
854,111.84418263664702
855,142.69814618375494
856,156.05785388493678
857,150.1544548245747
858,134.15909763535456
859,117.74093049785006
860,109.15010114016513
861,109.13475683753859
862,115.96604441198178
863,127.89111023188889
864,141.36810021170095
865,150.03915981150203
866,147.29143403669514
867,127.90606743762692
868,98.82620410923846
869,73.27698769072595
870,64.52556136518615
871,79.53306785927634
872,110.15664944288801
873,146.02744792880367
874,177.10860467237035
875,198.17826057117782
876,207.69455606473457
877,204.2076311341425
878,188.20862530180239
879,167.13967763108667
880,150.00992672603388
881,145.52351073105456
882,154.3105673306327
883,168.3352337490178
884,179.11964674994124
885,179.88994263633504
886,172.71925725003894
887,162.5727259715204
888,154.37048371960373
889,151.02266495119693
890,152.4814036610078
891,158.46883338129737
892,168.53508718161538
893,180.98929766852962
894,193.5885969853789
895,204.09711681203044
896,211.8759883646162
897,219.389342395305
898,229.46330919205138
899,244.36201857836204
900,260.6135999130638
901,271.3841820900834
902,269.8018935382079
903,253.41486222087406
904,230.8652156359367
905,212.51308081546995
906,208.12658432555145
907,219.19785226604654
908,241.12001027041333
909,269.14418350550113
910,298.3094966713561
911,322.9740740010184
912,337.36903926033665
913,336.09351574779976
914,320.82162629432423
915,299.51449326310103
916,280.351238549405
917,269.4969835804259
918,265.3838493151143
919,264.5809562439881
920,263.7624243890059
921,262.050373303382
922,261.1159220714435
923,262.74118930848636
924,268.0052931606115
925,274.77435130459344
926,280.01648094774646
927,280.733798827765
928,275.01442121261607
929,262.22546390039497
930,241.80304221919687
931,214.4862710270063
932,187.60426471157916
933,170.57813719030128
934,172.55400191011358
935,192.1869718473681
936,214.68615950775165
937,224.38267692616137
938,209.50363566662418
939,179.86314682219017
940,152.6893210148428
941,144.9062683954162
942,160.0260986434987
943,183.36192096737432
944,198.92084410391908
945,193.67397631853964
946,171.76342540509722
947,143.50729868585404
948,119.12070301138556
949,103.64274476054015
950,94.92352984037097
951,90.27816368607819
952,87.28675126097187
953,85.09639705641894
954,83.4232050917908
955,81.99327891443136
956,80.94972159962526
957,81.02363575054187
958,82.98612349823088
959,87.3842865015813
960,93.46222594729443
961,100.00604254988139
962,105.7328365516205
963,106.58670772255937
964,94.82375536050858
965,62.45207829102219
966,5.273774867395332
967,-60.53305702932266
968,-112.01331999034483
969,-126.68991707912028
970,-99.68675183134656
971,-47.917728254937174
972,10.341249169980074
973,58.430275491096836
974,87.58744528392526
975,91.43285265185477
976,64.03059122614832
977,12.116754165997918
978,-43.37856584144356
979,-80.75527658103601
980,-84.63928630959344
981,-66.50750375584903
982,-44.98783812039801
983,-38.07219907565559
984,-49.658496765789096
985,-69.75764180666738
986,-87.7875452858043
987,-96.07011876227989
988,-97.37927426667375
989,-96.84592430101111
990,-99.35298183865962
991,-105.56236032428023
992,-112.58697367371678
993,-117.42973627393985
994,-117.35256298293098
995,-110.35836912961895
996,-94.59107051376304
997,-68.68258340586544
998,-37.57482454706951
999,-10.579711149051946
1000,2.916839106073894
1001,-1.3620919341119588
1002,-15.622422892247414
1003,-30.3200728610409
1004,-35.90896140318728
1005,-24.76200855121533
1006,-2.1771348073634726
1007,21.215738856528333
1008,34.85569099917666
1009,32.652799709972896
1010,14.926142609134331
1011,-17.508203152156057
1012,-61.9551608916081
1013,-105.53765439567542
1014,-131.92560791939104
1015,-125.326946186231
1016,-87.07359438793537
1017,-38.627478184369465
1018,-2.607523703332845
1019,4.087342459584761
1020,-11.21080675880512
1021,-34.778898889135235
1022,-53.270861929286184
1023,-61.15862434421251
1024,-60.15711506576554
1025,-52.25226349249533
1026,-39.00999948947174
1027,-20.633253388072262
1028,2.9320440141927975
1029,31.38096145388954
1030,59.67256720186924
1031,79.4409290634685
1032,82.27311437871867
1033,65.57019002255765
1034,39.91622240504694
1035,17.73127747160288
1036,9.9674207031876
1037,14.995717116562446
1038,24.809231264505797
1039,31.420027236052192
1040,31.749168656711845
1041,30.563718688719746
1042,33.33074003127149
1043,43.83329492077792
1044,56.484445131096436
1045,62.45425197379154
1046,53.274776298383586
1047,30.534078492610206
1048,6.84621848268398
1049,-4.602744266447189
1050,4.368249249173459
1051,24.268257572763105
1052,41.70533878709284
1053,44.382550514756076
1054,35.142949918441445
1055,27.821593701215534
1056,36.463538106816486
1057,66.9658389199285
1058,107.39755146649259
1059,143.45173061397145
1060,162.32843077167854
1061,162.59570589105897
1062,147.981609466
1063,122.32119453312771
1064,92.63451367214111
1065,70.22661900609455
1066,66.71056220173705
1067,88.52039446981507
1068,120.2091665654134
1069,140.55592878826974
1070,129.93273098308964
1071,94.67862253991188
1072,62.14065239441334
1073,60.22186902825342
1074,100.70632046943501
1075,157.76105429262134
1076,200.18211761949897
1077,201.58655711912616
1078,172.45241900828478
1079,140.2417490518328
1080,131.94159256308194
1081,151.95899440413632
1082,175.40099898626977
1083,175.40565027030243
1084,135.07799176696608
1085,75.7660665372805
1086,27.987917192918758
1087,19.895585896621924
1088,48.05311436255215
1089,86.66054385669486
1090,109.53291519724917
1091,103.69226875501954
1092,81.61164445381655
1093,58.67908177085883
1094,48.20761973716253
1095,51.50529693797034
1096,65.54915151314344
1097,86.995221157591
1098,105.38454312166323
1099,103.24615421159433
1100,62.83109078991765
1101,-18.972611224116918
1102,-106.25091635410718
1103,-156.6457895660642
1104,-134.75319626798773
1105,-61.47310230941366
1106,15.071526019015437
1107,47.46272198600673
1108,21.434518420050154
1109,-35.57105229012268
1110,-93.43495819507916
1111,-129.44116778424177
1112,-146.03764998541737
1113,-150.99537416434032
1114,-151.62031012419538
1115,-150.28842810516107
1116,-146.4726987839349
1117,-139.64309327324372
1118,-130.5155831213815
1119,-121.66414031171735
1120,-115.81573726221905
1121,-115.11034682494574
1122,-119.39094228558497
1123,-127.93049736292596
1124,-139.70698620838448
1125,-150.17138340549718
1126,-152.47466396940763
1127,-139.8618033463681
1128,-115.00077741322639
1129,-95.56656247691717
1130,-100.58513527392097
1131,-141.4414729697819
1132,-197.73755315855487
1133,-240.7953538622951
1134,-244.40685353050867
1135,-212.4930310396503
1136,-169.02586569255436
1137,-138.13733721791687
1138,-130.25142576975486
1139,-134.15111192683253
1140,-136.70537669215628
1141,-128.92620149238064
1142,-118.35056817727855
1143,-116.62945901917556
1144,-134.03285671239064
1145,-165.490744372657
1146,-196.3971055365837
1147,-212.15492416104644
1148,-206.3091846226489
1149,-184.08787171712356
1150,-151.62797065875566
1151,-115.69946707980125
1152,-85.24434702988765
1153,-69.68759697545647
1154,-76.932203799126
1155,-101.11615479912325
1156,-129.02943768867408
1157,-147.63904059540437
1158,-151.99295206072748
1159,-146.82916103923344
1160,-137.45565689808063
1161,-127.79842941638708
1162,-117.95146878459309
1163,-107.36476560384472
1164,-96.07131088537426
1165,-88.0890960498673
1166,-89.09611292682894
1167,-104.48635375394042
1168,-133.81681117643893
1169,-171.24847824646167
1170,-210.73834842239194
1171,-245.6754155682338
1172,-268.3546739529338
1173,-270.91311824974946
1174,-248.41574353557735
1175,-209.57554529028494
1176,-167.09151939606636
1177,-133.14566213674334
1178,-113.69297019712576
1179,-110.62444066231365
1180,-125.63807101702696
1181,-154.76785914492393
1182,-186.29480332791536
1183,-207.93390224547147
1184,-211.71215497394405
1185,-202.44356098585195
1186,-187.3051201491944
1187,-172.61383272675448
1188,-158.83169937537605
1189,-143.97772114527106
1190,-126.16289947930636
1191,-105.3602362122856
1192,-83.15173357022104
1193,-61.1893941696344
1194,-41.905221016806536
1195,-29.110217507070047
1196,-26.763387424065513
1197,-36.90573493901138
1198,-54.37826460996075
1199,-72.33598138106572
1200,-84.12189058182958
1201,-84.78999792634932
1202,-70.25430951258022
1203,-36.89983182157266
1204,8.089428283292364
1205,46.781463557059396
1206,60.854266373959035
1207,43.54082872819163
1208,10.732142234681305
1209,-19.04780187013239
1210,-31.567012727522524
1211,-30.008499855697664
1212,-21.976273149000917
1213,-14.627342877132833
1214,-11.271719684365962
1215,-13.217414588714746
1216,-21.649438981179628
1217,-35.17680462491626
1218,-49.86852365442974
1219,-61.666608574778365
1220,-65.17107226075132
1221,-52.46392795604879
1222,-15.345189272467906
1223,47.183129810920946
1224,109.5600149486072
1225,140.07845142947372
1226,112.64642417761024
1227,43.69791775318299
1228,-30.91608364674903
1229,-76.5765961873858
1230,-82.34163639531835
1231,-57.335221157707565
1232,-11.364367721402232
1233,43.38990630790613
1234,91.10958296654826
1235,115.65464393374532
1236,108.4880705324722
1237,82.78884373034452
1238,55.602944140469845
1239,41.11335202236114
1240,37.617047282794374
1241,37.971009476696054
1242,35.88121780806068
1243,34.73965113081249
1244,44.01128794971919
1245,72.80210642129714
1246,117.51508435470532
1247,160.61819921266397
1248,183.9394281123623
1249,180.18274782636945
1250,162.92913478356422
1251,148.11856507004995
1252,147.7350144300908
1253,160.02645826702428
1254,180.27087164421755
1255,202.91922928599524
1256,217.12950557856675
1257,209.97867457099346
1258,170.55770997613217
1259,113.34658517157004
1260,70.13627320060004
1261,71.94974677318169
1262,117.06097826688529
1263,166.47793972787258
1264,179.39160287187406
1265,141.16893908513703
1266,86.93291942543692
1267,57.39651462303482
1268,78.19169508167397
1269,125.83143087956341
1270,166.82369177037435
1271,173.44644718423842
1272,150.85166622873658
1273,115.82131768992804
1274,84.50237003332404
1275,66.24079140493268
1276,66.38654963225417
1277,89.73161222529598
1278,130.594946377616
1279,173.3965189673363
1280,202.33729655817115
1281,211.3712454004708
1282,209.03933143224822
1283,205.0705202802401
1284,205.80777726091947
1285,209.4410673815819
1286,212.96735534137588
1287,213.52360553236758
1288,208.8457820406038
1289,196.7978486471693
1290,176.33576882926536
1291,153.43450576126997
1292,136.88602231583354
1293,134.6312810649324
1294,145.01224428098976
1295,160.35687393791704
1296,173.31313171225156
1297,185.20597898422602
1298,205.6133768388645
1299,244.1722860671125
1300,296.7806671669241
1301,339.7134803443696
1302,347.81268551477115
1303,312.67624230380534
1304,262.08511004863067
1305,228.55624779902428
1306,233.02661431849992
1307,258.09516808544504
1308,278.41386729427904
1309,274.28066985656915
1310,254.96853340219786
1311,239.01141528050357
1312,242.28027256144196
1313,259.1900620367469
1314,273.8737402210845
1315,271.63426335322947
1316,253.87358739724004
1317,233.2376680436173
1318,222.14046071049597
1319,222.26492054484515
1320,224.611002423615
1321,219.8396609549709
1322,204.5338504794545
1323,183.6125250712139
1324,162.61163853919425
1325,145.80514442833555
1326,134.95299602080559
1327,131.51914633720298
1328,136.31754813778025
1329,148.3361539236812
1330,166.2399159381439
1331,187.68578616776176
1332,206.22471634370595
1333,214.35565794296235
1334,206.7565621895901
1335,190.84238005597763
1336,178.64206226406168
1337,180.5815592866329
1338,193.4108213485597
1339,207.0057984280793
1340,211.58444025806057
1341,202.39169632726953
1342,178.08151588167493
1343,137.94684792570115
1344,92.2966412235437
1345,61.42084430043906
1346,65.34440544397694
1347,103.61027270539671
1348,151.30839390089022
1349,182.30871661291894
1350,184.77318819151515
1351,169.20175575561734
1352,148.04236619437143
1353,132.44196616847876
1354,130.88650211152162
1355,151.5269202312884
1356,193.08216651112707
1357,228.98318671128072
1358,228.44592637024834
1359,175.11333080611985
1360,103.44434511795043
1361,59.089914187117756
1362,75.07498267868505
1363,126.1964950427755
1364,170.49639551594737
1365,173.81062812257733
1366,148.70113667623627
1367,125.0218647810907
1368,128.58375583328052
1369,153.40475302233062
1370,178.6277993325548
1371,184.97883754444956
1372,170.2738102361127
1373,142.2666597846619
1374,108.88832836765323
1375,78.56675796450509
1376,60.09689035793963
1377,61.69366713538875
1378,80.81902969046314
1379,105.6409192243791
1380,124.3822767474212
1381,134.34804308037383
1382,142.25915885599716
1383,155.0805645204764
1384,172.6762003349013
1385,186.1340063767293
1386,186.12992254126038
1387,169.80888854312616
1388,143.7648439177592
1389,115.3357280229011
1390,91.20248004009409
1391,76.90903897616772
1392,77.849343664755
1393,93.80733276779574
1394,113.33794477706215
1395,123.66011801565583
1396,117.92579063955054
1397,103.05590063911222
1398,87.93538584062844
1399,78.38718390785289
1400,72.02423234354683
1401,65.09446849102278
1402,57.4798295356959
1403,60.272252506652876
1404,86.71967427819436
1405,140.83003157141502
1406,194.10926095577452
1407,210.91429885066282
1408,169.20808152700192
1409,101.09654510881774
1410,52.13562557482328
1411,55.63625876003607
1412,90.30638035736229
1413,119.67092591921391
1414,115.17283085910458
1415,87.48003045328915
1416,59.3504598423624
1417,49.42305403289174
1418,53.898747899056616
1419,61.39247618426634
1420,63.41117350282366
1421,68.60377434155453
1422,91.91721306146064
1423,143.96242389938197
1424,207.52634096965448
1425,254.4218982657785
1426,261.9850296620825
1427,245.71366891540856
1428,237.1007496667844
1429,262.7892054431286
1430,313.52496965891805
1431,364.1879756178969
1432,392.94415651478994
1433,403.7624454369834
1434,412.52677536625924
1435,433.2820791805061
1436,464.8022896554412
1437,498.57533946634067
1438,526.2981611897649
1439,541.842687305314
1440,540.1428501973496
1441,517.7315821567645
1442,484.4468153827238
1443,456.7584819844269
1444,449.51351398287807
1445,463.2658433126526
1446,491.3954018236691
1447,526.5491212829784
1448,555.7629333765399
1449,563.2347697110254
1450,535.9405618156034
1451,484.29724114374767
1452,430.3997390750519
1453,394.68698691702957
1454,383.2439159069381
1455,395.1444572136061
1456,427.66554193926095
1457,464.24410112135956
1458,481.7090657344361
1459,460.6893666919441
1460,411.10193484810407
1461,356.31970099976934
1462,316.70859588827625
1463,290.15255020132827
1464,264.6714945748554
1465,230.76835959489654
1466,196.27407579949067
1467,176.23557368055663
1468,181.905783685801
1469,200.19863622060984
1470,208.4820616499528
1471,188.01199030031967
1472,143.0873524615945
1473,86.38807838903267
1474,31.194098305144507
1475,-6.193657598336358
1476,-8.438259158536312
1477,33.77722376052225
1478,90.46372126986535
1479,119.57716345752488
1480,91.26748039050653
1481,29.70760211675588
1482,-25.99854133285953
1483,-45.55001994257691
1484,-33.53990370975225
1485,-3.180262642854359
1486,33.72483324051609
1487,70.30431391564707
1488,100.76010935271552
1489,118.50414951880703
1490,114.52836437993574
1491,79.37068390308013
1492,15.178038058205857
1493,-44.78964317968712
1494,-62.16842982852722
1495,-22.046391897099966
1496,35.831400616983956
1497,64.10387772937793
1498,40.83996947104424
1499,-4.760394109653134
1500,-37.56228294487482
1501,-39.75476694520694
1502,-23.435915997582924
1503,-3.6087999631763523
1504,8.44951132470851
1505,6.956948062741503
1506,-13.173559520311755
1507,-47.736081161468974
1508,-80.88068656138421
1509,-96.4564453822386
1510,-89.3784272455814
1511,-66.25570173018241
1512,-34.18133836987363
1513,1.3635933486002614
1514,36.32702398775473
1515,66.42988416154913
1516,83.74410453754535
1517,77.6586158391201
1518,39.549348847634974
1519,-17.393765595354125
1520,-66.83479658589386
1521,-85.04381315542742
1522,-71.2808842685663
1523,-36.01007882087288
1524,8.755534363366678
1525,41.78788653338415
1526,38.25790901417349
1527,-17.415466791268045
1528,-95.37630939966948
1529,-151.85868724524153
1530,-156.5676686773968
1531,-130.263321958475
1532,-105.77771526146353
1533,-103.91791666771314
1534,-110.53399416463435
1535,-105.2130156434032
1536,-79.7660488966576
1537,-53.284161616167694
1538,-48.38542139053243
1539,-73.06989570283804
1540,-110.21165192834269
1541,-140.48375733210742
1542,-156.12527906667674
1543,-164.675284169718
1544,-174.23883956164354
1545,-181.1500120432629
1546,-169.81486829341338
1547,-125.83947486655416
1548,-61.30389819039556
1549,-8.74220456351759
1550,2.454539847061824
1551,-19.508730991738048
1552,-44.58608297662795
1553,-46.803581865520755
1554,-30.924293275129457
1555,-14.892282678512856
1556,-13.246615402635143
1557,-23.264356625926666
1558,-36.885571375814834
1559,-49.387324526291195
1560,-67.75568079540062
1561,-101.51270474279772
1562,-149.63346076725247
1563,-184.99701310416276
1564,-176.77142582305714
1565,-119.02276282509047
1566,-49.727087840534296
1567,-10.685464426263934
1568,-17.883955963216067
1569,-54.66062565388529
1570,-102.38453651976124
1571,-145.16375139879347
1572,-169.5913329428422
1573,-164.1193436151043
1574,-137.87684568756413
1575,-113.25690123840286
1576,-108.82157214943436
1577,-113.23992010349684
1578,-101.86600658187308
1579,-58.40889286168749
1580,-7.1966400132787385
1581,15.252691102399695
1582,-11.19996016359255
1583,-54.70565424554479
1584,-73.27145136046602
1585,-49.6064115054196
1586,-18.439594454894177
1587,-20.409059758130752
1588,-62.15886673644309
1589,-102.01107448056973
1590,-96.80774184795882
1591,-51.631927460104635
1592,-18.05368969983101
1593,-44.07108670859998
1594,-113.3031763837862
1595,-167.70201637596983
1596,-157.81266408619558
1597,-99.18117666324542
1598,-34.925611000897334
1599,0.9299762648315664
1600,13.940528758434084
1601,20.28299036768658
1602,28.166305246419142
1603,24.508417817296504
1604,-7.095727225399969
1605,-66.20218491296328
1606,-123.75300999948013
1607,-148.70725695898182
1608,-132.61997998267543
1609,-91.83023297606996
1610,-43.48306955617409
1611,1.6164569513603055
1612,37.122293515083584
1613,57.35238740060595
1614,60.86668617346186
1615,48.10313770198809
1616,22.36869016019409
1617,-0.8297079693365959
1618,-2.747107892555505
1619,23.572439498942913
1620,55.281883630863376
1621,65.21917424909952
1622,46.23826142267171
1623,21.992095546675046
1624,17.67262734520955
1625,34.91380787433445
1626,52.931588525032566
1627,52.3179210261751
1628,36.97075744749782
1629,24.357050202583196
1630,28.63475205186296
1631,44.648816105604055
1632,60.627195826922616
1633,67.07384503480353
1634,61.6297179071189
1635,43.38576898366955
1636,17.785953169217464
1637,1.6832257365367695
1638,12.523542329478005
1639,51.93685896601892
1640,104.71113204135327
1641,155.0943183309646
1642,190.7493749937239
1643,201.45825957497254
1644,181.88293000965496
1645,154.64734462540036
1646,152.39446214567943
1647,192.95924169291175
1648,247.9586427916256
1649,280.3286253715887
1650,279.1871497709799
1651,278.9261767395383
1652,316.58166744176924
1653,386.2425834600799
1654,439.5038867980147
1655,431.88653988342594
1656,375.43250557170177
1657,313.94774714896994
1658,282.93922833531724
1659,275.60391328804144
1660,272.2927666048963
1661,261.0227533273137
1662,249.29983894368706
1663,247.4419893926388
1664,254.41717106629403
1665,253.51335081355865
1666,228.39349594343003
1667,185.5885742282826
1668,149.15555390718873
1669,140.02840368925172
1670,155.0470927569113
1671,181.11559076929916
1672,204.63186786558254
1673,210.4658946683212
1674,183.36664228682275
1675,125.93408232053662
1676,71.50818686241837
1677,54.60292850233054
1678,71.45728033044543
1679,82.98521594064005
1680,55.22170943394303
1681,7.180735421934514
1682,-16.266730969806304
1683,13.018285901753188
1684,57.7217622005428
1685,64.99467461485438
1686,18.552000360825332
1687,-28.048282814095728
1688,-16.0611966276374
1689,50.79323774077966
1690,106.91499965355433
1691,93.01206901843761
1692,27.5204262920397
1693,-31.47994751661099
1694,-42.162070842534376
1695,-27.87896156123861
1696,-27.81263698515977
1697,-61.60811386007117
1698,-112.19640836151666
1699,-158.62753609120864
1700,-184.21351207343014
1701,-176.29335075141262
1702,-126.4830659837171
1703,-58.72367104062323
1704,-12.245178600453073
1705,-12.696600745946853
1706,-37.87594896059272
1707,-55.34223412496249
1708,-48.58946651302176
1709,-27.27165578846507
1710,-3.567811000990332
1711,9.152059417394412
1712,-3.4590523439110257
1713,-50.859153470368256
1714,-111.73825051856875
1715,-152.90834941248067
1716,-153.72945543969672
1717,-128.0815732476749
1718,-95.61270683994098
1719,-71.68385957233295
1720,-66.15103414918394
1721,-86.49323261952395
1722,-118.13545637326388
1723,-132.95970613737882
1724,-111.84898197205894
1725,-76.3642832668711
1726,-59.10360873691843
1727,-71.91695641894694
1728,-86.72732366749733
1729,-72.71970715100906
1730,-34.23010284792599
1731,-7.095506042791385
1732,-21.632911322344626
1733,-63.5813125715722
1734,-100.4477029698046
1735,-109.15707498674146
1736,-92.81142037851805
1737,-59.123730183730004
1738,-20.743994719461625
1739,3.6577964227026314
1740,-2.2813456193298407
1741,-28.88040897414703
1742,-51.94738103282634
1743,-54.073248444902674
1744,-43.90499711432585
1745,-36.06661219542275
1746,-37.789078088837414
1747,-44.63837843745932
1748,-51.06349612234408
1749,-50.44341325863661
1750,-35.39711119145795
1751,-2.869570491797276
1752,29.6212290475969
1753,38.55430841635825
1754,14.815689390642547
1755,-23.130605462723906
1756,-54.32555278208474
1757,-68.95212840676777
1758,-66.45230737291695
1759,-48.41506390928862
1760,-26.860371433050204
1761,-17.41520254556599
1762,-25.2305290281638
1763,-32.56232183790689
1764,-19.735551103342004
1765,10.341813879760593
1766,33.902804652670056
1767,30.173453597986736
1768,2.020793943918761
1769,-38.62614023140395
1770,-78.06331399562805
1771,-98.51369155783959
1772,-82.90223626424267
1773,-42.491910593808825
1774,-15.852676153914217
1775,-34.086493675986276
1776,-73.31832301111172
1777,-88.18912312565135
1778,-57.19985209684637
1779,-14.873467108400291
1780,-1.9149244460495538
1781,-19.63517949314155
1782,-32.104186726188345
1783,-9.403899710402584
1784,32.68772890476521
1785,61.30674739010101
1786,61.23820494112624
1787,56.11015168259928
1788,72.77363867301028
1789,102.10471790912652
1790,103.58344233051866
1791,47.54586582410502
1792,-31.13195677128897
1793,-76.11496966035611
1794,-62.011116086737275
1795,-23.261338328421516
1796,0.786422306861823
1797,-0.1997745137568927
1798,-14.569868143647
1799,-30.21779695204441
1800,-35.54349831939999
