800,102.10936605618917
801,106.1825646252837
802,118.47117080733005
803,133.06538793863365
804,139.77541900890174
805,128.39146666132
806,94.0637331926664
807,50.50242055337549
808,15.437730347619436
809,6.179863833367563
810,26.419021922421962
811,62.715405180464586
812,100.57921382709901
813,126.76064773584585
814,137.93990643414872
815,135.41718910341115
816,120.55269457892246
817,96.23662134988263
818,69.27916755935985
819,47.120531004225995
820,36.88090913513406
821,40.040499056429326
822,52.809497526091945
823,71.23810095566296
824,91.08650541012503
825,106.7749066078286
826,112.23349992037402
827,101.51248037248479
828,75.2020426418785
829,45.162381059144536
830,24.36368960757318
831,24.446161923024192
832,42.24999129373646
833,65.43537066017052
834,81.55249261482277
835,81.77154940202308
836,69.0427329177528
837,48.656234709409546
838,25.872245975611804
839,5.680957565962672
840,-7.297440019192436
841,-8.442756628992356
842,5.575197537673375
843,30.256611931903535
844,58.221675654525825
845,82.09057745581413
846,96.84350573520351
847,101.7906485410058
848,96.7421935700877
849,81.86832816758942
850,61.99923932658203
851,44.86511368776155
852,38.26613753910715
853,46.502496815543054
854,62.80437709859871
855,78.27196361603637
856,84.24544124150816
857,78.32499449417264
858,64.46080753832575
859,46.91306418300883
860,30.241947881620945
861,20.677641731532276
862,24.970328473649715
863,49.750190492030015
864,92.88740981345472
865,138.41216810698825
866,169.13464668356755
867,170.58502649553702
868,151.96348813623626
869,134.78021183950295
870,140.5553774792461
871,178.8091645689674
872,230.09175226129082
873,270.71331934748196
874,278.51404425695546
875,253.50410505680338
876,212.64367945127015
877,173.33294478126663
878,148.32207802386074
879,133.72125579174826
880,121.890654332743
881,105.52044952924007
882,85.46081689768835
883,71.42193158805276
884,73.52396838325149
885,98.5571016986305
886,135.9215055813911
887,169.36735371002942
888,182.8648193937679
889,173.09407557199665
890,155.37529481367346
891,146.49864931675256
892,160.61431090760198
893,192.14245104039765
894,226.6732407965228
895,249.8068508839806
896,254.5134516367707
897,248.06321301428216
898,239.39630460066473
899,236.57289560423305
900,238.80315485679057
901,240.10725081305281
902,234.44535154996993
903,219.9576247660916
904,205.3042377809379
905,200.77535753432858
906,215.70115058574993
907,245.85178311366144
908,276.9974209148713
909,294.6982294038371
910,290.29437361201417
911,273.4160181871721
912,257.3133273927051
913,254.5964651069644
914,266.56559482256307
915,284.4408796456846
916,299.08248229538185
917,302.57056510288385
918,291.6952900108972
919,264.36681857289113
920,218.92531195238735
921,164.68093092224808
922,122.24383586397016
923,112.78418676694127
924,150.0321432277342
925,214.35786444937548
926,276.7115092406166
927,308.7332360151995
928,303.1032027911151
929,277.14156718986123
930,249.56848643571902
931,235.77411735498936
932,234.04861637525028
933,237.28213952460283
934,238.4948424309223
935,235.30688032110265
936,231.20840802028033
937,230.08957995109995
938,234.6905501329311
939,241.28147218110462
940,243.94249930614023
941,236.88378431298952
942,219.6554796002365
943,199.10773715935284
944,182.6207085738879
945,176.27454501870852
946,178.68939725921518
947,185.79541565054024
948,193.51275013678787
949,197.76155025021762
950,194.4119651104702
951,179.37414342377997
952,150.0282334821586
953,112.69438316261949
954,76.91273992637434
955,52.113450818033016
956,42.08666246479697
957,42.882521075664044
958,49.971172440627925
959,58.622761929858825
960,63.12743449291156
961,57.36533465791217
962,35.406606530745194
963,-1.7486062057523668
964,-43.980160292601795
965,-80.46791289549947
966,-102.12172160562659
967,-108.81144444046913
968,-103.4269398446213
969,-88.89806669062455
970,-68.8646842797516
971,-47.94665234286549
972,-30.803831041192097
973,-21.146080967189846
974,-18.05326314532067
975,-19.215239032908357
976,-22.37187052094123
977,-27.253019934894837
978,-35.848550035567314
979,-50.23832401987238
980,-70.33220552170678
981,-86.82005861272046
982,-87.92174780319147
983,-62.637138042809966
984,-17.81609472152195
985,22.221516329647784
986,32.35582883778807
987,-2.2930239127526875
988,-59.84490908115367
989,-110.11969427097029
990,-124.51724753095368
991,-101.49743735586526
992,-62.22013268730552
993,-28.545202914534457
994,-15.30251787529778
995,-16.45194785664171
996,-22.15336359574212
997,-23.236636280716993
998,-19.54163755144873
999,-17.12823950040911
1000,-22.1963146734779
1001,-36.945736070747444
1002,-54.13637714735887
1003,-65.17811181430261
1004,-61.47081443924617
1005,-37.05435984734322
1006,-3.758623322039057
1007,19.26651939408839
1008,13.141192098551983
1009,-25.984481871873868
1010,-80.35037964196272
1011,-130.55637879884125
1012,-160.0423573928001
1013,-167.9581939380896
1014,-158.73376741373795
1015,-136.91895726434632
1016,-109.9336434008892
1017,-88.5777062015186
1018,-83.88102651236477
1019,-102.59348564832362
1020,-133.52496539387357
1021,-160.7653480038316
1022,-168.9745162041927
1023,-155.25235319288186
1024,-128.23874264056212
1025,-96.98356869141571
1026,-69.32671596393266
1027,-49.22806955168744
1028,-39.90751502412604
1029,-43.99493842734228
1030,-56.49022628486091
1031,-67.02326559839639
1032,-65.15394384864521
1033,-47.742148996047035
1034,-28.22776948154933
1035,-22.380694227380445
1036,-43.110812637818526
1037,-79.1480145999285
1038,-106.95219048435501
1039,-103.16323114604893
1040,-63.28102792504251
1041,-12.915472647191564
1042,19.59354237507614
1043,12.476124342016192
1044,-19.527620034181382
1045,-49.017584530138265
1046,-49.483663412005626
1047,-18.005751436225182
1048,22.4662561497571
1049,47.62246360676545
1050,41.962974703132204
1051,21.087892714027475
1052,7.467320420690157
1053,21.701360109738744
1054,58.470113572457194
1055,93.69368210405082
1056,102.92216650298906
1057,77.22566707025544
1058,41.764283608672486
1059,26.148115422194678
1060,54.727261315209034
1061,111.80181959185393
1062,163.45188805532234
1063,176.28756400717793
1064,143.59894424667436
1065,94.54612507009188
1066,60.85920227002862
1067,65.77827113476633
1068,96.67342644759447
1069,131.4647624861209
1070,149.10237302165478
1071,145.28635131851297
1072,129.26679013340072
1073,110.66378171473298
1074,95.65741780201279
1075,82.3377896251859
1076,67.63498790399899
1077,49.32910284737591
1078,31.65022415277963
1079,21.808441005603527
1080,26.76384207853698
1081,44.266515530956895
1082,60.0365490083168
1083,59.00402964153545
1084,32.99904404640256
1085,0.41167832297105633
1086,-14.027981945022475
1087,12.140148309226788
1088,70.69615363503908
1089,131.7201180636457
1090,164.9321251076217
1091,156.01225776031424
1092,121.38059849528327
1093,80.96722926572147
1094,51.74223150390753
1095,33.41568612066476
1096,19.507673504789636
1097,3.6882735225281067
1098,-16.95243448297333
1099,-41.9343716921976
1100,-70.6074598097839
1101,-100.60162106505413
1102,-124.90677821252757
1103,-135.74285453244374
1104,-127.11977383125304
1105,-107.69746044213935
1106,-93.16583922551217
1107,-98.88483556948995
1108,-124.68437539040133
1109,-150.8943851332533
1110,-156.57479177222922
1111,-129.9355228111417
1112,-90.16650628390926
1113,-63.037670755013096
1114,-71.12894531995516
1115,-104.19025960570798
1116,-132.6215437711562
1117,-127.03272850754729
1118,-81.43374503891755
1119,-24.39452512251046
1120,12.644998950781883
1121,7.804894356009754
1122,-23.354772266242435
1123,-56.003934810256396
1124,-67.40252770560619
1125,-59.74048591751671
1126,-51.49774494727717
1127,-61.214240832607175
1128,-93.43991014805215
1129,-130.41469000534016
1130,-152.36851805374135
1131,-145.6113324804428
1132,-121.89307201088741
1133,-99.57367590912872
1134,-95.79308397816203
1135,-112.82123656027579
1136,-143.038074537355
1137,-178.64353933122948
1138,-210.62757290396075
1139,-228.17011775819083
1140,-220.24111693739906
1141,-181.8905140262341
1142,-132.2182531507824
1143,-96.37427897887392
1144,-96.87853672033634
1145,-127.7509721272836
1146,-165.22153149437509
1147,-185.53016165906956
1148,-179.32681000187586
1149,-157.8814244466139
1150,-134.0539534606287
1151,-118.16434605504583
1152,-111.53255178497966
1153,-113.56852074976268
1154,-123.57220359313942
1155,-139.91355150350137
1156,-160.45251621405623
1157,-183.00905000303464
1158,-203.62310569386864
1159,-216.27463665537834
1160,-214.79359680192647
1161,-196.6099405935929
1162,-169.00362303633665
1163,-140.9745996821257
1164,-120.20282662911268
1165,-105.7482605217283
1166,-93.05085855084326
1167,-77.96057845387986
1168,-64.52737851492202
1169,-64.37121756482338
1170,-89.35205498130745
1171,-140.45985068906703
1172,-196.86456515984537
1173,-235.10615941250398
1174,-237.33459501311154
1175,-211.9798340749894
1176,-175.11183925878686
1177,-141.92057377250967
1178,-116.38600137157664
1179,-95.20808635884896
1180,-75.02679358464411
1181,-56.172088446779526
1182,-43.96393689056276
1183,-44.10230540880002
1184,-59.87716104179708
1185,-87.5784713773428
1186,-122.15620455070166
1187,-158.33032924455438
1188,-189.04081468900768
1189,-206.50763066151922
1190,-203.39074748686107
1191,-180.66013603705323
1192,-146.46576773131164
1193,-109.1976145359622
1194,-75.69564896435986
1195,-50.04984407680604
1196,-36.050173480443846
1197,-36.08661132916677
1198,-47.17913232348474
1199,-65.07771171041168
1200,-85.29232528335706
1201,-101.02294938194063
1202,-104.36956089190062
1203,-87.84213724490473
1204,-54.05065641840156
1205,-15.6350969354462
1206,14.344562135473097
1207,27.438341180624775
1208,24.336260041221976
1209,6.748338013630928
1210,-21.72540615040998
1211,-49.90495424359324
1212,-64.6902886027965
1213,-55.00139210884663
1214,-27.518248186288474
1215,1.899159196875189
1216,17.87084552945089
1217,18.156825757312617
1218,13.447114283684641
1219,14.931724969430434
1220,25.68067113334655
1221,33.50396555246152
1222,24.56162046234931
1223,-8.576352442543794
1224,-49.59994200857727
1225,-76.74913762257347
1226,-71.22392921147912
1227,-36.81430724200072
1228,12.359737279759429
1229,62.328212808657554
1230,102.26112726091924
1231,124.06848801450906
1232,119.9203019095221
1233,92.70657524861599
1234,61.88731379741694
1235,48.3125227849323
1236,63.952206904003106
1237,95.3663703117345
1238,124.5950166299499
1239,137.0281489456611
1240,136.60576981152371
1241,133.67788124632898
1242,137.56448473548517
1243,146.6855812315098
1244,152.55117115454232
1245,146.91125439286043
1246,130.9058303033944
1247,115.96489771227607
1248,114.01845491535278
1249,130.84649967877886
1250,160.4490292395385
1251,195.49604030603768
1252,227.33752905867004
1253,242.82349115041325
1254,227.78392170742882
1255,172.85881532965686
1256,99.21816609144298
1257,40.06196754215307
1258,26.100212706815
1259,56.002894086759625
1260,106.6200036602786
1261,154.68153288327994
1262,186.34747268996398
1263,198.49781349348996
1264,188.65254518669826
1265,161.34165714277879
1266,134.32513821599787
1267,126.88297674241403
1268,150.12516054059415
1269,188.4616769123768
1270,220.89251264358973
1271,230.59765400483047
1272,224.46708675221817
1273,217.83079612818256
1274,223.94876686224234
1275,234.8409831717854
1276,229.99742876290657
1277,190.06808683119925
1278,122.49294006257878
1279,60.071970634127865
1280,36.20516021493313
1281,61.15248996693663
1282,110.55394054580938
1283,157.21949210181083
1284,183.21912428068026
1285,192.77281622452028
1286,193.41054657270615
1287,191.9722934628062
1288,192.80803453147382
1289,199.6277469154229
1290,214.42140725232275
1291,228.01899168178534
1292,226.7204758463049
1293,198.7758348922398
1294,153.8050434707875
1295,114.86807573898295
1296,104.23490536068857
1297,123.11550550761604
1298,152.72984886033373
1299,173.6779076093153
1300,177.32965345596494
1301,170.39505761367582
1302,160.7840908088856
1303,153.21672328214845
1304,145.58292478922704
1305,134.88266460216437
1306,120.39591151039531
1307,109.02263382186356
1308,109.20279936413135
1309,127.8663754855097
1310,164.04332905621231
1311,214.24362646950067
1312,274.03723364283906
1313,331.5941160190778
1314,371.5142385676281
1315,379.5175657856562
1316,356.3940616992895
1317,313.38368986480964
1318,262.0264133699184
1319,214.48219483492176
1320,183.59099641399916
1321,181.94277979646176
1322,208.64750620799714
1323,243.86513641196507
1324,266.4256307106607
1325,267.11894894662873
1326,260.65505050395404
1327,264.5438943095796
1328,287.8954388346465
1329,315.95964209581325
1330,329.7564616566069
1331,317.43585462878036
1332,296.15777767368854
1333,290.5021870036471
1334,320.2590383833467
1335,376.9582871312159
1336,441.9098881208756
1337,499.35379578251013
1338,558.3999641043392
1339,640.6683466340273
1340,764.2688964801546
1341,902.2115663136683
1342,996.8563083693571
1343,992.9730744473309
1344,894.371815914521
1345,758.3024837061675
1346,642.8850283273568
1347,570.299399854528
1348,519.8655479370063
1349,468.61342179856365
1350,407.98297023895975
1351,351.9341416355237
1352,316.35688394470344
1353,309.16114470369394
1354,321.97687103200224
1355,344.4040096330682
1356,365.0625067958863
1357,369.8723083966288
1358,344.313359900294
1359,282.18560636235634
1360,206.63899243042215
1361,147.28346234590208
1362,127.9989599457167
1363,146.21542866395248
1364,191.78281153358876
1365,253.5810511882246
1366,315.0100898637829
1367,357.39986940024755
1368,364.52033124342597
1369,339.17141644669937
1370,293.0630656727899
1371,238.0352191955426
1372,186.53781690170945
1373,151.38079829276103
1374,143.87410248668675
1375,154.70766821983125
1376,159.8914338487084
1377,136.6853373518661
1378,90.92931633172157
1379,53.23330801644261
1380,53.90724926180337
1381,96.13107655309796
1382,154.914726007024
1383,204.25813337357613
1384,228.3612340380041
1385,224.0739630226908
1386,189.25625498914815
1387,134.03804423992187
1388,86.42926472057843
1389,75.62985002167443
1390,110.04973338074342
1391,162.49884768427728
1392,202.33712546974857
1393,213.9244989276085
1394,211.57089990333225
1395,213.1662598994535
1396,227.99051007759408
1397,245.41358126054547
1398,251.9354039343416
1399,239.09590825031046
1400,211.87502402720384
1401,177.51268075327062
1402,142.73880758839005
1403,112.6833333661798
1404,92.17618659614709
1405,85.1172954658341
1406,92.11658784294559
1407,113.0739912775698
1408,146.06943300430612
1409,182.0528399444829
1410,210.1741387083548
1411,222.9332555973033
1412,227.86011660607437
1413,236.65464742500626
1414,257.44677344225056
1415,280.8764197460696
1416,292.17351112707365
1417,279.36797208049575
1418,245.7097268084981
1419,199.58869922244594
1420,149.61481294524128
1421,105.53799131362757
1422,77.52815738052232
1423,74.08523391736162
1424,92.88914341646341
1425,127.34980809335866
1426,170.61714988920357
1427,214.23109047313847
1428,248.9915512446987
1429,267.8984533362109
1430,279.8017176152225
1431,300.5312646869206
1432,342.61701489656843
1433,392.8488883319751
1434,426.09680482593467
1435,421.59068395870054
1436,393.6804450604959
1437,373.466007213965
1438,387.78728925671203
1439,427.1142097838001
1440,464.14668715028347
1441,474.56463947373777
1442,460.5079846368171
1443,437.26664028981213
1444,419.67052385320494
1445,417.6695525202722
1446,438.77364325966846
1447,487.5227128180086
1448,543.3866777225194
1449,573.215454283616
1450,548.9089585975889
1451,485.3071065492077
1452,418.5998138143932
1453,380.94699586289425
1454,369.7085679609372
1455,365.25444517395226
1456,350.10454236924306
1457,324.93877421871184
1458,299.0770552015729
1459,281.02929960709116
1460,272.725421537325
1461,273.07533490987225
1462,280.0289534606418
1463,284.87619074662325
1464,275.9769601486805
1465,244.6911748743405
1466,203.0087479606027
1467,171.49959227675936
1468,166.14362052722936
1469,173.26074525438162
1470,167.55087884140994
1471,129.17393351515966
1472,70.51982134904392
1473,15.728454265879918
1474,-13.940255959174465
1475,-12.806397695752821
1476,19.569940544653946
1477,78.55867011162627
1478,134.8897022187357
1479,151.67294794650297
1480,105.6583182453669
1481,33.70572393861585
1482,-10.634924274596415
1483,8.306284183729076
1484,55.62925977343184
1485,78.98391283918863
1486,43.53015361357029
1487,-24.122107779956423
1488,-83.97296132397423
1489,-108.07249710405995
1490,-105.64080530573119
1491,-93.00797621136007
1492,-80.87410019708659
1493,-64.77926772974206
1494,-37.733569363717834
1495,0.772904262137672
1496,36.31006242764306
1497,52.357814334434806
1498,42.896069109105156
1499,23.00473580637481
1500,10.213723412232866
1501,13.992940847159844
1502,29.902296969279632
1503,52.051700577587326
1504,69.40106041514446
1505,63.430285172309596
1506,15.72928348997084
1507,-64.52203603721864
1508,-133.67376485757086
1509,-147.495994459121
1510,-103.39881636633618
1511,-42.73232213682786
1512,-7.246603358076754
1513,-5.911751644105607
1514,-18.757858632174248
1515,-25.705015979450764
1516,-19.503315359672342
1517,-2.262848459802626
1518,23.10629302333473
1519,47.594017386412816
1520,58.460232922989235
1521,45.434847926886505
1522,18.43777069560565
1523,-2.73109046628997
1524,-2.0718272437279666
1525,11.74546869229016
1526,20.44070568812458
1527,11.773792110965587
1528,3.2446363522685715
1529,21.423146831244594
1530,84.13923199833698
1531,175.8728003387114
1532,273.2637603757521
1533,357.87202067458566
1534,425.61748984558835
1535,474.9700765479338
1536,502.9296894931231
1537,503.19623744853925
1538,469.06962924101936
1539,399.3197737604096
1540,302.1965799631671
1541,187.0499568759351
1542,71.23981359915888
1543,-17.3139406893024
1544,-51.3013967305651
1545,-35.60264518107397
1546,-7.787776608965942
1547,-4.836881490418818
1548,-32.55005020598037
1549,-72.62737303689755
1550,-107.12894016145401
1551,-128.4648416512391
1552,-135.07516746747933
1553,-126.18000745730205
1554,-106.10945135003567
1555,-81.39358875345533
1556,-59.13250915005483
1557,-49.17630189328156
1558,-62.21505620379321
1559,-102.14886116566959
1560,-149.04780572263735
1561,-177.74197867427756
1562,-175.69146867222844
1563,-161.5063642163641
1564,-158.43675365098716
1565,-177.1127251609887
1566,-206.0043667680111
1567,-231.49176632659874
1568,-247.07501152033547
1569,-255.2641898579859
1570,-259.05938866959696
1571,-259.79069510263434
1572,-257.2281961180597
1573,-251.121978486437
1574,-240.92212878401733
1575,-225.91873338880578
1576,-206.52187847662935
1577,-191.33165001717862
1578,-192.6181337700673
1579,-217.3714152808716
1580,-247.24157987713807
1581,-256.2087126644019
1582,-228.64289852221555
1583,-181.67422210011864
1584,-138.9327678136433
1585,-117.3786198402795
1586,-119.91186211546665
1587,-147.39257832852672
1588,-187.9708519186279
1589,-211.68676607073212
1590,-189.16040371151212
1591,-133.8018475052795
1592,-100.22117984991382
1593,-138.64848287273344
1594,-227.67383842642812
1595,-299.4773280849149
1596,-296.4190331392274
1597,-237.21903459338864
1598,-172.99741316025757
1599,-142.92424925738305
1600,-134.14962300285333
1601,-119.8836142111013
1602,-87.95630238875674
1603,-65.21776673044405
1604,-84.69808611458211
1605,-151.73733909918155
1606,-224.71560391765343
1607,-258.5729584745404
1608,-240.79948034133122
1609,-194.56524675219043
1610,-144.42033459971572
1611,-108.97482043068521
1612,-102.62878044178979
1613,-134.9922904753421
1614,-181.15542601500965
1615,-200.90826218151233
1616,-165.77087372832284
1617,-97.67333503735063
1618,-31.915720114622673
1619,7.5518974140395585
1620,25.569444307364392
1621,31.346847712971794
1622,28.734035171728465
1623,13.340934622117857
1624,-19.15252559540022
1625,-56.06641673399463
1626,-68.5608096360902
1627,-31.655774728955294
1628,33.488617979697665
1629,78.83229890612711
1630,67.1751988949818
1631,23.21724922374233
1632,-7.051618392848468
1633,5.8485282016663405
1634,40.09762160990431
1635,64.08559488513856
1636,63.94238153572405
1637,57.647915529629245
1638,65.83213129888645
1639,91.93496374410825
1640,121.0363482389912
1641,138.3062206348277
1642,140.03451726503408
1643,129.52117494967024
1644,111.96613099998831
1645,103.1393232229766
1646,122.5206899259174
1647,175.75016992093333
1648,225.1677025295885
1649,225.12322758743176
1650,164.1466854486116
1651,89.93801699046344
1652,54.33716361810548
1653,68.71406726905116
1654,104.35867041783058
1655,133.2009160806192
1656,150.6307478198596
1657,165.18810974892767
1658,182.75294653674064
1659,195.48520341246513
1660,191.39482617014073
1661,167.6417611733723
1662,144.71595536001223
1663,146.20735624682493
1664,172.4859119342218
1665,191.69157111091772
1666,172.56428305868758
1667,127.83399765704235
1668,103.89066538798579
1669,139.2542373407323
1670,213.2646652164476
1671,280.87190133299555
1672,306.0058986297081
1673,282.94661067212655
1674,212.49399165677642
1675,112.16799641596299
1676,28.308580422522937
1677,7.705699794641987
1678,48.88931130064884
1679,105.74937236380902
1680,134.9758410671493
1681,129.80867615827083
1682,101.35783705417816
1683,61.2532838461193
1684,22.534977304421773
1685,-1.45712111667126
1686,-5.873049274123332
1687,-2.052844331257802
1688,-2.69654275288849
1689,-8.774180300435546
1690,-9.635792027052958
1691,3.7385877272645303
1692,22.198925340584537
1693,27.32518791392249
1694,7.237343276174215
1695,-23.924640010989606
1696,-45.73079264819171
1697,-49.551144593411664
1698,-48.94572505706128
1699,-59.14456249704017
1700,-78.88768461378095
1701,-91.27511834529287
1702,-81.37688986220928
1703,-54.9330245628189
1704,-27.41354706807215
1705,-11.708481216624932
1706,-11.43785005983591
1707,-28.111675856776856
1708,-56.57998006923299
1709,-80.76278335669849
1710,-84.68010557135494
1711,-71.02196575306334
1712,-57.54838212433424
1713,-59.69937208530246
1714,-75.56495220867873
1715,-96.54513823471825
1716,-116.39994506616495
1717,-135.35938676319347
1718,-154.56347653836383
1719,-167.50222675153054
1720,-157.81564890479603
1721,-111.64375363741055
1722,-49.21655072069916
1723,-11.694049052972332
1724,-27.446256654417084
1725,-67.02318066201406
1726,-85.18482732441953
1727,-60.9712019968465
1728,-20.012309135965552
1729,7.521847705236723
1730,6.891265882584776
1731,-22.80405633416376
1732,-78.46411975615774
1733,-133.62892427032057
1734,-152.27846883419625
1735,-116.09275147079461
1736,-55.74176926342261
1737,-9.635518350514758
1738,5.816006079516228
1739,1.2028097934926336
1740,-12.015100481374247
1741,-29.647717052279404
1742,-51.61503125564013
1743,-75.05703345190523
1744,-86.71371302031912
1745,-71.19505835375276
1746,-31.971056853466507
1747,-2.2516949239070527
1748,-14.566957967468625
1749,-57.08683037926858
1750,-86.68129554193001
1751,-71.90033582033539
1752,-39.803932556369546
1753,-34.56206606369051
1754,-71.98471562247687
1755,-113.48185947417005
1756,-116.68347481620549
1757,-80.04953779675634
1758,-35.990023509459206
1759,-12.304905988145038
1760,-4.634158201557511
1761,2.5222479519361514
1762,16.114341649623384
1763,24.332153149744045
1764,13.72571379677538
1765,-12.314943973247864
1766,-34.8097866274511
1767,-37.548779530787215
1768,-25.341886940748736
1769,-10.979072002035537
1770,-0.6502967412379803
1771,14.934477938488271
1772,46.645292262748626
1773,90.62218759125062
1774,128.87520642312666
1775,144.81439240228792
1776,134.6697903227614
1777,99.74144613403769
1778,45.83940694642479
1779,-10.706278963591103
1780,-52.30556214799981
1781,-67.03839198189053
1782,-48.314716658100224
1783,5.105516818177421
1784,63.46236263474384
1785,85.41587617777805
1786,53.796114037231746
1787,4.553134012188821
1788,-21.103004883731046
1789,-15.132242416986628
1790,1.4554828712753078
1791,11.340233670620364
1792,22.232073906725418
1793,50.16106874677644
1794,98.04728460487968
1795,143.47078914747362
1796,162.5516512987342
1797,152.34994124598234
1798,125.89573044512326
1799,95.7590916260524
1800,70.9000987980744
