800,124.64485760264324
801,129.918732321692
802,139.5642901343581
803,149.58174076697287
804,154.74129386111417
805,149.82315897057924
806,131.75754555829735
807,105.01466299334425
808,75.72472054788159
809,49.967927394192884
810,33.724492601637394
811,32.82462513370774
812,53.04853384501803
813,98.13642747836275
814,155.66851466175103
815,205.5850039054767
816,227.8361035991693
817,212.53202200889427
818,175.4329672742133
819,136.3191474053292
820,114.24077028015199
821,113.71804364145464
822,125.9111750939901
823,141.5003721016492
824,152.4358419846012
825,157.37779191647314
826,157.16642892152413
827,152.67195987181913
828,145.27459148445814
829,137.30453031875732
830,131.18198277347983
831,129.0671550840725
832,130.2702533199008
833,132.3614833815027
834,132.87105099785185
835,130.2691617236269
836,126.02602093651694
837,122.221833834481
838,120.8568054330899
839,121.96114056281294
840,123.40504386636712
841,122.92871979604206
842,118.68237261104878
843,111.01620637488486
844,101.13042495269838
845,90.22523200866453
846,81.15083100338234
847,79.77742519126878
848,92.31521761797921
849,124.04441111781125
850,169.50520831116046
851,216.40781160193546
852,252.39242317502794
853,269.039244993779
854,270.538478797429
855,263.5303260986311
856,254.4749881809148
857,245.06266609622617
858,232.0835606623932
859,212.11787246069616
860,183.62580183337923
861,154.87754888120435
862,137.39331346098697
863,142.53329518318787
864,170.56769340948085
865,204.2767072503175
866,224.89053556255567
867,216.389376947036
868,187.0434297462234
869,157.64289204180568
870,149.05796165235733
871,172.15883613096594
872,213.81571276289105
873,257.35878856324234
874,286.8482602746426
875,297.05432436492447
876,290.8971770248045
877,271.53701416562217
878,243.5240314170369
879,216.53842412474478
880,201.42038734824018
881,208.54011585853732
882,235.8978041359387
883,268.2136463677962
884,289.5278364462865
885,287.8305679662062
886,271.532034222746
887,255.7424282093125
888,255.3719426153384
889,276.6607698241005
890,313.0791019105691
891,357.05713063923395
892,401.24504746196544
893,439.77304351588464
894,467.4013096212202
895,478.9600362792098
896,473.03941366997606
897,455.54963165043955
898,433.2908797522232
899,412.5933471795797
900,395.28722280731563
901,380.56269517873807
902,367.55995250359956
903,355.79918265605556
904,345.6605731726504
905,337.6743112502718
906,332.34058374415144
907,329.9995771658614
908,330.8414776813279
909,335.05647110883
910,342.6047429170485
911,352.8164782230742
912,364.87186179048695
913,377.9710780273763
914,391.6043109844213
915,405.5317443529693
916,419.5235614631056
917,431.3899452817568
918,431.3610784107732
919,407.88714308506496
920,350.28832117070306
921,270.0247941630514
922,201.50674318491656
923,180.2143489846785
924,230.43779193446062
925,326.07725202828806
926,426.87290888026473
927,493.38494172276296
928,511.5935294046103
929,497.28885038929366
930,468.00108275318416
931,439.10040418372955
932,415.3169919777156
933,397.9810230394942
934,388.35267387921886
935,384.5521206111225
936,380.73953895177146
937,370.795104218354
938,350.1089913269461
939,322.4613747908279
940,294.50242871876253
941,272.83232681333175
942,261.9712423692399
943,263.5793482716599
944,279.1268169945524
945,307.95382059902477
946,337.1405307317
947,349.34711862305994
948,327.5637550858319
949,271.400610513374
950,203.5178548780641
951,148.29565772970454
952,125.36418819393111
953,126.59361497062673
954,133.79410633235966
955,129.03583012282252
956,107.86895375525819
957,84.49364421093196
958,74.44006803759657
959,89.33839134795744
960,118.43877981815785
961,143.071398686252
962,144.92641275073765
963,120.92398636903454
964,88.23428345600769
965,65.41746748249352
966,66.85370147384674
967,84.6531480084468
968,103.4759692162952
969,108.28232677754022
970,94.83238192105273
971,72.31629542301562
972,50.71422760549649
973,37.286338335041364
974,25.78278702129319
975,5.903732615579429
976,-32.21066639045421
977,-85.49025196621005
978,-136.41486654351684
979,-166.66435301796628
980,-163.2985547502849
981,-136.247315567638
982,-101.48047976498674
983,-74.63789210639516
984,-63.599397826341374
985,-68.52484263103179
986,-89.29407269968215
987,-122.43693468581296
988,-152.41327571852707
989,-161.00294340377695
990,-131.39578582562535
991,-71.14165154750299
992,-8.290389613446678
993,28.49815045066498
994,23.834118635868435
995,1.5276644489149476
996,-7.391063088942246
997,25.328084556840622
998,91.94525543290183
999,159.7805970967911
1000,195.68425661580113
1001,181.25638056579373
1002,132.95711503002167
1003,72.28660559800483
1004,20.744997364357914
1005,-3.377565072325524
1006,-3.620937610607143
1007,7.515023352660137
1008,17.58046092125005
1009,20.265517698438998
1010,17.960335785908683
1011,13.775056782675165
1012,10.47982178399252
1013,9.294771380293241
1014,10.870045656125512
1015,15.775784189087062
1016,21.80212604879671
1017,23.41920979583847
1018,14.937173480742786
1019,-6.583845357046812
1020,-32.493709690164906
1021,-51.022283004353085
1022,-51.01942929946017
1023,-33.22501309040672
1024,-9.408899408190337
1025,8.219046199154036
1026,11.938957665577618
1027,8.040968406068714
1028,5.625211315695196
1029,12.931818768678568
1030,27.450922617439574
1031,39.142654191684414
1032,37.80714429748514
1033,20.154523216366215
1034,-1.4550792955815268
1035,-12.501534008628369
1036,-0.3147122202499304
1037,31.815514243957296
1038,72.48927302943412
1039,110.27669125177272
1040,137.15789549588953
1041,150.47301181514922
1042,148.07216573054757
1043,129.20548222986508
1044,101.04308576686344
1045,73.51510026045071
1046,56.27164909388557
1047,51.512855113966
1048,53.318840630265186
1049,55.31972741431309
1050,52.56563669883326
1051,45.046689176988366
1052,33.863005001605416
1053,20.22470378442449
1054,7.201904595349333
1055,-0.7952740382734191
1056,0.6632858676002797
1057,12.227701752995927
1058,26.408090513208663
1059,34.57456849808841
1060,29.467251511352515
1061,14.06625480988987
1062,-4.028306896925642
1063,-17.23631944790941
1064,-20.507669230730244
1065,-12.192243182567836
1066,9.130071209216112
1067,42.70938590646256
1068,78.65581231955002
1069,104.64946130677527
1070,109.14044317374646
1071,92.69886767273601
1072,65.70484400210626
1073,38.82848080568692
1074,19.809886172195547
1075,9.579167634656187
1076,8.106432169806794
1077,15.071786197548136
1078,28.1853355803687
1079,44.19718562279559
1080,59.85744107085884
1081,71.55620611153063
1082,75.22358437221737
1083,66.73967892020846
1084,44.98459226219347
1085,20.238426343723404
1086,5.551282548725794
1087,12.813261699007853
1088,38.75446405376351
1089,69.34498930910377
1090,90.36493659758526
1091,94.12440448772941
1092,85.41349098358478
1093,70.48229352427188
1094,55.19090898354443
1095,43.10943366934407
1096,37.00796332338541
1097,39.27659312072137
1098,43.7854176693545
1099,36.054531009816856
1100,1.234026614763934
1101,-64.3960026113964
1102,-134.9754643328979
1103,-179.7642667829823
1104,-173.11231876428428
1105,-130.80952964917378
1106,-88.64580938012114
1107,-81.8210684700316
1108,-117.96521800260052
1109,-170.07816963263394
1110,-208.90983558636617
1111,-213.98012866179124
1112,-194.6189622289694
1113,-166.45625023031607
1114,-144.3119071809142
1115,-134.59584816879033
1116,-138.7779888551977
1117,-158.1382454748964
1118,-186.96653483640875
1119,-209.28277432227878
1120,-208.27688188933644
1121,-173.8687760689245
1122,-122.58837596714875
1123,-77.50560126509845
1124,-59.93037221907616
1125,-69.88260966080998
1126,-93.4522349976578
1127,-116.60917021281966
1128,-133.05333786550727
1129,-148.83466109116853
1130,-171.0830636016326
1131,-203.71846968529644
1132,-237.2108042072923
1133,-258.55999260963654
1134,-256.06596091138454
1135,-234.40863570878537
1136,-209.12794417539408
1137,-195.84381406222928
1138,-200.46617369786873
1139,-213.62495198858778
1140,-224.59007841844323
1141,-225.86148304940434
1142,-222.79909652141396
1143,-223.94285005250094
1144,-236.92267543884554
1145,-259.27850505486094
1146,-282.2402718532412
1147,-297.01790936504585
1148,-298.6013516997373
1149,-287.3505335452137
1150,-264.0453901678684
1151,-231.8558574126073
1152,-202.03187170286765
1153,-187.63337004065033
1154,-199.76029000651397
1155,-231.99256975957906
1156,-268.500148037534
1157,-293.6029641566038
1158,-298.5509580115522
1159,-282.88407007564456
1160,-246.6622414006033
1161,-194.9054136165978
1162,-146.30352893216514
1163,-121.88653013417934
1164,-137.7243605877793
1165,-176.09696423629975
1166,-205.23428560120374
1167,-195.03626978199645
1168,-149.4728624561285
1169,-103.99400987891931
1170,-95.0996588834314
1171,-136.06975688038438
1172,-193.47425185801148
1173,-228.2630923819579
1174,-211.7462275951475
1175,-163.7136072176272
1176,-118.0951815464432
1177,-105.90090145548675
1178,-123.11071839531542
1179,-142.82458439302172
1180,-138.24245205202715
1181,-103.48427455192541
1182,-61.40000564829279
1183,-36.919599672484765
1184,-46.01301153144777
1185,-78.0601967075072
1186,-117.52111125815645
1187,-150.15571181583437
1188,-170.6739555876993
1189,-177.4758003553943
1190,-169.2212044748012
1191,-148.95012687580493
1192,-123.46252706203813
1193,-99.68836511058907
1194,-81.42760167178676
1195,-67.0201979688718
1196,-54.2561157977525
1197,-41.78531752669733
1198,-31.547766096053238
1199,-26.253425017916015
1200,-27.792258375851816
1201,-31.30423082456582
1202,-28.509307589576565
1203,-11.557454466892523
1204,16.731362177326446
1205,42.907175407111936
1206,53.14001771703806
1207,42.789921032579514
1208,25.296916710480218
1209,16.2210355391162
1210,26.002307738866875
1211,44.4207629625198
1212,56.026430295645696
1213,47.65933825700449
1214,26.229514798938908
1215,9.026987307801392
1216,12.731782604358159
1217,37.58392694422764
1218,67.64344601830089
1219,86.35036495318491
1220,86.94470831164836
1221,81.02650009307581
1222,82.22576373391166
1223,98.60252210815997
1224,117.70679752781325
1225,122.32861174336176
1226,98.83798594427572
1227,60.614940759480305
1228,33.339496257882274
1229,41.26167194885238
1230,81.66148678275022
1231,128.98895915143476
1232,157.2141068888086
1233,156.26694727132235
1234,140.56749701855006
1235,126.625772293708
1236,126.22178870421158
1237,137.55556130224977
1238,156.41710458533635
1239,178.92643249689354
1240,202.90355842682038
1241,226.78849521209668
1242,248.78125513736632
1243,264.56184993552415
1244,268.23029078836043
1245,254.25658832712725
1246,228.01075263320308
1247,206.85279323867871
1248,208.66271912703087
1249,239.24053873373668
1250,281.2262599469195
1251,314.6498901080231
1252,324.5514360124489
1253,313.42090391024794
1254,287.5182995067644
1255,253.85362796334812
1256,224.07689389802
1257,211.68810138616573
1258,228.7272539612586
1259,268.904354615539
1260,313.4694058007499
1261,343.77240942884237
1262,352.1133668727125
1263,343.26227896693126
1264,322.6791460084878
1265,298.3739677575322
1266,283.1867434381402
1267,290.50747173905256
1268,327.28615081447606
1269,379.522778284816
1270,428.9573512375009
1271,459.76986622773074
1272,470.0803192792973
1273,462.9487058853774
1274,441.70502100932936
1275,412.3392590855274
1276,382.43141402016954
1277,359.30147919209776
1278,344.539447453657
1279,334.3053111315112
1280,324.5990620275006
1281,314.3206914194943
1282,306.72019006225673
1283,305.38754818830967
1284,312.25275550880906
1285,325.2558012144091
1286,341.75667397618963
1287,358.57536194649947
1288,370.56185275990174
1289,372.016133534049
1290,359.13819087062257
1291,340.16801085622865
1292,328.1855790633472
1293,335.2208805512528
1294,361.2438998669604
1295,398.68462104617356
1296,439.96302761422703
1297,479.4691025870743
1298,513.5028284722193
1299,538.4341872697205
1300,551.463160473153
1301,550.9297290706108
1302,535.2738735456805
1303,508.6055738784653
1304,487.17480954657003
1305,488.81155952613335
1306,522.855802292841
1307,570.3775158229455
1308,606.6166775943166
1309,612.1632645874652
1310,595.1272532866024
1311,572.4186196806841
1312,559.0373392644833
1313,554.6133870396443
1314,551.426737515767
1315,542.2173647114796
1316,526.7352421555315
1317,509.61034288788323
1318,495.56263946081344
1319,490.13210394001726
1320,499.5287079057198
1321,529.8124224538133
1322,575.9532181969626
1323,617.311065265756
1324,632.1659333098305
1325,612.3677914990312
1326,576.7066085245606
1327,547.1923526001501
1328,538.5149914631947
1329,544.604492375971
1330,555.7208221267847
1331,565.5339470311701
1332,581.6338329330883
1333,615.1904452061171
1334,673.173748754667
1335,738.1737080151979
1336,783.930286957424
1337,788.0034490855578
1338,760.2031574395387
1339,726.5493745962722
1340,711.3420626708739
1341,715.4711833179372
1342,723.9366977327754
1343,722.0385666527127
1344,706.8267503583302
1345,686.041208674771
1346,667.6019009730171
1347,653.6387861711846
1348,639.3218227358284
1349,619.5509686832429
1350,596.2961815807848
1351,582.627418548187
1352,592.5246362588987
1353,628.377790941402
1354,668.9568383805708
1355,690.1317339190064
1356,677.1224324583964
1357,640.3388884608885
1358,594.3210559504314
1359,551.5388885141801
1360,516.912339303859
1361,493.74136103715136
1362,483.96590599910087
1363,483.28592604352343
1364,485.65137259438234
1365,485.92219664724325
1366,484.74834877067406
1367,484.93977910767717
1368,488.8164373771233
1369,495.2482728752075
1370,501.46523447688196
1371,505.21727063732396
1372,509.5043293933868
1373,520.416358365088
1374,543.2833047570548
1375,572.5951153600472
1376,595.1217365524226
1377,598.1631143016275
1378,581.7591941657265
1379,556.9599212948815
1380,534.9052404328941
1381,519.1050959187269
1382,505.22943168800884
1383,488.69819127461415
1384,468.99131781216056
1385,450.60875403560203
1386,438.32044228276754
1387,434.3363244959128
1388,437.07634222331944
1389,444.69043662085824
1390,455.45854845357826
1391,467.93061809728533
1392,480.68658554016474
1393,493.4663903843739
1394,508.3799718476512
1395,527.7772687649431
1396,550.6582195900282
1397,568.2327623971523
1398,570.590834882656
1399,552.8523743666501
1400,523.6273177946314
1401,493.78560173917504
1402,473.19716240158414
1403,468.69193561357497
1404,486.4998568389492
1405,528.2508611752874
1406,579.3748833556474
1407,621.711857750246
1408,641.9317183682051
1409,645.7343988592293
1410,643.5598325153514
1411,644.5079522726555
1412,651.5786907130132
1413,666.12198006582
1414,687.8677522097696
1415,708.6659386745723
1416,717.9564706427627
1417,707.6792789514329
1418,683.4542940940373
1419,655.5414462221579
1420,633.2006651473203
1421,619.7918803427583
1422,616.4850209452579
1423,623.5000157569375
1424,634.9467932470943
1425,642.5052815540021
1426,639.5754084867785
1427,631.4271015272006
1428,628.2402878315588
1429,638.4248942325175
1430,656.8608472409724
1431,672.4980730479183
1432,676.1764975263268
1433,673.686046233026
1434,677.7266444105971
1435,698.8482169892613
1436,730.2406885887995
1437,756.8039835204399
1438,766.1680257887965
1439,768.9027390937845
1440,786.8380468325522
1441,838.043872101427
1442,908.2901376978534
1443,967.2567661223493
1444,987.6636795804643
1445,969.5307999847573
1446,926.518048956752
1447,872.3953478289386
1448,820.8226176467451
1449,785.3697791705472
1450,777.3867528776609
1451,789.4934589643635
1452,804.9298173478928
1453,808.7157476684897
1454,800.6811692914216
1455,787.9460013090193
1456,777.1401625427243
1457,770.6735715451432
1458,768.9861466021102
1459,771.7478057347435
1460,773.2384667015322
1461,765.2680470004034
1462,740.996463870837
1463,703.8336342959228
1464,661.6894750044994
1465,621.8939024732426
1466,587.8368329287969
1467,561.2781823498826
1468,542.3278664694499
1469,520.8658007767935
1470,482.7319005197296
1471,418.1860807067151
1472,343.42825610902946
1473,284.13834126294387
1474,261.7262504718856
1475,274.3918978086276
1476,312.5351971174714
1477,362.89606201646166
1478,394.2244058995693
1479,369.76014193891024
1480,268.83318308697744
1481,141.98344207884838
1482,59.46083143442047
1483,69.49526346067614
1484,133.25665025389753
1485,190.42490370194537
1486,197.37993548650957
1487,169.18165708538618
1488,133.67997977476625
1489,111.7048146314828
1490,102.31607253534821
1491,100.41366417142308
1492,102.2675000323452
1493,107.82749042062824
1494,117.64354545098467
1495,130.55557505266734
1496,141.4434889717886
1497,144.6471967736852
1498,137.8666078452552
1499,125.52163139731965
1500,112.8421764669929
1501,101.02815192004891
1502,84.40946645331678
1503,56.78602859705279
1504,20.567746717351838
1505,-9.12547098146024
1506,-16.70371645439991
1507,-6.487081813438635
1508,-7.615659325034358
1509,-49.33954140772403
1510,-121.39882062968354
1511,-171.85358970626658
1512,-149.79394149754444
1513,-61.28996900587481
1514,37.2182346266236
1515,91.02057612049794
1516,94.5969620614851
1517,78.47729890298433
1518,71.48149296857082
1519,75.18945045449618
1520,74.77107743221859
1521,56.79627985091247
1522,21.384963540016543
1523,-24.732965788245565
1524,-74.09760253629793
1525,-114.83904121866726
1526,-133.37737645941706
1527,-120.63270298958196
1528,-89.56511564457651
1529,-59.91470936163023
1530,-46.08157917716926
1531,-42.21582022423354
1532,-37.68752772986227
1533,-27.29679701247005
1534,-21.573723479226828
1535,-33.87840262343525
1536,-66.47093002187285
1537,-96.88140133216802
1538,-99.54991229010375
1539,-68.72655870700328
1540,-32.771436467022795
1541,-22.844641524488907
1542,-46.24626990120851
1543,-78.72641768377252
1544,-94.66518102085683
1545,-87.96265612050229
1546,-72.3789392474082
1547,-61.70412672020939
1548,-57.85831490871533
1549,-53.52160023121178
1550,-42.07407915166732
1551,-26.79584817700379
1552,-16.667003854330687
1553,-19.107642768145524
1554,-29.947861537586505
1555,-40.0677568136216
1556,-42.80742527625989
1557,-43.83696363174204
1558,-52.686468609726944
1559,-73.9860369604794
1560,-95.29576545203054
1561,-100.47575086735196
1562,-83.7160900014951
1563,-64.83687965874924
1564,-67.43821664978532
1565,-99.96019778876689
1566,-144.2629198905015
1567,-179.7364797675309
1568,-196.96097422724597
1569,-200.64650006899865
1570,-196.19315408116563
1571,-184.2410330382554
1572,-161.17023369796698
1573,-124.07085279827152
1574,-80.3729870544521
1575,-44.12673315617212
1576,-28.28218776450194
1577,-36.819447508960366
1578,-69.728608984542
1579,-123.03976874873297
1580,-173.92302331851351
1581,-193.81846916736686
1582,-167.3462027222722
1583,-120.7963203606887
1584,-88.61891840752833
1585,-87.8740931321172
1586,-98.98194074518142
1587,-97.93255739576853
1588,-71.79603916820815
1589,-23.46248207905228
1590,42.308017926030516
1591,105.51536497528832
1592,131.4994632740145
1593,89.5302171076255
1594,2.117530844780049
1595,-73.7786910595205
1596,-88.93854406079481
1597,-52.232123521955145
1598,2.8304752898238803
1599,48.3191572062733
1600,80.73382716116066
1601,103.1243901934813
1602,116.26075145061259
1603,114.70281619150228
1604,92.14048978987194
1605,54.23367773738937
1606,26.962285646897726
1607,37.366219255623946
1608,87.10538442839606
1609,150.0196871609005
1610,199.77903358289404
1611,227.18332996146273
1612,235.0724827042959
1613,227.18639836293733
1614,211.78498363606377
1615,199.178145372769
1616,197.68579057586248
1617,207.13782640516
1618,225.09416018081174
1619,245.37469938660433
1620,252.33935167329219
1621,229.20802486192952
1622,179.10062694723456
1623,135.7670661009215
1624,134.13725067506311
1625,178.1310892054844
1626,242.14849041511116
1627,300.92936321738125
1628,344.8236167196392
1629,373.28116022652284
1630,387.6519032433989
1631,399.27575547978086
1632,422.91262685275433
1633,464.47242749042744
1634,502.28506773537083
1635,509.59045814808815
1636,483.11850951046654
1637,461.75913282927286
1638,487.25223933963025
1639,559.3477405084996
1640,633.2255480381937
1641,666.0055738699102
1642,662.1477301872055
1643,655.8819294195637
1644,676.3880842459221
1645,720.9161075982138
1646,775.2459126649283
1647,824.2374128946867
1648,849.8805219997976
1649,833.8751539598543
1650,779.5512230253262
1651,727.7186437211531
1652,720.9673308503643
1653,756.9271994976934
1654,788.7081650332093
1655,772.7301431159576
1656,716.6030496975909
1657,656.7068010260555
1658,622.071313649225
1659,604.2865044185928
1660,583.62229049296
1661,551.668589342109
1662,528.9853187505232
1663,540.0623968210803
1664,583.3997419788102
1665,621.5572729745654
1666,617.224908888822
1667,574.4625691353867
1668,528.9901734651594
1669,511.8676419699241
1670,516.8148950860959
1671,522.1618535985253
1672,509.9084386442846
1673,474.4645717164676
1674,412.99017466802616
1675,337.67516971555597
1676,286.5394794431668
1677,297.71302680629015
1678,359.6057351355648
1679,414.6675281406642
1680,411.0183299141863
1681,357.44806493552824
1682,292.36665807477766
1683,244.63403459660367
1684,205.48012016417306
1685,157.12484084306016
1686,97.89812310518573
1687,56.84989383273023
1688,64.67008032211925
1689,109.89861028792984
1690,139.32541186689377
1691,105.64041362185526
1692,28.073544545768527
1693,-40.135265934328345
1694,-61.2660879532923
1695,-59.528991203871556
1696,-74.13404493267808
1697,-120.4313179361452
1698,-168.99087855651305
1699,-186.6127946777433
1700,-166.07713372148282
1701,-124.7639626429791
1702,-80.72334792699439
1703,-49.30535558372867
1704,-44.61005114470754
1705,-72.37749965868352
1706,-109.14776568748493
1707,-125.3309133019302
1708,-111.10700607765284
1709,-89.11610709096385
1710,-83.47827891468842
1711,-93.4235836139942
1712,-98.00208274222496
1713,-79.91383733668044
1714,-48.158907914457814
1715,-21.927354468200065
1716,-15.889236461905966
1717,-32.28461282668468
1718,-70.8855419565225
1719,-117.63508170402565
1720,-140.81828937616956
1721,-112.3282217300166
1722,-56.55393496845318
1723,-30.116484735881386
1724,-71.73792611392855
1725,-139.01331361713528
1726,-167.48270118862274
1727,-130.17814219579122
1728,-72.26668942594188
1729,-45.25339508195975
1730,-63.9243107779148
1731,-110.1444875347297
1732,-164.0829757757674
1733,-202.63782532245568
1734,-201.34808538987454
1735,-150.1128045823516
1736,-78.3830308890374
1737,-21.87281167945912
1738,2.4048063009067846
1739,0.36677693509773235
1740,-20.57994526087532
1741,-52.29240513354489
1742,-86.19864688750567
1743,-114.67871408092651
1744,-133.72064962103104
1745,-140.25349575957625
1746,-137.70329408836005
1747,-139.73408553463196
1748,-159.03691035658085
1749,-183.3258081387703
1750,-182.7258177875592
1751,-139.07297752652812
1752,-91.61232489188842
1753,-96.28389672787307
1754,-166.4087291821379
1755,-233.74885770114088
1756,-225.52431702548347
1757,-149.96114118529476
1758,-82.69736349555569
1759,-85.60501655146072
1760,-131.03613222371132
1761,-160.20874165384703
1762,-139.7458752495404
1763,-91.90656267989289
1764,-45.84683287072039
1765,-20.943713999811735
1766,-27.536233492193787
1767,-71.12341801538241
1768,-129.21529347461183
1769,-168.61788500807052
1770,-170.2102169821137
1771,-147.81531298646405
1772,-119.51019582940899
1773,-93.08888753298743
1774,-66.44640932814764
1775,-38.11678164993282
1776,-13.295024132596154
1777,0.20784439522321918
1778,-2.7751940845992067
1779,-21.218156774810268
1780,-52.66506005786687
1781,-83.41391949104036
1782,-89.12674980150405
1783,-52.98656488139386
1784,-6.546377782880882
1785,0.5847992867893481
1786,-51.177045029748115
1787,-115.40992123500473
1788,-139.19683897165305
1789,-112.57580701754159
1790,-63.07683328066196
1791,-16.21992479416076
1792,20.324912288699124
1793,44.86967269958586
1794,56.90235206014222
1795,58.155946887060054
1796,50.503454597137534
1797,33.95187351236564
1798,7.0912028650564025
1799,-27.664557197098475
1800,-50.6834056058633
