800,149.74068456281748
801,122.30050489423229
802,109.63086699583255
803,110.25500282027951
804,113.60314378756902
805,108.98852078320579
806,90.17736415640957
807,66.35490371831384
808,50.02236874020673
809,53.4159879517656
810,79.35398953931599
811,118.86160114410268
812,162.224049860577
813,200.4105622347006
814,229.72536426225088
815,248.97568138716815
816,256.9877384998872
817,253.04875993570022
818,237.61296947313895
819,211.31859033234923
820,174.95684517350492
821,132.4719560952226
822,90.70814463299394
823,56.61563175762603
824,36.14963787371016
825,30.09038281809171
826,37.53108585835707
827,57.51296569134229
828,84.68924044164305
829,106.16912766014866
830,108.31784432258883
831,79.55560682808937
832,30.815630997743938
833,-13.01886792679852
834,-26.873675284727142
835,3.85842300252898
836,60.0316404299474
837,115.72418990753795
838,145.66028375900987
839,141.6171337204296
840,113.97695093891161
841,74.05894597130737
842,32.565328782920005
843,-3.534691253780693
844,-28.655905360412362
845,-37.25510535394005
846,-27.40508364791185
847,-3.899633253675347
848,27.737452218398175
849,62.01637855772242
850,93.8253509523156
851,118.28957398762032
852,130.54825164535032
853,128.41758730233687
854,118.1847837294099
855,107.80604309026239
856,104.85656694035879
857,107.84755622582088
858,106.02321128236872
859,88.21073183423323
860,47.295316993109736
861,-2.3498347428840134
862,-39.26752549024695
863,-42.27855798110522
864,-7.786735564224728
865,39.995137794001494
866,74.39525750856956
867,72.41381837489826
868,43.159014567869235
869,12.341039640887175
870,5.772086524946644
871,37.43734752771525
872,92.9410143326204
873,153.71727799795735
874,201.93132895601957
875,230.57035701219684
876,240.88355134415178
877,234.3211005009489
878,213.454192402236
879,184.8440143374064
880,155.95375296480051
881,134.07459431089956
882,122.00572376954187
883,117.7233261011479
884,118.9605854319525
885,124.1916852532595
886,135.7518084206913
887,157.24313715346761
888,192.14885303369556
889,237.8621370056444
890,282.8521693750681
891,314.87612980851554
892,323.8051973326601
893,315.18355033363696
894,301.5743665564114
895,295.5128231041035
896,302.2240964374105
897,312.7063623739541
898,316.30979608769485
899,303.6455721083312
900,278.1208643207301
901,250.65784596434423
902,232.26668963265365
903,229.27556727262527
904,236.2286501841736
905,245.85410901962678
906,251.27211378322136
907,251.13683383058742
908,248.16843786825848
909,245.18809395319659
910,244.04296949230593
911,243.53523124198546
912,241.86304530765847
913,237.55357714335514
914,235.27699155126538
915,245.17345268132703
916,277.5761240308093
917,335.2131684439373
918,391.6207481114634
919,413.33402457033117
920,368.47415870328405
921,264.34331073851354
922,148.91264024931297
923,72.05030615374744
924,70.95446671431455
925,125.83527953764133
926,200.8859015741691
927,260.92348911786394
928,290.570197805926
929,297.6701826185199
930,291.37859787850175
931,280.234597251163
932,269.57633374400393
933,263.7369597064644
934,266.86262682972665
935,276.19148614648293
936,280.11368803073856
937,266.433382197607
938,227.26171770313158
939,178.53284294409423
940,144.35790565786738
941,148.3370529222393
942,191.41243115527323
943,243.77218611516764
944,273.41446290011663
945,255.46940594821535
946,206.4811590373174
947,157.88086528495842
948,140.57066714825123
949,159.9327064238114
950,185.8621242476711
951,185.62806109523444
952,134.39665678120036
953,53.64105045953875
954,-18.3606193765645
955,-43.95821489471564
956,-15.361598923354904
957,34.013365048254855
958,67.72281287001897
959,56.43187973102067
960,11.351700159544635
961,-41.95559197691546
962,-78.22386347159409
963,-85.2369817784238
964,-68.11081501199442
965,-33.16223194745362
966,12.532897979515838
967,57.833704672817476
968,90.24431737599843
969,97.5308646723679
970,76.9364744850991
971,37.44827407732191
972,-11.219609947720528
973,-59.54005164656883
974,-98.92592573538968
975,-121.06410758983839
976,-118.09247324490207
977,-95.0978993947192
978,-71.67026339243421
979,-68.17644324998764
980,-97.4063176379459
981,-139.942765885291
982,-167.80166797921993
983,-154.31890456493238
984,-102.66835694539441
985,-45.38990708113488
986,-16.279437589973895
987,-37.76283174679338
988,-91.32697348328111
989,-149.2397473876681
990,-184.88203870445432
991,-190.9227333341223
992,-176.2077178328691
993,-150.0868794122871
994,-120.01610593909209
995,-87.84028593477524
996,-54.37530857531965
997,-20.684063690845505
998,8.94255823470121
999,27.983666063903
1000,29.880368006219214
1001,12.258771618340688
1002,-17.38001619545139
1003,-50.10788918289472
1004,-76.99174174338623
1005,-90.21546892759397
1006,-89.52396643703833
1007,-77.77113062371973
1008,-57.87585848969502
1009,-35.1390476866527
1010,-18.28959651551122
1011,-16.326403925957493
1012,-35.03936951603646
1013,-62.76339353168078
1014,-81.92137686628121
1015,-75.51322106019325
1016,-44.91582830031075
1017,-13.097101419545652
1018,-4.280943896386816
1019,-34.07425985437658
1020,-81.68595406163877
1021,-116.71393193036238
1022,-110.25609951629303
1023,-64.20336351821425
1024,-8.959631277430162
1025,23.975189222775953
1026,15.488189357680312
1027,-14.491540138347773
1028,-38.36590917127978
1029,-30.690828286882606
1030,5.627791329865431
1031,47.79103785532607
1032,72.62099882780058
1033,68.97776114810404
1034,53.05241108015616
1035,44.82203425159605
1036,61.385715654361775
1037,95.17253964533847
1038,126.11458994694658
1039,134.238949647779
1040,113.48070120324701
1041,80.01692643619026
1042,52.02670653754467
1043,44.214122066996424
1044,51.95825295362192
1045,63.970178496567314
1046,69.15997736570534
1047,62.268727602337094
1048,44.438506619857435
1049,17.13639120443804
1050,-15.246542484257589
1051,-38.014218912379874
1052,-34.19256317118925
1053,11.11949902366905
1054,84.23604133287336
1055,150.7211367941618
1056,175.7478578230748
1057,143.40327621366123
1058,79.18446313926506
1059,14.075489153243325
1060,-24.076575810253416
1061,-31.169662435528153
1062,-13.886702024572514
1063,20.954373503725947
1064,63.76563161433296
1065,101.21813915689745
1066,119.70896236650515
1067,110.77216686450083
1068,87.6338176592908
1069,69.24997914713458
1070,73.41571511298389
1071,99.08808873129783
1072,129.98516256685616
1073,149.40299857561695
1074,147.6006581055335
1075,131.092201897407
1076,108.70869008573754
1077,88.71418219958832
1078,74.95873716341703
1079,69.26841329799026
1080,73.3892683212016
1081,86.36935934898975
1082,103.75374289620595
1083,120.85047487750126
1084,133.34861060823278
1085,138.41920480533372
1086,133.57831158826048
1087,116.73198447986579
1088,90.860276407333
1089,62.55323970308564
1090,38.45792610573335
1091,23.56738676097484
1092,19.66367222255576
1093,28.168832453196956
1094,48.82591682556085
1095,71.69697412317328
1096,83.34005254140175
1097,70.8961996884209
1098,34.59046258615854
1099,-12.434112328710398
1100,-56.49147920379983
1101,-87.70759277002071
1102,-106.36340834060684
1103,-114.422881810111
1104,-113.79196965341362
1105,-105.90662892471119
1106,-91.97981725652608
1107,-73.30249285868013
1108,-53.712614517286056
1109,-40.2871415937243
1110,-40.29303402360529
1111,-56.776252315763486
1112,-78.3797575511926
1113,-90.69051138202485
1114,-81.16547603047366
1115,-56.55161428779866
1116,-34.94288951323688
1117,-34.31426563293826
1118,-58.070707138920625
1119,-88.08217908798542
1120,-104.47564710065672
1121,-94.80907736008521
1122,-75.96043661099066
1123,-72.0456921585428
1124,-104.37581186730313
1125,-160.9507641601067
1126,-208.00051801696827
1127,-211.7850429739774
1128,-165.9393091221882
1129,-107.76428710650544
1130,-78.48794812457163
1131,-106.99126392563448
1132,-170.7692068094202
1133,-233.95474962501248
1134,-263.1858657697139
1135,-255.82752918789265
1136,-229.6897143698625
1137,-202.83339635070297
1138,-185.41555070913637
1139,-175.10215356635854
1140,-168.4531815848659
1141,-164.19061196731127
1142,-169.6034224553241
1143,-194.1185913283225
1144,-245.03309740237637
1145,-305.9999200289749
1146,-345.95703909387703
1147,-334.1574350159026
1148,-267.053088745748
1149,-180.09698176478196
1150,-111.78909608385038
1151,-89.36541424206007
1152,-101.06791930557847
1153,-126.6975948664076
1154,-147.6064250411855
1155,-159.2653944699432
1156,-164.6764883148844
1157,-166.82569225916632
1158,-166.15199250566366
1159,-160.01237577571374
1160,-145.59282930788686
1161,-122.25134085676473
1162,-95.29589869163647
1163,-71.06349159530146
1164,-55.26710886277942
1165,-49.390740300061225
1166,-53.15637622284885
1167,-66.21500745527555
1168,-86.72162532864604
1169,-111.47222168015833
1170,-137.18078885162322
1171,-158.3183196881746
1172,-164.85080753700277
1173,-146.18524624604834
1174,-97.27063016271495
1175,-38.91795413257023
1176,0.502786501954688
1177,-4.561404097144987
1178,-46.033522262107
1179,-93.88956481813511
1180,-118.15652908204174
1181,-108.84841286096707
1182,-83.36321445103022
1183,-61.089932636014055
1184,-55.86456668605388
1185,-65.06011635626419
1186,-83.0125818854558
1187,-104.40896399475241
1188,-126.32526388627957
1189,-146.839483241798
1190,-163.9186242213782
1191,-173.61268946201562
1192,-170.28968207631988
1193,-148.33260565110868
1194,-108.5364642460845
1195,-62.99126239245015
1196,-24.954005091542058
1197,-4.592697813468476
1198,-0.4443464957203105
1199,-8.31695754181419
1200,-23.870537819879246
1201,-41.565094661313196
1202,-55.258635859363494
1203,-59.07216966774831
1204,-53.41970479926567
1205,-44.99525042438836
1206,-40.726816169879385
1207,-43.20641211736802
1208,-46.50104880195977
1209,-43.69373721082593
1210,-30.94248878178405
1211,-16.882315401886444
1212,-13.309229406007944
1213,-29.61724357541607
1214,-54.12737113635012
1215,-64.2476257586004
1216,-38.49802155405814
1217,17.29242692468324
1218,70.30770468579794
1219,86.7717962996503
1220,55.34668590023466
1221,6.670357186623733
1222,-23.9962065755808
1223,-13.192022552797425
1224,18.95089165797799
1225,42.234518030638355
1226,31.174838111423014
1227,-4.013166979622838
1228,-36.81551654719078
1229,-41.87423031921935
1230,-15.88932844545343
1231,25.75516850405438
1232,67.16923954039885
1233,98.36486325731858
1234,118.43001783266118
1235,127.21968102987921
1236,125.70683019950957
1237,118.03744228066535
1238,108.91749380252986
1239,102.4759608858476
1240,99.56881924441404
1241,99.9360441866047
1242,103.18861061683856
1243,107.46749303710749
1244,110.00466554848026
1245,108.06110185261241
1246,100.4407752532552
1247,87.62265865777226
1248,70.20072457866627
1249,51.07094513508855
1250,37.55029205437131
1251,37.46773667353955
1252,55.593249940859096
1253,86.14380241735489
1254,121.05336427834482
1255,152.625905314977
1256,175.65539493577126
1257,185.898802168158
1258,180.0440956600196
1259,166.2872436812395
1260,160.6712141252483
1261,178.8049745105709
1262,218.69849198239717
1263,258.3407333141022
1264,274.7616649088486
1265,261.16925280111354
1266,241.52646265826115
1267,243.25025978211306
1268,280.70960911051225
1269,325.78847521888565
1270,341.70882232183794
1271,300.69061427469205
1272,226.21381457510506
1273,159.89738636461516
1274,139.21529243023906
1275,158.60049520605753
1276,187.14795677479015
1277,194.84263886939698
1278,177.27950287466228
1279,154.2495098287818
1280,146.241620424973
1281,159.72679501306266
1282,180.19299360108198
1283,191.41317585688557
1284,183.54530110973792
1285,162.0693283519322
1286,134.713216240385
1287,108.12892309827112
1288,84.70140691661072
1289,65.76362535590306
1290,52.918535747734495
1291,49.51209509639921
1292,59.58026008052548
1293,86.59798705469984
1294,127.68423205108775
1295,175.9669507810595
1296,224.59009863684514
1297,268.3456306931239
1298,303.5795017087057
1299,326.7346661281317
1300,336.0520780833358
1301,332.3346913952755
1302,316.59345957557343
1303,291.1753358281712
1304,261.32327305097897
1305,232.65422383750592
1306,210.262140478535
1307,197.48697496375826
1308,197.302678983453
1309,209.887203930115
1310,221.06550090014025
1311,212.07152069546828
1312,168.2102138252667
1313,107.3485305075792
1314,62.98942067099779
1315,65.80683395634878
1316,108.27571971834368
1317,156.22502702725433
1318,176.26470467061154
1319,166.09970115485703
1320,154.382964707047
1321,170.62944327649893
1322,221.34708453652638
1323,280.66183588607964
1324,320.34264445146437
1325,323.4794570880058
1326,295.7152203817659
1327,245.38988065122248
1328,185.4663839489658
1329,142.06867606339983
1330,143.65770252044786
1331,204.81240858524325
1332,283.4817392638397
1333,323.1606393049133
1334,279.7210532014724
1335,181.60692519257464
1336,83.56019926502086
1337,34.44581915508752
1338,32.84972835023291
1339,52.12387009080703
1340,66.76918737178858
1341,68.22662294449401
1342,59.46411931829607
1343,43.89961876236521
1344,29.399063307382676
1345,27.848394747274142
1346,50.84955464093946
1347,95.64448431398705
1348,142.33312486046452
1349,170.2354171445986
1350,172.86830180253128
1351,165.9437192440637
1352,167.06260965439105
1353,185.05691299585487
1354,210.80056900967247
1355,232.9675172177158
1356,241.51169692422263
1357,229.8310472175781
1358,191.8835069720517
1359,128.99101484955645
1360,68.34550930140904
1361,42.848928570083444
1362,74.1682106909775
1363,132.17929349416409
1364,171.8671146061679
1365,158.32361145172945
1366,117.25272125555966
1367,96.80638104413629
1368,136.49352764744617
1369,208.26209770077548
1370,252.42902764648352
1371,216.88325373577572
1372,128.5647120304875
1373,60.437338404859474
1374,79.76106854732825
1375,169.19783796229785
1376,251.0175819719443
1377,250.5142357179866
1378,171.38973416348745
1379,85.1450120946356
1380,63.03700412255239
1381,113.81664468507915
1382,181.39386804857168
1383,207.83060830971044
1384,177.0097993972904
1385,124.44737507402715
1386,88.44826893836216
1387,84.63341442627825
1388,95.54274481308858
1389,101.25519321526554
1390,96.32969259224046
1391,100.14617574822296
1392,134.39257533401906
1393,201.44182384884334
1394,264.98485364213775
1395,284.1625969154011
1396,240.09898572399834
1397,165.06495197900404
1398,98.59442744900662
1399,66.8723437619592
1400,60.18163240699323
1401,62.83122473626099
1402,64.28705196676856
1403,69.8850451821927
1404,88.02513533476304
1405,121.67525324704184
1406,154.72232961382178
1407,166.85029500393284
1408,146.6230798621018
1409,117.89061451079942
1410,113.27882915207374
1411,154.714653869436
1412,216.49301862967877
1413,259.6558532847357
1414,254.4160875735488
1415,216.43265112393237
1416,175.3574734544145
1417,156.1874839761058
1418,158.43261199457265
1419,172.99978671168174
1420,190.88993722749728
1421,203.708992542126
1422,203.27988155759522
1423,184.67253307972533
1424,163.73687582002094
1425,164.52283839751726
1426,205.60634934068366
1427,267.8043370892992
1428,316.10272999632434
1429,321.813456329799
1430,302.82244427472506
1431,297.61562193494865
1432,338.2109173350582
1433,406.3182584222741
1434,460.40657306833964
1435,464.4527890714271
1436,427.45883415801836
1437,379.94763598482314
1438,350.45012214067174
1439,349.8852201484151
1440,380.554857466841
1441,441.90396149257504
1442,510.08945956199204
1443,549.6432789531209
1444,531.6283468875736
1445,483.2455905324532
1446,459.91593700225894
1447,508.7333133608281
1448,604.388646623238
1449,685.18286375774
1450,695.9408916876891
1451,638.6066572934596
1452,543.5630874143826
1453,440.96710885067114
1454,357.204648365363
1455,316.845632686247
1456,338.52298850781335
1457,393.86064249317315
1458,432.08552127601797
1459,410.52255146255993
1460,349.45465963346396
1461,298.0917723458242
1462,297.3638161350809
1463,326.95771751698885
1464,339.6284029895796
1465,296.0997990351025
1466,212.38183212198783
1467,127.53642870681142
1468,75.65951523625154
1469,58.65101814905029
1470,65.79686387799666
1471,85.34797885187254
1472,99.64228949744393
1473,88.86372224141996
1474,40.712203512437554
1475,-16.44534025697976
1476,-40.588982628405574
1477,-2.1917971555703843
1478,66.84514261765253
1479,115.80576315921098
1480,105.7839909508748
1481,50.23775249023129
1482,-22.904025707339315
1483,-86.42541710665319
1484,-116.01149515073485
1485,-88.04633325881878
1486,3.7989951756571827
1487,105.3604167870526
1488,149.223858239533
1489,96.27224622907852
1490,-5.509492514516751
1491,-91.44543122562027
1492,-119.415643100745
1493,-107.93020129654178
1494,-85.5421789277716
1495,-72.81664906528931
1496,-71.70268473401484
1497,-81.47735891091543
1498,-97.81474452296243
1499,-109.14191444510834
1500,-103.14094149826451
1501,-77.85489844723816
1502,-49.22585799872104
1503,-34.75389279923729
1504,-40.149075433098915
1505,-53.74847842036252
1506,-62.639174214780724
1507,-59.728235201751886
1508,-45.17673369628028
1509,-20.045741940895823
1510,3.812667896385392
1511,3.129423724123626
1512,-43.90154647048257
1513,-121.46531461952691
1514,-180.49795257232654
1515,-174.7655320933627
1516,-114.19512486020722
1517,-49.90680246142256
1518,-28.93963639452886
1519,-44.49669806388738
1520,-57.3500587786275
1521,-34.137789750571756
1522,6.7120379078623955
1523,21.482353185747343
1524,-24.15791482426721
1525,-103.92283692383171
1526,-167.90348380684554
1527,-178.61492605730928
1528,-159.89223414725166
1529,-154.33347843461888
1530,-191.17772916115428
1531,-249.0410564502963
1532,-294.56853030506863
1533,-306.5772206059519
1534,-299.25519710877415
1535,-293.1415294425842
1536,-297.5922871075363
1537,-296.9995394727448
1538,-272.5543557741712
1539,-220.84980511248068
1540,-164.9349564509157
1541,-130.04387861314717
1542,-123.55464028114693
1543,-129.22230999302155
1544,-129.53595614088954
1545,-115.77664696871761
1546,-88.1494505701794
1547,-47.87443488648387
1548,-5.482667704229243
1549,21.291783346761804
1550,16.911850795600913
1551,-9.825532667482548
1552,-35.98043418900306
1553,-41.26792075000594
1554,-25.404059163925922
1555,3.299083925614468
1556,35.14744204696035
1557,53.77594890265027
1558,40.728538371564355
1559,-12.326855488874571
1560,-78.27329844049018
1561,-122.25785606217869
1562,-126.26359374768435
1563,-113.92557670343194
1564,-115.04786994628193
1565,-142.8405383013469
1566,-181.2156463997744
1567,-211.37525867652585
1568,-224.62943936815645
1569,-225.11625251061378
1570,-217.71076193698173
1571,-205.76003127527838
1572,-191.21012394621175
1573,-175.61710316095014
1574,-156.52103191888455
1575,-128.8889730053852
1576,-89.35598898955868
1577,-47.213142222002716
1578,-17.37849483255377
1579,-11.063108728032603
1580,-21.45404558998598
1581,-36.320366872430895
1582,-44.088133799583375
1583,-35.316407363599865
1584,-1.0602483223010495
1585,53.37528280310653
1586,92.69012573029613
1587,78.5652204181115
1588,11.984507068846142
1589,-50.23507386946221
1590,-49.9185817007492
1591,7.296924521375331
1592,54.29238599592827
1593,28.3197441768516
1594,-52.383059224686804
1595,-117.14308223797161
1596,-106.23338263043843
1597,-42.50801790535479
1598,16.145954700503353
1599,26.39747821916899
1600,8.160495953812642
1601,-1.7040485189227184
1602,19.47378865340943
1603,56.39495160139086
1604,87.51938473610062
1605,96.84603275142763
1606,77.8018406264564
1607,25.545753627789964
1608,-41.999282688073436
1609,-81.96232247239277
1610,-53.91341958180783
1611,33.1843724240116
1612,135.5410002847566
1613,212.72341104184125
1614,254.45055204079836
1615,263.7583709336377
1616,245.33081568125817
1617,210.5778345558283
1618,172.71337614318145
1619,140.380389345215
1620,110.67182338229941
1621,79.01662779568142
1622,48.406752449895066
1623,33.47214753517437
1624,49.17676356988159
1625,96.20755140292749
1626,161.64346221619235
1627,231.50744752696482
1628,286.73545919038224
1629,305.27644940185746
1630,273.8593706995325
1631,227.97717596672555
1632,219.8848184343915
1633,276.17425168355476
1634,343.59342964780626
1635,353.8713066157379
1636,286.9278372334247
1637,209.15297650690627
1638,193.52767980464887
1639,248.06690286004596
1640,311.64560177389103
1641,325.3607330168761
1642,293.9282534320937
1643,262.09112023751914
1644,265.78229102853766
1645,286.1887237804349
1646,284.8943768509289
1647,244.43620898267363
1648,212.65417930578587
1649,249.50224734038056
1650,364.63537299908967
1651,480.7455165896172
1652,515.0106388172571
1653,457.6767007874605
1654,371.3306640083774
1655,316.9004903934092
1656,308.4101422637832
1657,333.54158235108844
1658,376.65377379987876
1659,407.4786801702285
1660,391.32126544031235
1661,317.5164940089944
1662,236.43433069841922
1663,207.04674075659386
1664,242.6986898599971
1665,293.72114411618713
1666,309.2320700663877
1667,289.9684346881313
1668,276.2022053978508
1669,301.7573500535236
1670,350.0748369572884
1671,383.8216348580827
1672,375.83871295427707
1673,333.2030408963219
1674,270.1715887893988
1675,204.46432719606855
1676,159.7252271389334
1677,158.72326010329925
1678,194.09739803985212
1679,230.67661336731726
1680,235.79787897515416
1681,206.19816822624125
1682,152.93845495955065
1683,90.19871349285859
1684,43.742918625441234
1685,41.97104564078654
1686,89.47007030928762
1687,145.3709688909912
1688,165.09471813828532
1689,137.45929529865862
1690,84.37067811740962
1691,28.44484484039822
1692,-14.053225783214657
1693,-30.07355449820534
1694,-16.363161540555666
1695,-7.988066634666211
1696,-49.1022889906053
1697,-144.98184730133198
1698,-227.89275973991516
1699,-225.58404395675825
1700,-142.1287170767946
1701,-53.93879569670753
1702,-30.47629588212203
1703,-63.349233164796715
1704,-107.4406225398152
1705,-127.96747846276685
1706,-127.16181484691515
1707,-115.26664506037469
1708,-98.06198192328065
1709,-74.00683770492924
1710,-41.63422412095042
1711,-11.638152330428056
1712,-4.553632933068911
1713,-35.75967596631199
1714,-86.51229090247398
1715,-124.91048664585833
1716,-130.78027152987215
1717,-116.23265331414768
1718,-98.72763918163218
1719,-89.94723573568444
1720,-94.16044899717508
1721,-113.2332844015682
1722,-128.15474679599174
1723,-107.08784043631658
1724,-33.05756898422533
1725,44.52606449574432
1726,58.332057539126254
1727,-10.350591715509836
1728,-86.72288452358953
1729,-89.79082153158924
1730,-25.317402774040602
1731,23.167372329437057
1732,-15.125495022878567
1733,-106.90800301181298
1734,-176.34614919429896
1735,-173.6599305003665
1736,-121.37434323014259
1737,-54.207383050815224
1738,-0.8090449936180448
1739,17.62567654920258
1740,-14.525212172563442
1741,-63.49870426405414
1742,-67.99079218228053
1743,8.261532266939867
1744,106.6132779320451
1745,146.9814543188013
1746,101.02307159338852
1747,22.015140585485824
1748,-32.56632720863581
1749,-45.78931962301158
1750,-29.24982381886639
1751,3.3461737184916274
1752,31.242687182797454
1753,31.719731449962637
1754,0.12732208120723953
1755,-33.596524673791464
1756,-37.37579187374649
1757,-9.812461882609568
1758,24.954483633609016
1759,43.75506370999756
1760,33.49329808593848
1761,-15.346792791711778
1762,-94.77818776542517
1763,-158.64986496379697
1764,-158.54080179833363
1765,-103.41797496024174
1766,-55.258360417196855
1767,-64.74293341010525
1768,-99.59166844987521
1769,-95.87453931415803
1770,-24.28251904409717
1771,63.38842005893639
1772,105.70430643662075
1773,85.18616927695075
1774,26.706038517539127
1775,-42.62705515110247
1776,-92.83208028224362
1777,-92.83000466964495
1778,-35.264795344224694
1779,31.70458142926418
1780,54.34216015556103
1781,30.231976112257144
1782,5.467065353120233
1783,19.024464711476867
1784,54.670211803569146
1785,75.49834503192324
1786,61.26790358874587
1787,28.431927459302642
1788,-2.514542574679581
1789,-26.696464931597802
1790,-52.87079722656745
1791,-85.39149626799554
1792,-102.38951805414399
1793,-73.38881776969356
1794,4.735650217703551
1795,82.28893236088788
1796,106.89807593665137
1797,76.62712904921682
1798,27.746140633712457
1799,-9.345839540320412
1800,-35.093760865442164
