800,29.71503084234064
801,11.842232889273873
802,25.41937601041718
803,61.61969681816845
804,95.6104313813903
805,102.35981522215843
806,67.20808331248008
807,11.365470071103118
808,-36.22179063967815
809,-47.23846551717361
810,-15.313321821435238
811,38.44287262166472
812,91.19434941735926
813,122.46233959894744
814,130.03907362479913
815,120.3347813753735
816,99.79569215027186
817,74.62103466532062
818,50.39003704967945
819,32.573926842998844
820,26.339930992568043
821,30.73327585052357
822,39.15718717108393
823,44.811890107805084
824,42.60760921084329
825,36.43856842430432
826,33.110991083556655
827,39.357099912613194
828,55.78111702153001
829,72.44626390383746
830,78.37876143397261
831,64.17582986479647
832,37.665688825067264
833,17.356557317005354
834,21.905653713842185
835,61.36819575741174
836,118.08740055578892
837,168.8424845809168
838,191.0226636662792
839,178.1331530046118
840,141.27416714563333
841,92.42591999378055
842,42.73862480600292
843,-1.656505810431554
844,-36.499259900105244
845,-57.55242616159376
846,-62.70279394957652
847,-53.78015327692265
848,-33.046294816760565
849,-2.851009904510647
850,33.43790946011359
851,71.79667061109649
852,108.19148021419096
853,138.13654426495486
854,155.72506808687285
855,154.76125632943695
856,129.44431296632501
857,83.21544129354334
858,28.969843927619877
859,-19.969277196163603
860,-51.635720825557655
861,-61.21228639304718
862,-46.23977401758566
863,-4.379984506282199
864,58.97328064396061
865,126.21221924478414
866,178.64802841478013
867,199.66490457788132
868,190.77804346181256
869,162.87564009653943
870,126.918888812761
871,92.94598324040453
872,68.77011630715424
873,61.87648023701331
874,78.8532665488674
875,113.03666605509352
876,147.65086886018253
877,165.66606435936228
878,156.99144123730002
879,136.46318746676116
880,124.51349030734309
881,140.7165363041895
882,182.07751128677955
883,221.31460036767203
884,229.94598794133526
885,187.50885768295666
886,115.48339254729035
887,48.995774767536204
888,22.75318585421155
889,48.90280659408745
890,106.5168170490997
891,172.01339655531592
892,223.90672372190602
893,256.1389764301475
894,269.56133183243765
895,265.08896635133715
896,246.4080556786339
897,222.6157747744146
898,203.42829786618677
899,197.52979844798028
900,202.9564492795089
901,211.5024223853252
902,214.88688905401978
903,208.37401983740347
904,196.1299845497615
905,183.71195226708005
906,176.45809132631985
907,176.85956932470253
908,185.30955311901562
909,202.15120882494193
910,225.8947018163999
911,249.28619672492096
912,263.9328574390147
913,262.05084710358824
914,247.36432811937448
915,233.81346214235964
916,235.70241008326047
917,260.66733210698294
918,290.7633876321597
919,301.89473533062846
920,271.0485331270065
921,201.63493819821088
922,124.50810697307134
923,71.79319513189512
924,67.97735760608339
925,103.14974857777997
926,157.73752147951018
927,212.39482899382892
928,255.13982305302852
929,282.61165483884724
930,291.9484747821625
931,281.38543256274716
932,254.77267710902925
933,217.74335659785356
934,175.93961845428566
935,135.53360935140518
936,103.35647521014835
937,86.29536119913973
938,89.36641173456155
939,107.28577048001716
940,131.2265803464452
941,152.43698349201077
942,165.73512132204996
943,170.76613448900935
944,167.51916289240035
945,156.65634567878988
946,142.69782124178346
947,131.5637272220447
948,129.0112005073206
949,133.44937723247494
950,133.07639277956514
951,115.32538177791321
952,71.99047810418051
953,20.39181488248687
954,-12.886475515444545
955,-1.806261470190293
956,54.12958788555443
957,120.16820266714967
958,158.96271223817348
959,141.2152452106384
960,83.5319294452147
961,18.769892051443094
962,-20.687740612007474
963,-23.150842937087873
964,-4.392290066069108
965,17.916042108707188
966,29.146276945179125
967,31.01853705186295
968,30.700944288179016
969,35.19961976482591
970,45.569683844123574
971,55.50225614039664
972,58.22845552038416
973,48.34140010361989
974,27.064207262870696
975,-2.372006375433557
976,-36.701124930754304
977,-71.8090332679676
978,-102.62161699691387
979,-124.01276247186979
980,-132.30235679108773
981,-129.94428779623559
982,-121.02344407190503
983,-109.61171494502923
984,-99.3319904843629
985,-93.36816149988044
986,-94.8891195422093
987,-105.4087569020212
988,-120.47796660943823
989,-134.3106424333855
990,-141.20767888097907
991,-137.159971196872
992,-119.56741536257687
993,-85.87490809580413
994,-37.68634684978133
995,11.114370187451641
996,44.37934409377158
997,47.32767521365713
998,22.813463158963714
999,-14.073193190357415
1000,-48.00719568547356
1001,-68.49244690791784
1002,-76.4308501688065
1003,-74.36730950801939
1004,-64.85172969342057
1005,-50.84301622001294
1006,-38.01407530913639
1007,-33.16881390759772
1008,-42.98113968682628
1009,-67.36496104202342
1010,-96.52418709125413
1011,-119.91772767458497
1012,-128.45249335317567
1013,-120.98239540837312
1014,-99.0463458407794
1015,-64.34725736933069
1016,-23.839043430347374
1017,9.375381823419957
1018,21.829103523752565
1019,5.508206087944927
1020,-24.542226780225974
1021,-47.18911208947429
1022,-42.24236756002392
1023,-8.76691162258794
1024,36.331336582681615
1025,75.45945720720374
1026,95.90652969503572
1027,100.33563278391921
1028,94.423844506362
1029,83.88124219070232
1030,74.70290246220975
1031,73.08990124418233
1032,85.21831375903821
1033,109.43621452945445
1034,126.31167737948817
1035,113.95777543570694
1036,55.18258112834155
1037,-26.845833807561576
1038,-88.51939833097094
1039,-86.56704209369127
1040,-12.340695439204865
1041,87.46971059856332
1042,161.1822442964076
1043,167.56397324307727
1044,123.6429643404881
1045,66.54328380495463
1046,32.518997168423084
1047,32.82816927971726
1048,51.32286430581007
1049,70.44914573305687
1050,76.76307636849742
1051,71.38471834112352
1052,58.66413310316966
1053,42.79038143140497
1054,25.954523428456014
1055,8.913618524102276
1056,-7.600274523389089
1057,-20.387097625938623
1058,-20.847793364313475
1059,0.33169501322117867
1060,49.81642359224679
1061,114.29844779356972
1062,171.38882237458165
1063,199.0776014306357
1064,192.7848383964374
1065,171.47058604743324
1066,155.77489650122152
1067,160.387821218952
1068,175.0694110067252
1069,182.9697160170581
1070,168.45878575027746
1071,135.7166690559734
1072,104.97341413443428
1073,96.83906853810913
1074,119.53367917306423
1075,152.23729230044592
1076,169.9899535379518
1077,151.81170786131952
1078,107.08259960580108
1079,59.22267246766751
1080,31.321969505701418
1081,32.40053314270881
1082,53.18840516702767
1083,83.15562673405293
1084,112.66223836776226
1085,135.34827996223794
1086,145.66379078322643
1087,138.68880946966237
1088,117.78337403523619
1089,92.22752186994512
1090,71.36128974165513
1091,60.62471379767703
1092,57.87782956633782
1093,60.11067195856231
1094,64.34327526946981
1095,67.85567317995628
1096,68.00789875829287
1097,62.229984461750064
1098,49.23196213817937
1099,29.043863027662155
1100,1.755717764106521
1101,-30.45244362311678
1102,-59.740591707532076
1103,-77.32869766393924
1104,-75.83673326674943
1105,-59.01467088835125
1106,-36.01248349744856
1107,-15.930144657404526
1108,-4.247628524577522
1109,-1.9549098466359283
1110,-9.701963960911598
1111,-26.238766792701426
1112,-43.65529485357911
1113,-52.62152523971781
1114,-45.357435630190594
1115,-29.91300428527029
1116,-23.6182100447204
1117,-43.64303232610109
1118,-90.24745112304117
1119,-138.75744700352698
1120,-162.4520011081804
1121,-143.98609514853342
1122,-102.98071140528555
1123,-68.17283272658096
1124,-65.93444252627887
1125,-94.14552478216865
1126,-132.13906403427427
1127,-159.0630453830545
1128,-166.01545448768047
1129,-163.1062775642622
1130,-162.15650138407182
1131,-172.20811327179945
1132,-190.73710110376123
1133,-212.21045330613197
1134,-231.20415885316288
1135,-243.59020726538984
1136,-246.11358860786277
1137,-235.58929348833772
1138,-213.0443130554886
1139,-186.1336389971093
1140,-163.10626353831321
1141,-151.44017943971812
1142,-155.53037999564003
1143,-179.00985903229775
1144,-224.2066109059706
1145,-279.0126305011945
1146,-322.33691322893355
1147,-333.30345502476484
1148,-309.06125234702995
1149,-272.59230217503136
1150,-248.90160200716127
1151,-254.0321498590929
1152,-272.99594426192925
1153,-284.09798426035195
1154,-268.17526941078904
1155,-229.1687997795525
1156,-183.31957594098458
1157,-146.74459897561246
1158,-127.35287046829217
1159,-123.16039250632275
1160,-131.64716767761638
1161,-148.9231990688022
1162,-167.5184902633846
1163,-179.30304533984418
1164,-177.7268688697859
1165,-166.75996591605508
1166,-154.7623420308555
1167,-149.80400325387018
1168,-154.19495611037928
1169,-164.9352076093801
1170,-178.7947652416824
1171,-192.2316369780383
1172,-201.09083126723635
1173,-201.12535703420872
1174,-189.59622367814336
1175,-170.78244107057435
1176,-151.04801955349103
1177,-136.2629699374247
1178,-126.95730349955375
1179,-120.09103198179764
1180,-112.64416758889638
1181,-103.46672298651902
1182,-93.9987112993349
1183,-85.86014610910388
1184,-80.61104145277386
1185,-79.5814118205526
1186,-84.09127215398621
1187,-94.49063784404825
1188,-104.5895247292101
1189,-105.46794909352502
1190,-88.77592766470116
1191,-56.44347761216886
1192,-19.39061654516445
1193,11.26263748920428
1194,28.716266007895683
1195,34.0002500938499
1196,28.89457039793706
1197,15.639207140873623
1198,-1.8758598848216934
1199,-19.330651312902773
1200,-32.45518820146572
1201,-37.16949203099466
1202,-29.523584702432345
1203,-5.957488535235825
1204,27.108773734569695
1205,53.39517895630888
1206,56.241703566638535
1207,30.02832359146487
1208,-9.234985352106378
1209,-43.00824805381308
1210,-56.67148970831113
1211,-51.394735913203476
1212,-32.40801266710332
1213,-5.691346367688311
1214,15.855236190258438
1215,15.751707816791168
1216,-21.401959071241436
1217,-86.3157924482548
1218,-145.26982067796234
1219,-163.65407251142642
1220,-127.74857708512172
1221,-62.813363918956384
1222,1.5815370856653317
1223,41.44609564779785
1224,53.47028110892097
1225,39.07406243488367
1226,1.2174082178662502
1227,-45.659713321672825
1228,-81.86733433303561
1229,-88.64548733331867
1230,-63.624205205476756
1231,-18.363521196346483
1232,35.12653108529412
1233,85.24591767069978
1234,121.00460423308687
1235,131.47255608963133
1236,112.82973820338157
1237,81.55611518525257
1238,57.78165129595982
1239,58.44631044798189
1240,82.9800562075252
1241,124.80285179647217
1242,176.8146600943328
1243,226.18544364021727
1244,256.5051646347911
1245,251.9337849422027
1246,214.1412660920796
1247,164.01756928145733
1248,123.4126553767419
1249,106.13648491567074
1250,110.67901810926014
1251,133.77021484375837
1252,170.2900346826118
1253,208.73843686839973
1254,236.24538032480996
1255,242.46082365857546
1256,233.45472516142763
1257,221.72704281205733
1258,218.82773427806205
1259,224.07675691789336
1260,228.42406778280565
1261,222.95962361881902
1262,206.89338086865973
1263,188.70529567370068
1264,177.35532387592502
1265,178.00342101985916
1266,188.59954235453733
1267,206.28364283542578
1268,228.20567712638513
1269,251.4855996016122
1270,273.27336434756944
1271,290.4489251649502
1272,298.4622355706051
1273,292.28324879948195
1274,268.1619178065921
1275,235.9381952689073
1276,213.41203358733765
1277,217.51338488864894
1278,244.32220102740757
1279,270.29843358791004
1280,271.4520338861239
1281,242.1829529716215
1282,204.48114162951606
1283,182.56655038238205
1284,190.89912949220343
1285,220.47882896229567
1286,258.9155985392208
1287,293.6893877147486
1288,312.1601457277484
1289,301.59782156615256
1290,253.23236396884022
1291,184.03372142758963
1292,121.22184218900111
1293,90.38667425639505
1294,97.86816539175925
1295,137.9562631176559
1296,204.33091471913576
1297,281.85206724566706
1298,347.00966751303713
1299,376.3436621052788
1300,366.21399737657885
1301,341.3306194531833
1302,328.53347423532614
1303,341.3325073991182
1304,364.4176643984647
1305,378.77889046697965
1306,371.9361306198716
1307,353.34932965587905
1308,337.00843215912755
1309,333.4933825010794
1310,336.00412484240223
1311,332.18060313487695
1312,311.57276112330146
1313,279.22054234737334
1314,247.56389014359775
1315,228.24274764716938
1316,221.75705779387317
1317,220.82676332197116
1318,218.2418067740873
1319,211.782130499103
1320,204.21767665403058
1321,198.57838720590917
1322,199.34420393369146
1323,213.01506843010247
1324,246.19092210354393
1325,295.6417061799675
1326,338.56736170473596
1327,349.867829544517
1328,318.1730503891431
1329,271.24296475350275
1330,243.7075129793884
1331,259.57663523737756
1332,299.28027152870345
1333,332.2183616871116
1334,332.790845380734
1335,305.1976621139456
1336,264.3987512292242
1337,224.65405190901402
1338,194.27350317758828
1339,178.54704390289407
1340,181.924612798417
1341,198.60614842502764
1342,215.78158919284215
1343,221.34087336305674
1344,219.29393904981953
1345,228.19072422204954
1346,266.30116670530333
1347,324.98520418361113
1348,363.44277420131766
1349,339.61381416491895
1350,250.22826134491152
1351,152.68605287761966
1352,109.46712576703248
1353,147.13141688663927
1354,218.79886298126257
1355,268.56940066888274
1356,261.822966442478
1357,221.05949667183268
1358,178.23892760538365
1359,156.72119537202707
1360,149.43623598295017
1361,142.63398533344298
1362,125.37437920473167
1363,99.87735326577604
1364,72.10284307510119
1365,48.540784082595565
1366,38.84111163134003
1367,53.82376095940708
1368,101.05866720167069
1369,162.90576539161884
1370,209.95499046313853
1371,215.84627725235987
1372,186.2095604994047
1373,145.30477485023766
1374,116.34185485842863
1375,105.23073498696976
1376,105.54134961006093
1377,110.78363301490026
1378,118.28751940349503
1379,128.70294289442245
1380,142.54983752464614
1381,154.87813725129126
1382,155.06777595341737
1383,132.74868743383377
1384,95.10080542084143
1385,71.044063570047
1386,90.23839546612544
1387,151.4337346245993
1388,208.2800144936209
1389,211.25716845572788
1390,147.48512982964166
1391,66.92883187202096
1392,25.496207779226097
1393,47.904190689107054
1394,96.36371368275286
1395,125.68470978625555
1396,110.72611197248443
1397,73.02685316283896
1398,40.74986622900906
1399,32.384083994731554
1400,40.42543923756239
1401,53.04486469060066
1402,61.81229304426961
1403,68.77765694806294
1404,78.01088901228832
1405,92.31392180981311
1406,110.04468787782935
1407,128.57911971958129
1408,144.86014980612163
1409,154.1707105780497
1410,151.35073444725094
1411,134.60015379864672
1412,117.0009009919122
1413,115.77390836324957
1414,143.01610822708062
1415,185.48043287781366
1416,222.09581459156834
1417,236.98018562789366
1418,242.5834782315178
1419,260.9056246340697
1420,307.74655705579244
1421,362.1562077072995
1422,389.71450879127224
1423,364.1413925041943
1424,311.8367910380748
1425,279.9106365821681
1426,306.8228613247011
1427,370.963397454565
1428,425.5121771630729
1429,431.69913264563365
1430,409.7641961035042
1431,406.07729974547874
1432,459.4383757896103
1433,549.7273564649131
1434,629.5841740130891
1435,657.7887606902223
1436,643.281048768491
1437,618.950970537875
1438,614.3884583078598
1439,630.363444409144
1440,653.5658611953368
1441,671.2256410446644
1442,676.3627163616711
1443,664.8370195789157
1444,634.3484831586793
1445,597.9170395946494
1446,576.2626214136326
1447,587.0851611772341
1448,621.7545914835755
1449,658.4508449689565
1450,677.1738543095835
1451,674.1635522232409
1452,653.7198714709812
1453,620.6527448588313
1454,583.3021052394633
1455,551.7278855138975
1456,534.5400186331899
1457,528.6184376001074
1458,525.2630754708334
1459,516.0638653566293
1460,495.40074042554807
1461,458.8836339040936
1462,404.2424790789246
1463,344.2672092985176
1464,298.40175797486336
1465,281.781058585153
1466,279.93204467344185
1467,266.0446498523488
1468,219.33280780471432
1469,157.684452285308
1470,114.14151712248349
1471,114.78993621986774
1472,144.51964355804193
1473,173.2065731962066
1474,175.48465927387952
1475,151.91683601254408
1476,111.75303771735526
1477,64.74119877879457
1478,23.0212536743511
1479,-0.5258630297885247
1480,2.184783322905787
1481,18.068127481014017
1482,28.17410428681069
1483,19.418648677965393
1484,1.9166956892022426
1485,-8.48381954602337
1486,-1.5229617938475712
1487,13.477204281663944
1488,22.913614120214334
1489,18.688203266918208
1490,9.66690737400313
1491,7.966662202459702
1492,19.52540362373111
1493,33.67806762138389
1494,37.02059029277734
1495,21.037907850730335
1496,-11.414043374779794
1497,-55.8153269349732
1498,-102.93800626057237
1499,-134.09014466013832
1500,-129.64180531838792
1501,-86.93005129453195
1502,-32.580945520585374
1503,4.17644920030034
1504,10.973070195510445
1505,0.29185492465330753
1506,-13.594259018771481
1507,-24.53033390569908
1508,-36.48743186980937
1509,-53.83161490585553
1510,-74.46394486799727
1511,-89.44948346810088
1512,-90.15529227407569
1513,-79.86543270817674
1514,-72.39496604535088
1515,-80.79395341153031
1516,-102.16445578195635
1517,-121.9195339795042
1518,-126.44724867299738
1519,-115.44066037551056
1520,-96.61782944270635
1521,-77.3428160711228
1522,-61.20168029651177
1523,-49.926481992128174
1524,-45.5732808670582
1525,-52.271136464525625
1526,-74.96010816019043
1527,-115.01425516046947
1528,-156.3446365008367
1529,-177.50631104412605
1530,-164.48133747884458
1531,-131.4247743174692
1532,-99.14667989474765
1533,-81.99411236600645
1534,-75.50012970544594
1535,-71.8197897044356
1536,-66.41014996981721
1537,-62.102267922186
1538,-62.67020079421309
1539,-67.5600056289004
1540,-68.78273927790724
1541,-57.864458399810246
1542,-36.971219458419
1543,-22.32907872103351
1544,-30.546092256745396
1545,-63.93631593472492
1546,-110.33580542248819
1547,-156.9676161841835
1548,-191.98880347887643
1549,-204.27842235880235
1550,-184.29452766766553
1551,-138.5041740389006
1552,-82.67941589393558
1553,-31.882307440473596
1554,4.724097329255528
1555,20.500744640226912
1556,11.14758093634373
1557,-16.09744711779058
1558,-50.41339263516056
1559,-81.05530850457399
1560,-97.57124738892344
1561,-89.60026172343169
1562,-56.89940371390185
1563,-24.267725334968418
1564,-20.146278328324115
1565,-55.98211420098232
1566,-113.23428422349753
1567,-170.5598394282024
1568,-216.56483060745632
1569,-252.43830831185733
1570,-279.7873228484732
1571,-292.52492427908146
1572,-277.6081624183662
1573,-224.0970868321565
1574,-148.38674683564022
1575,-84.44019149156338
1576,-61.81946960845926
1577,-75.51962973883928
1578,-105.12272017741634
1579,-131.87278895928102
1580,-145.38088385812443
1581,-137.76505238441496
1582,-105.68534178359914
1583,-60.1707990342893
1584,-15.092470846440847
1585,18.07859634045053
1586,32.929356359189114
1587,23.926763316690995
1588,-2.9242284041811217
1589,-25.211664142789232
1590,-20.53658895888293
1591,5.890952369245497
1592,22.25591534659543
1593,-0.8597442366917676
1594,-51.89307030348209
1595,-92.759106487787
1596,-91.18789613291665
1597,-58.712482289613035
1598,-25.440907714182686
1599,-15.231214866626033
1600,-24.709445908763882
1601,-43.19464270235585
1602,-61.76184680722872
1603,-76.20909947937616
1604,-83.0694416690676
1605,-76.02091401896723
1606,-43.903556862220285
1607,24.11758977944919
1608,116.79948619763672
1609,198.69909299918982
1610,235.60837110810644
1611,226.34628176746992
1612,193.01578654136756
1613,157.04884731683705
1614,131.29542630577816
1615,124.81748604692075
1616,140.82698940775845
1617,157.67789958649337
1618,147.13918011401074
1619,100.68379485581863
1620,59.588708014036456
1621,72.18688412934716
1622,143.34128808298556
1623,211.0318850987187
1624,210.713640744827
1625,146.2875209360991
1626,86.79049193584615
1627,96.39652035787913
1628,162.7855731685304
1629,229.07561768867708
1630,248.58662159574487
1631,234.34255292573653
1632,219.84838007528379
1633,227.7470718036584
1634,246.80959723483284
1635,259.3179258595137
1636,256.54002753722125
1637,245.85087249832213
1638,236.26143134612357
1639,235.36267505892283
1640,249.23757499210296
1641,282.55010288021185
1642,324.8902308390643
1643,356.34493136781566
1644,361.8891773511041
1645,355.68494206112155
1646,362.36319915976856
1647,396.6559227007492
1648,442.4380871317262
1649,477.71066729643826
1650,491.0126384368632
1651,489.1289761953467
1652,480.47465661679416
1653,469.1606561508015
1654,455.0519516538461
1655,438.52052039146656
1656,426.7243400404459
1657,430.62538869099444
1658,454.32364484897516
1659,468.257087438089
1660,432.66969580210207
1661,334.68844970707323
1662,229.7283293435721
1663,182.79131532891552
1664,206.45138870943447
1665,240.85753096271037
1666,225.33172399983232
1667,166.71595016768697
1668,123.58919225121281
1669,144.02943347569817
1670,196.32165750907006
1671,215.85184846419543
1672,163.43399090119055
1673,85.16106982973542
1674,44.45407071140653
1675,63.97697946200424
1676,96.24478245390128
1677,89.3624665183761
1678,43.63301894799406
1679,7.546427498968114
1680,23.43968039352694
1681,68.23576632230834
1682,86.9396744467449
1683,43.72639440148305
1684,-22.19408370322708
1685,-53.743769279091794
1686,-29.650671257357317
1687,2.9452019136333547
1688,-8.820157729111088
1689,-71.53875766077545
1690,-145.95660486626002
1691,-193.96270583773548
1692,-204.66506657211903
1693,-181.01869256860118
1694,-130.30858882614848
1695,-76.24175984096473
1696,-46.44620960399334
1697,-51.71494159836948
1698,-71.22095879687731
1699,-81.15726365940282
1700,-69.26485813036561
1701,-34.21574363615218
1702,21.84507891748035
1703,73.00660914798027
1704,82.11884719862428
1705,29.85179374110885
1706,-40.61055002180183
1707,-72.8861823536572
1708,-47.30910098166896
1709,-4.460303094057963
1710,11.84521466262413
1711,-2.9205438138433237
1712,-21.523574078657475
1713,-21.16287113727776
1714,-12.660429442741588
1715,-19.795242892922033
1716,-55.38230482780091
1717,-102.0576080267274
1718,-137.51614470565983
1719,-147.4229065144118
1720,-127.66288453385096
1721,-76.5380692731269
1722,-11.430450666875913
1723,38.558981927613786
1724,51.69123973321075
1725,39.58533455577526
1726,22.955278787008865
1727,11.88008540732335
1728,-4.000232011299886
1729,-36.329659302418804
1730,-76.41918170224017
1731,-97.3727838467039
1732,-77.19344976856337
1733,-31.165162894469177
1734,10.19009395800822
1735,26.464338583304198
1736,25.312589390850917
1737,19.00086540805387
1738,13.223186283285031
1739,5.627572288896772
1740,-5.861955675749414
1741,-15.883376081270399
1742,-14.93166676519104
1743,0.9551950711029349
1744,14.844232865458252
1745,5.192470698008037
1746,-30.649066705693258
1747,-65.53935397156965
1748,-71.89736507389352
1749,-51.434073332155094
1750,-26.487451407881963
1751,-15.227471301494006
1752,-13.828104349109708
1753,-12.005321219347024
1754,-7.1420919101128675
1755,-11.258385745390115
1756,-36.76917137197779
1757,-74.41641675625033
1758,-96.90208918088501
1759,-82.4471552415871
1760,-43.60358084377731
1761,-4.880331199297871
1762,17.66262917693348
1763,26.48833647023821
1764,26.310827569563116
1765,17.904140070839276
1766,-1.585687719656562
1767,-33.33861678184985
1768,-67.27160737849954
1769,-89.00061905173789
1770,-90.90861061963915
1771,-81.21154017274603
1772,-70.20236507059963
1773,-63.72104193823543
1774,-63.32152666269394
1775,-69.0667743894719
1776,-72.65773951899973
1777,-62.536375703071826
1778,-36.4506358412782
1779,-13.952472077426137
1780,-16.44683579591583
1781,-38.313677618134534
1782,-48.37194739880033
1783,-20.977594222338666
1784,29.548433600823046
1785,73.9111885379225
1786,94.26272383757168
1787,97.99609353347296
1788,95.00135244817466
1789,79.7105561968001
1790,33.0517611908399
1791,-54.29597535805988
1792,-136.57559543430398
1793,-149.84904021452348
1794,-76.83525006371019
1795,9.641835468612044
1796,31.96427765228509
1797,-5.034861419611843
1798,-34.061518826822066
1799,-7.660630818001664
1800,25.503867193236147
