800,-9.070706064625483
801,1.8331846789183146
802,16.02226529119298
803,30.718602408295737
804,41.751262325381504
805,44.92531099994494
806,37.71781405506363
807,23.360836782628667
808,6.329444146546848
809,-8.930299214084243
810,-18.780328981815728
811,-20.60258115772058
812,-11.845992058283628
813,9.056501687683522
814,35.97296314210371
815,59.149455060670334
816,68.83003989586632
817,60.58477979995223
818,43.463736627937124
819,28.616971940526582
820,26.693547007041616
821,38.49052280832393
822,55.72096003961178
823,69.76691911339594
824,73.45646016225373
825,67.1806430416591
826,53.78852733277108
827,36.13517234520168
828,17.15763711975933
829,-0.05401956882997183
830,-12.398739209219002
831,-17.061463550763165
832,-14.378134600863177
833,-6.632694622328927
834,3.8579138692343804
835,15.150748108017979
836,26.49086508057826
837,37.36132152839036
838,47.24417395037608
839,55.53347860540498
840,61.528291514789544
841,64.52166846474347
842,64.11266500882857
843,61.72233647037865
844,59.45673794489994
845,59.39992430245684
846,61.57495019003045
847,62.167870033858435
848,56.94973804176243
849,42.2746082054382
850,21.161534302744258
851,0.8795698999592787
852,-11.23423164597898
853,-10.578817185253683
854,-1.1771337729683182
855,11.249871333033752
856,21.12025067432978
857,26.091056594058045
858,27.126341239040357
859,25.34515656188114
860,21.827554323052482
861,17.45958609295758
862,13.067303253971204
863,9.474757002468778
864,7.727998350829239
865,9.211078129421367
866,15.340046988573704
867,27.191955400521238
868,42.86585366133795
869,58.921791892844794
870,71.91282004450568
871,79.42998789530202
872,81.56434505558445
873,78.77394096891749
874,71.6398249138906
875,62.57004600592654
876,55.367653199060896
877,53.870695287706894
878,60.11222090840147
879,69.63727854153922
880,76.53491651308059
881,75.15318299624187
882,66.59812601317844
883,59.25179343663922
884,61.854232991607205
885,80.41549225692461
886,106.67561866689857
887,127.72765951289011
888,130.84266194488555
889,112.60367297305402
890,83.26673946928122
891,54.1789081686934
892,35.560225671157696
893,29.30373844277483
894,33.57349281734514
895,46.501534997823455
896,64.87691105775957
897,82.86366694271464
898,94.32784847166613
899,93.91350133839978
900,84.2786711128806
901,72.77840324260433
902,66.82174305394301
903,70.09373575346353
904,76.91642642924171
905,80.16386005214554
906,73.42608147712053
907,60.33013544444384
908,51.89206658097237
909,59.29891940137077
910,88.03673830932485
911,125.59756759874199
912,155.93045145493124
913,163.73443395577397
914,147.9035590728763
915,119.9508706727047
916,91.8294125177099
917,73.07522826743389
918,63.93936147960585
919,62.44385561121362
920,66.61675401957336
921,74.64009996337518
922,84.85793660371701
923,95.62030700512332
924,105.4312541365548
925,113.49982087239187
926,119.22904999341745
927,122.01698418777687
928,121.03366605192423
929,115.18913809155765
930,103.3744427225406
931,85.09462227180848
932,62.96371897825611
933,40.57577499362242
934,21.503832383350982
935,8.37193312744239
936,2.592119121291944
937,5.493432176515398
938,17.322914021755878
939,32.33160630348675
940,42.70955058678783
941,40.81578835612527
942,26.42436101610292
943,9.365309892210917
944,0.18667623155261026
945,6.944501203569871
946,23.212825900743155
947,37.365691339290606
948,37.944138459842634
949,21.833208128111437
950,-2.486058864448296
951,-25.675621800004592
952,-39.5364400337121
953,-42.56347299309573
954,-35.678680177447404
955,-19.862021157224717
956,1.4705444265205188
957,21.545056862717047
958,33.337556370835046
959,31.32908310142193
960,18.57067713664628
961,1.1453784908130729
962,-14.927772889125208
963,-26.626737123066505
964,-34.89947439727621
965,-40.970944963910824
966,-45.55410914055301
967,-46.61992730976135
968,-41.231359918625
969,-26.594367478337972
970,-5.119910563776102
971,14.33305018690362
972,22.504554072668725
973,13.304640329988615
974,-3.9586518667815653
975,-15.30928340504579
976,-7.231215233609873
977,20.485591637659127
978,53.14217613817027
979,75.24057713692446
980,75.64183344282264
981,61.75498380497629
982,45.91106691298728
983,39.91912139723354
984,43.627185829136124
985,45.11729872141768
986,31.967498528355463
987,-2.6291763539861677
988,-45.26668758751839
989,-77.98699689191426
990,-83.75706604440029
991,-61.56385687955208
992,-23.82933128910645
993,16.603548778217828
994,48.594821316889465
995,66.05952426472959
996,63.83669550306195
997,37.65137285685432
998,-5.382405905147607
999,-50.24360307029929
1000,-81.77218098193589
1001,-90.93010203927588
1002,-83.14732869731552
1003,-65.94482346674977
1004,-46.84754891388911
1005,-32.611467660589824
1006,-24.818542384196007
1007,-22.918735817485413
1008,-26.328010748627094
1009,-33.19533002114531
1010,-39.84865653389852
1011,-42.47895324105184
1012,-38.64818315207867
1013,-33.41130933175282
1014,-34.360294900159715
1015,-48.78010303270912
1016,-74.20569696016219
1017,-96.72203996866028
1018,-101.74609539976791
1019,-80.07082665052076
1020,-45.1951971734793
1021,-16.62317047679244
1022,-12.880710124275538
1023,-32.63677973548192
1024,-56.16534298579427
1025,-63.03436360651904
1026,-41.319805384986466
1027,-5.9026321646665565
1028,23.062192154721288
1029,26.944703617078176
1030,7.163938209797379
1031,-20.793068136380498
1032,-41.16527954750836
1033,-44.99466020658656
1034,-38.77417435373036
1035,-31.135786286327857
1036,-29.81146035922393
1037,-34.80616098489645
1038,-42.21085263364421
1039,-48.09449983378727
1040,-49.30906717186235
1041,-43.957519292841425
1042,-30.254820900333925
1043,-7.360936756819228
1044,20.3141683161316
1045,46.542529437613666
1046,65.23518166715485
1047,74.12916000446467
1048,75.16449938918095
1049,70.49623470060897
1050,62.584400757455114
1051,54.96503231755878
1052,51.41416407760789
1053,55.31083067285908
1054,64.58106667684706
1055,73.19090660108623
1056,75.03038489477103
1057,67.08653594446969
1058,53.1173940738081
1059,37.78599354314929
1060,25.45636854927716
1061,18.258553225057767
1062,17.305581639107004
1063,23.681487795453904
1064,37.341305633186494
1065,56.72006902610656
1066,80.1468117823706
1067,105.09056764413072
1068,125.38637028716175
1069,133.91125332049432
1070,124.17425028603884
1071,99.9993946581958
1072,73.54371984347881
1073,57.1962591801157
1074,57.73704593765342
1075,68.8731133165602
1076,82.44449444781412
1077,91.19422239249889
1078,94.79833014138103
1079,96.12685061449656
1080,98.00881666072382
1081,101.15326105735585
1082,103.51721650966738
1083,102.86871565047568
1084,97.63079103970313
1085,88.72147516392715
1086,77.66080043593365
1087,66.00279919425975
1088,55.757503702739996
1089,49.25894615004108
1090,48.826158649196714
1091,53.818173237138126
1092,57.891021874221224
1093,54.0487364437472
1094,37.340348751484726
1095,14.701890525181625
1096,-2.661606585921618
1097,-4.021111011583798
1098,10.15340873893956
1099,28.361984076401313
1100,38.64364633105606
1101,34.23242675215624
1102,22.229356507445573
1103,12.027466682641716
1104,11.467788280924651
1105,15.857352222416921
1106,14.445189343660331
1107,-3.231669602904276
1108,-35.54119394946974
1109,-65.63335311339051
1110,-75.67311659771849
1111,-55.39245399173751
1112,-20.217334971502623
1113,8.976270699616634
1114,13.311393170392876
1115,-5.346937498808984
1116,-32.946691336578624
1117,-55.41783846101407
1118,-66.537349080279
1119,-71.6891934931532
1120,-77.19034208960511
1121,-87.60976535134068
1122,-100.58743385237358
1123,-112.0663182595963
1124,-118.0183893333392
1125,-114.9146179279528
1126,-99.53997499237312
1127,-68.79443157069909
1128,-26.531958802772806
1129,12.303472075246646
1130,31.768889730295086
1131,20.61332273182643
1132,-12.867200448775293
1133,-55.292651438784105
1134,-93.74400196471652
1135,-121.01222385292613
1136,-133.68828903019084
1137,-128.5201695243113
1138,-108.42883746470079
1139,-86.05626508298565
1140,-74.9134247136003
1141,-84.23528879438891
1142,-106.21082986720376
1143,-128.78802057850862
1144,-140.6618336799811
1145,-138.88824202911928
1146,-125.72521858984283
1147,-103.55273643310284
1148,-76.95876873749148
1149,-53.688288789845956
1150,-41.73726998586244
1151,-46.3236858307032
1152,-63.04150993961275
1153,-85.39971603852564
1154,-106.99127796468429
1155,-122.21516966724721
1156,-125.89536520791125
1157,-113.15183876152196
1158,-88.7675646166881
1159,-69.09951717640479
1160,-71.19167095866578
1161,-101.92100059708082
1162,-140.23548084149843
1163,-160.31608655861783
1164,-141.12979273261544
1165,-94.20057446575811
1166,-44.57840697902566
1167,-16.480265612729454
1168,-16.081125827132837
1169,-32.905963203071224
1170,-55.86275344257183
1171,-76.70547236947596
1172,-92.91309593005826
1173,-102.64460019364515
1174,-104.75696135323642
1175,-101.38215572612717
1176,-95.60315975452568
1177,-90.38895000617504
1178,-87.33550317496793
1179,-87.13779608157347
1180,-90.39780567404978
1181,-94.20850902846723
1182,-90.85888334952278
1183,-72.2889059711606
1184,-36.367554357187146
1185,1.4611938981074672
1186,22.50536106934078
1187,11.744969299414151
1188,-20.74095940109555
1189,-54.40940315455373
1190,-69.66234021688297
1191,-64.88274897817291
1192,-54.081607963290935
1193,-51.6988958324996
1194,-63.17859138206268
1195,-78.09867354485141
1196,-84.4101213909612
1197,-74.67291412831173
1198,-58.783031103257144
1199,-50.722451801189436
1200,-62.25315584714372
1201,-86.35512300640266
1202,-106.57633318509443
1203,-107.03276643079653
1204,-86.82140293313569
1205,-59.96122302438107
1206,-41.07520718004889
1207,-37.91633601948797
1208,-44.760590306482754
1209,-54.322950949841015
1210,-60.3173990039827
1211,-60.52391566953429
1212,-53.75248229391582
1213,-39.42708037192142
1214,-22.39869154631151
1215,-10.314297608389097
1216,-10.481880498587088
1217,-21.80542230704168
1218,-34.879905274172415
1219,-40.00231179126058
1220,-33.81962440101779
1221,-24.858825798161433
1222,-22.94989882998334
1223,-33.44282649691877
1224,-45.12659195311153
1225,-42.96917850697764
1226,-15.125569621768136
1227,26.11425108387266
1228,57.4372998353474
1229,56.770592701553596
1230,24.863145594327307
1231,-18.179025732105856
1232,-51.781905681678836
1233,-64.68047881703296
1234,-59.92372986005557
1235,-41.780643692426565
1236,-14.93220535615501
1237,14.765599945882514
1238,41.242786849411914
1239,59.01136982822436
1240,65.78836319365246
1241,60.39478109404217
1242,42.15363751422683
1243,16.053946275011185
1244,-9.366278967350809
1245,-25.6410247216686
1246,-27.997277662331726
1247,-15.724024629814267
1248,11.636747368812848
1249,49.194051159380706
1250,81.79889940012254
1251,93.1333045811707
1252,74.23927902406604
1253,41.641834881263094
1254,17.387984135643364
1255,19.62773860002335
1256,41.484109916679245
1257,66.2211095568623
1258,78.29074882032182
1259,77.40903883483452
1260,73.69399055573012
1261,77.16661476542959
1262,89.0559220729765
1263,100.58692291357875
1264,102.48162754815257
1265,90.78204606286636
1266,71.64218836869168
1267,52.35406420095751
1268,39.382683118905334
1269,36.50305450525002
1270,46.94318756574148
1271,71.63509132873651
1272,98.40877464476671
1273,110.46624618611258
1274,93.19451444638162
1275,54.66958774009208
1276,16.31847420225904
1277,-1.000818212019567
1278,7.873718272031965
1279,33.28709124846546
1280,65.02730813020798
1281,94.63337614866532
1282,116.27430235333532
1283,124.33309361141346
1284,116.19975660741648
1285,96.45729784279729
1286,70.75872363557028
1287,45.37704011994447
1288,29.04825324594958
1289,31.111368779074382
1290,58.25939229991354
1291,99.87532920380318
1292,138.417184700475
1293,157.83096381371024
1294,159.0636713809945
1295,153.70631205318296
1296,153.12289029416115
1297,160.31541038052092
1298,170.33687640123117
1299,177.94729225731953
1300,179.2736616615539
1301,172.3949881381318
1302,155.56027502237112
1303,130.61952546040857
1304,107.19874240890113
1305,95.94292863472765
1306,103.2950867147074
1307,121.77521903530533
1308,141.0223277923592
1309,152.26741499080072
1310,154.94848244438344
1311,151.1195317754191
1312,143.57256441451227
1313,140.93258160030655
1314,154.63058437922973
1315,194.28757360524924
1316,245.7435499396247
1317,278.2395138506754
1318,262.1234656135416
1319,201.25140530996396
1320,132.8323328280503
1321,94.98224786206538
1322,99.62414991221522
1323,121.83003828443634
1324,133.98891209019303
1325,122.25277024628349
1326,100.17561147463948
1327,84.56343430214065
1328,86.77023706043474
1329,102.6560178857535
1330,125.35577471874512
1331,148.81750530430008
1332,170.34220719139512
1333,188.08787773293443
1334,203.2765140855886
1335,235.0721132096628
1336,309.1466718689403
1337,445.75718663055613
1338,619.2786538648616
1339,781.0420697452964
1340,885.4484302482747
1341,927.9477311530613
1342,931.8839680416713
1343,920.1481362987583
1344,896.204231111516
1345,845.9262474695929
1346,755.1261801649921
1347,628.4290237919986
1348,492.9027727470975
1349,376.7014212289041
1350,292.6069632380986
1351,229.36139257736295
1352,173.66470285133028
1353,119.80088746653337
1354,77.60093963136023
1355,58.785852356019404
1356,67.05461845250466
1357,84.5742305345716
1358,89.92368101771444
1359,69.86896211915291
1360,40.015065857822265
1361,22.315984054368073
1362,32.81870833115272
1363,60.31423011226161
1364,85.75854062351345
1365,93.32863089248758
1366,86.53649174854263
1367,76.0551138228534
1368,71.19848754844452
1369,70.61760316023583
1370,67.97145069509179
1371,57.71001999187638
1372,42.65030069151544
1373,30.477282237060535
1374,28.43995387376617
1375,37.060304649168756
1376,52.05732341316889
1377,69.01999881812617
1378,83.04031931895406
1379,88.78727317322455
1380,81.20784844128093
1381,62.55503298634767
1382,42.657814474655424
1383,31.47418037556963
1384,30.87711796172607
1385,32.75061430916867
1386,28.49765629749436
1387,16.701230610012317
1388,6.431323733897443
1389,7.502921960359345
1390,23.074011384811
1391,44.87657790704907
1392,63.54960723143631
1393,74.42908486709393
1394,82.26499612809721
1395,92.91932613367908
1396,108.31505980843986
1397,121.21218188256216
1398,123.07467689203486
1399,109.53652917888212
1400,87.43672289139477
1401,65.48624198437619
1402,50.28907021938812
1403,41.942191165005624
1404,39.2925881970782
1405,41.26524449899853
1406,47.04014306196996
1407,55.85626668529676
1408,66.39459797666314
1409,75.12811935243099
1410,77.97681303793706
1411,72.52066106780194
1412,63.737645286241786
1413,58.663747347387925
1414,62.98794871561222
1415,75.73223066586525
1416,93.86457428400809
1417,114.0809604671631
1418,131.62936992406685
1419,141.25478317542684
1420,139.22118055428973
1421,130.74754220641444
1422,124.34384809065023
1423,127.36407797932407
1424,139.71921145863098
1425,158.38422792903702
1426,180.09610660568387
1427,200.01282651880229
1428,212.62536651413166
1429,214.14470525334582
1430,213.27282121448843
1431,224.2456926924101
1432,258.1652977992194
1433,301.9256144647329
1434,331.2406204369372
1435,326.20229328245705
1436,302.3856103870271
1437,292.3155489559758
1438,323.21708601471255
1439,377.71419840921817
1440,416.56586280655574
1441,405.70205569536984
1442,355.82675338640547
1443,299.9669320130338
1444,268.39756753177335
1445,266.59563572283287
1446,287.5761121906544
1447,323.5639723644572
1448,360.9861914988005
1449,383.34274467414343
1450,376.25260679742087
1451,343.2687526026134
1452,296.87715665133874
1453,249.4197933334408
1454,211.4426368675886
1455,192.62066130188077
1456,200.36684051446127
1457,224.16914821413366
1458,244.97855794099223
1459,246.15004306705623
1460,229.846576796906
1461,206.87013216833384
1462,187.03168205299835
1463,172.56719915708618
1464,162.38565602197968
1465,155.3520250249344
1466,150.1222783797607
1467,145.267388137514
1468,139.4833261871927
1469,132.25406425643996
1470,123.3705739122579
1471,112.4578265617256
1472,98.15779345271903
1473,78.75244567465052
1474,53.872754159207034
1475,30.43168968109194
1476,17.79022285878318
1477,21.869324155294635
1478,31.717963878939372
1479,31.211112184110334
1480,9.26573907205966
1481,-22.880185608314605
1482,-47.8146921596649
1483,-53.39281103539588
1484,-48.30757283885532
1485,-46.39900832250942
1486,-55.910148387125446
1487,-65.46402408093354
1488,-59.39766659879069
1489,-31.281107281333334
1490,-3.1083776141231283
1491,-2.310509226789236
1492,-40.44653389215409
1493,-86.47048352536558
1494,-102.32039018301066
1495,-71.52428606222429
1496,-27.924203499798296
1497,-12.366174971272358
1498,-41.5632330900271
1499,-83.7224106063627
1500,-101.48274040657407
1501,-79.73625551202122
1502,-41.782989078187256
1503,-14.465974393730903
1504,-9.427244879534555
1505,-15.913834087741634
1506,-21.633775700788647
1507,-23.96410353042984
1508,-32.38185151675452
1509,-56.53205372719549
1510,-90.69674435553588
1511,-112.92895772090014
1512,-101.83872826674542
1513,-61.14309055984313
1514,-16.76007928925128
1515,6.308270734716643
1516,6.717924581534589
1517,0.48484720150736393
1518,2.4500034268280615
1519,10.547357972638565
1520,12.534875438099789
1521,-2.381479692532139
1522,-31.908743048826636
1523,-67.36595037308416
1524,-99.14313751923828
1525,-112.07834045175196
1526,-88.83659524450877
1527,-18.997938079688993
1528,73.91559475335498
1529,155.98296685922924
1530,205.78214173764627
1531,249.20108278456246
1532,323.3167532933426
1533,445.98011645591487
1534,579.1911353639443
1535,674.9137730100092
1536,703.2469922887794
1537,674.7807559982148
1538,605.5810268407563
1539,510.53476742453404
1540,402.4899402645792
1541,294.0265077840427
1542,194.35543231542215
1543,108.23367610179275
1544,40.018201298050826
1545,-8.24503002783922
1546,-36.86705589359099
1547,-46.443914401334496
1548,-40.362643736346854
1549,-24.169282165773893
1550,-3.588868037353677
1551,14.434560221883203
1552,22.24996410690119
1553,12.985305035972033
1554,-14.629455648019757
1555,-59.45935667625372
1556,-117.05243685265214
1557,-166.5537350525442
1558,-182.02129022132885
1559,-148.74514137312644
1560,-91.41632758942433
1561,-43.33688801771996
1562,-25.840861870149638
1563,-30.624288422114205
1564,-44.91620701089869
1565,-59.7786570342837
1566,-73.0416779491461
1567,-83.24830927006315
1568,-89.79059056789538
1569,-93.12956146837496
1570,-93.73026165068177
1571,-90.62573084600808
1572,-81.56500883612716
1573,-64.84213545194507
1574,-45.63315057205273
1575,-33.53409412126257
1576,-36.20700606914579
1577,-46.55392642856168
1578,-50.888895254178806
1579,-39.24495264098596
1580,-19.713138722800522
1581,-5.8074936707698726
1582,-7.051057691864571
1583,-20.286871027364214
1584,-39.8449739513394
1585,-58.88440676912023
1586,-68.12020981576643
1587,-58.17442345452582
1588,-30.85508807528413
1589,-3.8582440930158555
1590,4.518068053782827
1591,-10.462192095342289
1592,-40.47606502122699
1593,-76.48859122350768
1594,-107.49581121903338
1595,-121.20776554026952
1596,-108.01749473369864
1597,-77.14803935820919
1598,-45.81643998348318
1599,-27.316737188373736
1600,-17.905971559272984
1601,-9.27518368848314
1602,2.7415858274293896
1603,11.234296389281099
1604,7.525907396928687
1605,-11.310621749074016
1606,-38.43433164580392
1607,-66.04426288629338
1608,-86.26345605785127
1609,-91.1339517403735
1610,-73.89979050464626
1611,-43.808012910651996
1612,-21.391659505852658
1613,-23.742770823479987
1614,-41.05238738081562
1615,-51.60454967746227
1616,-39.61529819360885
1617,-14.872673388293606
1618,6.0272843023476526
1619,11.106534466829544
1620,0.08403672007989371
1621,-25.383249294797224
1622,-56.391363904744594
1623,-72.9043474049763
1624,-54.99424005719084
1625,-5.607082087782601
1626,50.540086313958
1627,89.51822499765422
1628,104.51729385364115
1629,98.68825281479349
1630,76.82606185834538
1631,52.06868100771726
1632,40.43207033435601
1633,51.5851899595732
1634,75.42900005639422
1635,98.08946085141497
1636,111.67453262665867
1637,119.0351757214462
1638,124.01635053426753
1639,127.05301752465812
1640,124.95513721508996
1641,115.14567019285778
1642,103.97457711197967
1643,103.40681869509808
1644,121.65635573539157
1645,144.7181490984899
1646,150.62215972439526
1647,127.78334862941074
1648,96.99067690807124
1649,85.17410573508914
1650,105.61959636729307
1651,148.00511014558424
1652,199.66060849689393
1653,248.31705293614277
1654,282.093405068214
1655,290.2386265899286
1656,272.96767929202406
1657,236.65652506114475
1658,188.91612588182943
1659,142.9824438385158
1660,113.79444111754128
1661,107.45708000915465
1662,107.62432290952938
1663,94.72913232278825
1664,63.02547086302911
1665,25.866301256360202
1666,-2.472413657065772
1667,-15.058710921002785
1668,-10.586627461063472
1669,10.464799917335313
1670,36.57153453103683
1671,51.6515398212091
1672,45.6057793554146
1673,28.396216829694367
1674,14.117816070645858
1675,12.512541037517167
1676,25.811355824294424
1677,54.911224661804226
1678,88.81911191982363
1679,105.56298210918521
1680,86.60979988389545
1681,45.058530043252176
1682,9.44613753397789
1683,-1.0814125476526897
1684,-4.156154953675468
1685,-26.131124282290784
1686,-72.2153549757204
1687,-107.23688131805193
1688,-93.46173743307827
1689,-39.26395728213765
1690,1.306425338054396
1691,-19.766623202417577
1692,-81.161136364492
1693,-126.1991474379447
1694,-113.25568953920401
1695,-61.072795609150944
1696,-3.1344984109255165
1697,35.64716947228317
1698,46.50017563944084
1699,23.348487873885915
1700,-20.489925854453304
1701,-53.30609738683597
1702,-48.07005837347424
1703,-20.44384027130627
1704,-6.253474341752735
1705,-28.215991648478393
1706,-62.76842305513719
1707,-76.52279922312346
1708,-57.53515060931613
1709,-29.068507463813603
1710,-16.31889982766279
1711,-22.309357530595207
1712,-32.13491018874629
1713,-32.608587202373656
1714,-24.61441775357389
1715,-14.462430803988354
1716,-8.057655092514324
1717,-10.136119133001102
1718,-25.041851211946323
1719,-49.42887938619242
1720,-70.10423148060681
1721,-74.23193508577015
1722,-60.117017555654
1723,-32.89650600529421
1724,1.2255726915400373
1725,31.857191904679894
1726,47.486325249894435
1727,42.8609465912341
1728,24.77603004338107
1729,1.4535499739945408
1730,-17.9855189939276
1731,-23.611201979692396
1732,-7.776523842547249
1733,21.70549082068601
1734,50.68881767798848
1735,67.40743266451409
1736,66.75831198497372
1737,45.05943211601698
1738,8.753769808619836
1739,-23.30869790952147
1740,-33.541993731595085
1741,-24.026140069276153
1742,-7.805159050321436
1743,3.8429274838372294
1744,6.731097980504728
1745,-1.5576688218634445
1746,-15.688393891245141
1747,-18.124097899623393
1748,7.6341987794348825
1749,49.8674760732074
1750,76.98671421225345
1751,64.7608937328464
1752,26.04099547941678
1753,-15.364999393003927
1754,-41.59110941634117
1755,-46.17135280702041
1756,-24.92774746351688
1757,9.164689036103027
1758,28.85193943664126
1759,12.99498680823217
1760,-22.504185451189187
1761,-48.85759361341479
1762,-48.536253617496186
1763,-28.668181067261685
1764,0.242608771162395
1765,25.581100971832257
1766,32.78228095147642
1767,10.835134471984475
1768,-28.628352357101903
1769,-65.31519307609597
1770,-83.9234008726603
1771,-80.90598857931218
1772,-55.00396867091695
1773,-18.293353262180062
1774,4.290845894861832
1775,-6.33338258664844
1776,-28.46904972586799
1777,-24.500166171739693
1778,17.75725779952836
1779,50.869212286989296
1780,21.926687767481326
1781,-56.497324901841694
1782,-109.92283448097942
1783,-77.80284934455221
1784,0.3186225207359712
1785,47.47557351863725
1786,25.5479964459023
1787,-18.09411550518189
1788,-27.638768744236586
1789,-1.93196928025327
1790,12.482277280967082
1791,-19.862034260640485
1792,-65.67590869684545
1793,-68.85035040856837
1794,-10.197363363316981
1795,58.12604888737451
1796,79.14088321050531
1797,45.97613689417949
1798,-10.287192349832367
1799,-59.30310638351693
1800,-78.54960664005239
