800,150.23093444540973
801,166.62054631714273
802,161.76882005030166
803,139.39897034077876
804,112.49121154619388
805,94.13575768561532
806,92.59282243925736
807,99.41761914818198
808,102.55636081400553
809,90.30926009856194
810,62.8515293236178
811,35.26338047052195
812,23.561025179878925
813,41.147674751231534
814,81.12254014269274
815,127.01983197061782
816,162.35476050923535
817,176.32453569029713
818,172.52336710270538
819,156.79246399214935
820,134.981035260711
821,113.0762894665022
822,97.208434823262
823,93.50667919996158
824,106.00923012041312
825,127.83429476285892
826,148.54007995955362
827,157.76079219635722
828,150.43163761230426
829,130.61082199918383
830,103.25255080110037
831,73.33302911403916
832,46.049461685419374
833,26.728052913646025
834,20.702006847654047
835,30.829527186459018
836,51.99881727867432
837,77.49908012206288
838,100.75951836304193
839,118.79533429621915
840,132.53772986390868
841,143.11490665563178
842,150.7640659076169
843,150.32740850232767
844,134.6381349679359
845,96.63444547782456
846,40.242539850056346
847,-10.17838245310486
848,-28.048122325759323
849,9.872518981122994
850,88.68673985917849
851,169.16773834209198
852,211.71871210507925
853,193.10885846432757
854,141.7503743764537
855,96.21045643795514
856,93.52930088463472
857,134.4411035910598
858,182.53906006999205
859,199.75036547180753
860,157.77821458392646
861,80.05480183024883
862,7.085321270555141
863,-21.062033400066866
864,8.665931148174423
865,66.56640787919241
866,119.17058939042545
867,137.08166791223084
868,126.51083530727556
869,112.09828306993768
870,118.59020232568764
871,158.37078383047265
872,214.12121797010514
873,264.17569475962046
874,288.1094038426745
875,284.29253449089447
876,265.39527560326496
877,244.4378157054598
878,231.22034294923287
879,223.953045111768
880,218.21610959501413
881,209.7097234250541
882,196.36407325145228
883,178.559345346579
884,156.78572560497378
885,132.4733995426759
886,112.0425522965379
887,103.50336862359654
888,114.75603290036452
889,147.4707291221821
890,194.15764090252196
891,246.5869514723272
892,296.4888436792953
893,335.1334999872488
894,353.5711024753873
895,342.95183283763436
896,303.43587238192777
897,252.73340202953295
898,210.63460231433965
899,195.12965338215508
900,206.4187349900094
901,234.2020265054507
902,268.069706905826
903,299.36195477758156
904,323.8989483155383
905,338.17086532218855
906,339.0378832069746
907,328.8501789855618
908,313.9479292791257
909,300.7613103136173
910,293.39049791905745
911,288.5056675287851
912,281.3669941787357
913,267.6346525067165
914,251.32881675166027
915,243.9096607529009
916,257.08735794943095
917,296.1520813791467
918,341.8740036781437
919,369.0932970799313
920,353.72013341471757
921,297.96468410865054
922,231.3171201830719
923,184.52761225376162
924,180.85633053020138
925,209.85344481480752
926,251.5991245021869
927,286.50353857837035
928,305.41685562006023
929,311.42924379388023
930,308.3308708556033
931,299.4219041494016
932,285.51251060706636
933,266.6528567472669
934,242.93310867477157
935,216.1634320796893
936,190.41399223669032
937,169.8949540042504
938,157.8964818238819
939,152.74873971935813
940,151.051891295936
941,149.43609973960702
942,145.35152781629586
943,137.4083378710984
944,124.29669182752878
945,105.7767511867005
946,87.79867702659067
947,78.59263000124156
948,86.15877033998368
949,109.28725784666676
950,133.9282518988839
951,145.0819114471724
952,131.27839501426024
953,101.72786069426184
954,73.11046615191663
955,61.886368621793736
956,72.89572490752653
957,94.88869138100563
958,115.48542398162499
959,123.60607821548729
960,115.92080915461156
961,91.7997714361718
962,50.763119261695465
963,-1.4189936037182633
964,-50.73641383216818
965,-82.56898853373968
966,-85.67656525729763
967,-66.69899199126121
968,-38.27611716438514
969,-12.857789646548554
970,3.366141250466171
971,11.985825772186217
972,15.051413720671917
973,13.713054453726727
974,4.64089688412605
975,-16.8649105211789
976,-55.164219741829584
977,-105.91688320485264
978,-154.98275378543258
979,-187.6816848076869
980,-193.26353004546945
981,-177.68814372312227
982,-151.33538051626238
983,-124.39509555258155
984,-102.91714441259137
985,-88.87138313041942
986,-84.03766819458542
987,-88.54585654876792
988,-96.54580559258648
989,-100.84737318237421
990,-94.69041763195855
991,-79.09479771341466
992,-61.60037265785286
993,-49.957002156190356
994,-49.154546359912274
995,-56.12286588184725
996,-66.28182179692703
997,-75.35127564296272
998,-82.59108942141029
999,-89.74112559812784
1000,-98.58124710414995
1001,-108.80131733643611
1002,-115.12120015863547
1003,-111.56075990186764
1004,-92.14986136544758
1005,-53.40836981767279
1006,-8.826150996555953
1007,21.116928889399787
1008,16.291003160464243
1009,-24.273795335084287
1010,-74.1073342216987
1011,-104.55948159732361
1012,-93.72010603412855
1013,-56.18907657927048
1014,-18.886262755624557
1015,-8.151534562530287
1016,-30.384762476543983
1017,-68.59581745215473
1018,-104.41457092254677
1019,-122.47089480031718
1020,-119.88466147822146
1021,-97.08574382989354
1022,-54.94401521059808
1023,-2.9093494579319668
1024,41.598379107430446
1025,60.85929568101528
1026,45.1035249738361
1027,9.681191211662735
1028,-25.15758186569292
1029,-40.39267100510551
1030,-33.7739534408156
1031,-14.741306895186426
1032,6.995390420608601
1033,23.476259805878726
1034,30.73142206970988
1035,25.310997530248642
1036,5.055106014016928
1037,-21.246133144801206
1038,-39.2826011050347
1039,-34.84417951925934
1040,-4.380750534432082
1041,38.61780320735488
1042,79.13159856824313
1043,104.48075191388307
1044,115.09537911277948
1045,115.94559553559702
1046,111.851516054483
1047,104.60325504240609
1048,92.56092637247093
1049,73.9546434172571
1050,49.434519048145376
1051,28.380665634666002
1052,22.073195043825763
1053,40.57221863945961
1054,76.97784728157058
1055,112.08019132567279
1056,126.43936062216017
1057,112.4054645156375
1058,88.13861184429152
1059,75.20891093924365
1060,91.83646962391867
1061,131.0213952134036
1062,174.24379451382447
1063,203.24377382170496
1064,211.6014389233569
1065,208.89689509424534
1066,205.83024709837628
1067,209.9615991876908
1068,215.42105510141664
1069,212.83871806551178
1070,193.78469079201204
1071,165.67907547846153
1072,148.70197380728132
1073,163.36348694520711
1074,213.36371554268408
1075,263.2227597332567
1076,271.8607191330266
1077,206.27769284002716
1078,95.23377943366904
1079,-4.010923025831289
1080,-35.17631699804224
1081,14.337694537132847
1082,100.41120807888183
1083,175.10431960492497
1084,202.4471245709683
1085,192.2597179101358
1086,165.3721940324267
1087,141.59464682417092
1088,126.88716964748346
1089,117.42985533973479
1090,109.22279621301277
1091,100.42608405358806
1092,93.36981012138858
1093,90.85406514948045
1094,94.4989393435626
1095,99.07452238142469
1096,96.8509034124545
1097,80.3781710571293
1098,47.87641340652044
1099,3.185718021779394
1100,-49.60382806634152
1101,-103.69213835798655
1102,-145.12912688468532
1103,-158.754708209819
1104,-132.85879742910947
1105,-83.79131017109648
1106,-41.42216259759516
1107,-35.08127140416036
1108,-69.98855382055626
1109,-121.12392761120282
1110,-161.45731107563188
1111,-171.74862304893395
1112,-159.01778290219409
1113,-135.8547105429334
1114,-114.31932641554522
1115,-100.95155150172832
1116,-99.04130732088925
1117,-111.68851593059298
1118,-135.1430999269396
1119,-155.5049824450216
1120,-158.06408715928956
1121,-134.08033828397492
1122,-98.50366057346764
1123,-72.15397932273117
1124,-73.88122036767527
1125,-99.60531008553335
1126,-130.25617539525047
1127,-146.67374375785766
1128,-142.85794317682303
1129,-133.76870219842567
1130,-136.27594991212027
1131,-161.77961595087254
1132,-199.04963049151957
1133,-230.9959242551049
1134,-242.20842850722693
1135,-238.19707505836232
1136,-238.41179626419034
1137,-262.2025250259303
1138,-309.49919479064374
1139,-349.4417395515502
1140,-348.4700938483438
1141,-286.3541927674887
1142,-196.003971942504
1143,-123.57936755428454
1144,-110.97031633134975
1145,-152.77675555015594
1146,-214.17862303535549
1147,-260.2858571600718
1148,-275.42839684616774
1149,-271.55618156449964
1150,-262.73915133516675
1151,-259.1872467277717
1152,-257.6404088616582
1153,-251.94857940615293
1154,-236.53170058078285
1155,-210.959715155519
1156,-177.5525664509969
1157,-138.81019833871687
1158,-102.6225552412725
1159,-83.27958213253623
1160,-95.45122453788099
1161,-142.3174285343539
1162,-195.41814075086768
1163,-220.90330836838802
1164,-191.81287912011248
1165,-128.07680129162145
1166,-69.05502372107003
1167,-52.5674957993233
1168,-82.70416747012314
1169,-132.52498923022176
1170,-173.9099121295476
1171,-189.43888777130633
1172,-183.08186831214334
1173,-161.3388064622377
1174,-130.8496554854446
1175,-98.64436919938817
1176,-71.84290197558221
1177,-57.155208739506634
1178,-56.07124497073164
1179,-66.69096670298131
1180,-86.95433052422777
1181,-110.8512935767485
1182,-127.01181355721565
1183,-123.6558487167531
1184,-96.343357860982
1185,-62.254300350081394
1186,-42.61863609883767
1187,-54.52632557666584
1188,-87.01732980764791
1189,-117.39161037057056
1190,-124.05912939892005
1191,-105.62984958091693
1192,-78.34373415951814
1193,-58.940746932395996
1194,-55.55085225196126
1195,-61.1440150253311
1196,-67.12020071431652
1197,-67.34937533539414
1198,-64.87150545967233
1199,-64.89655821285851
1200,-71.48450127520664
1201,-79.08530288147449
1202,-77.24893182084634
1203,-56.22535743688786
1204,-22.044549627471497
1205,3.5035211553149566
1206,-1.9411160947583994
1207,-44.87843293796686
1208,-100.66840148853407
1209,-141.05099441452694
1210,-145.1361849377463
1211,-121.8539468336021
1212,-87.6842544309875
1213,-57.947082612161466
1214,-37.73240681259085
1215,-26.840203020808985
1216,-24.96044777827956
1217,-31.233118179210578
1218,-44.148191870404844
1219,-62.175647051082706
1220,-81.29546247271173
1221,-92.8876174387915
1222,-87.83209180468657
1223,-61.37886597741999
1224,-24.997920915451687
1225,6.1207618715216086
1226,18.347200322803474
1227,10.11141182690335
1228,-14.646586778197161
1229,-51.55677920482049
1230,-88.97914971533646
1231,-109.10368312190076
1232,-94.14036478620073
1233,-39.639180619169565
1234,38.369882919285374
1235,122.08683882056539
1236,194.83169952769276
1237,243.18447693558846
1238,254.25518239139274
1239,220.32382669478466
1240,162.11042009829725
1241,110.08497230764988
1242,92.13749248208842
1243,106.98798923473441
1244,134.99647063292286
1245,156.72294419858008
1246,166.21741690858107
1247,172.34989519512965
1248,184.72038494613298
1249,207.13889150559407
1250,232.41541967402372
1251,252.08997370882207
1252,259.9025573247018
1253,257.243173694118
1254,247.1118254476787
1255,232.98851467459463
1256,221.1932429230983
1257,219.1560112009338
1258,233.6168199757758
1259,262.0856691757199
1260,295.84255818974634
1261,326.0874858681964
1262,345.1304505232765
1263,346.6014499295379
1264,324.29048132439675
1265,282.3575414086281
1266,244.76262634690647
1267,237.64573176831436
1268,275.2968527668927
1269,333.3059839021662
1270,379.3631191997192
1271,387.22825215173543
1272,365.26137571757135
1273,334.0724823243254
1274,312.83156386743576
1275,305.59861171124794
1276,307.6036166896429
1277,313.8865691066112
1278,318.76745873688924
1279,315.83627482657903
1280,298.78300609376674
1281,268.12764072918617
1282,234.6201663968277
1283,209.82057023463312
1284,201.1288388551311
1285,205.89495834611807
1286,219.98891427133276
1287,239.13069167115464
1288,258.4902750632791
1289,273.0876484434466
1290,279.53279528612984
1291,284.78569854526904
1292,299.936340654991
1293,334.64470353035176
1294,382.1807685680742
1295,425.56451664731503
1296,448.46592813040115
1297,451.3349828636292
1298,450.68166017801195
1299,463.33593889008625
1300,492.62779730270813
1301,522.4972132058265
1302,535.4841638773341
1303,523.6186260838622
1304,499.5405760816084
1305,478.5499896171823
1306,471.75684192844164
1307,476.33110774535453
1308,486.54276129084974
1309,495.571776281693
1310,491.16812592936185
1311,459.27178294093574
1312,390.0427195199936
1313,306.94090736750877
1314,249.42631768276442
1315,253.3489211642809
1316,305.65868801074066
1317,359.24558792192147
1318,368.14959009964514
1319,330.11066324874446
1320,286.37877557800493
1321,279.44389480115933
1322,320.8159881378542
1323,378.46502231464
1324,417.1709635659772
1325,416.41377763523997
1326,384.9234297757339
1327,334.89988475170503
1328,279.50310683940006
1329,234.53305982808342
1330,216.28970702110382
1331,235.1530112369437
1332,277.2829348102932
1333,322.7094395931272
1334,354.27248695578965
1335,371.38203778807474
1336,379.4780525003607
1337,383.7304910246912
1338,386.9393128159136
1339,390.7644768528098
1340,396.74594163921574
1341,405.27366520520263
1342,415.9776051081917
1343,428.3577184341593
1344,439.91396179878575
1345,446.3862913486464
1346,443.5346627624058
1347,431.579031252013
1348,415.9993515639271
1349,402.575577980313
1350,394.6476643202859
1351,391.7355639411435
1352,393.0592297396179
1353,396.68861415311767
1354,398.37366916100655
1355,393.58434628587383
1356,380.03059659479914
1357,361.29237070067575
1358,341.95961876348156
1359,325.5722904916056
1360,311.85033514316456
1361,299.6837015273213
1362,290.1023380056304
1363,293.7761924933948
1364,324.1952124609961
1365,389.2293449352692
1366,463.2885365008915
1367,508.4027333017493
1368,492.1618810423297
1369,425.9159249891236
1370,341.50480997204795
1371,269.6784803858536
1372,228.5568801915506
1373,228.96995291786152
1374,279.37764166265333
1375,357.89988909440217
1376,421.04663745366634
1377,427.2378285545401
1378,378.3634037861648
1379,313.95330411420764
1380,273.71747008236343
1381,271.56584181387007
1382,294.5283590130384
1383,328.45496096677016
1384,359.6855865461166
1385,375.2001742078028
1386,362.31866199581964
1387,322.8809875429579
1388,279.927088072418
1389,258.0269003993744
1390,267.61036093258554
1391,294.84740567599874
1392,323.57797023036073
1393,343.121989794854
1394,353.9293991687173
1395,357.7201327529019
1396,356.16412455171667
1397,350.65130817450154
1398,342.5616168372944
1399,331.65498336450764
1400,313.31134019063575
1401,282.21061936194565
1402,237.93275253817956
1403,195.17767099429875
1404,171.57530562219654
1405,179.25558693244238
1406,211.0584450560218
1407,255.55380974611944
1408,301.69161037986123
1409,339.8417759601107
1410,360.7442351172467
1411,358.6189161109578
1412,343.37574683206003
1413,329.24465480431354
1414,327.545567186231
1415,334.92841077293633
1416,343.5531119979951
1417,347.10959693527184
1418,347.507791300799
1419,349.4776204546524
1420,357.2590094028237
1421,372.38188279913993
1422,395.34616494712645
1423,426.5717798019632
1424,465.8486509723807
1425,512.7367017225952
1426,565.4158549742624
1427,612.8360333084256
1428,640.0071589674699
1429,636.4491538570983
1430,624.4219395483178
1431,640.6954372794225
1432,714.9695679580036
1433,822.3642521629554
1434,912.7694101464895
1435,942.5849618361735
1436,921.3408268369731
1437,883.9069244332932
1438,862.9731735910482
1439,871.529492959713
1440,912.9458008744296
1441,986.8320153580698
1442,1062.0480541233592
1443,1092.1438345749557
1444,1039.1592738116015
1445,938.324288628226
1446,861.6487955180983
1447,871.522710674968
1448,946.7059499952302
1449,1023.8584290800864
1450,1046.010063237729
1451,1012.2407674855276
1452,949.4904565522211
1453,883.5390448801336
1454,828.4864466273848
1455,792.7425756701268
1456,781.8373456047666
1457,778.5706697502283
1458,754.8924611502134
1459,688.6626325754423
1460,603.0010965259571
1461,541.8677652334027
1462,540.6925506633233
1463,572.3553645174525
1464,582.2261182360635
1465,526.0747230002689
1466,431.4810897343723
1467,355.9851291082068
1468,346.1167515394918
1469,377.55586719620806
1470,398.2123859989679
1471,365.616217623412
1472,294.3772715025807
1473,219.9154568293543
1474,172.70068255885235
1475,156.36285741085703
1476,165.51188987225942
1477,191.21768819950375
1478,207.32016042104442
1479,182.39921433980635
1480,98.30475753567407
1481,-4.253302632021587
1482,-68.28505902202414
1483,-54.110604708619576
1484,9.40996702085613
1485,76.47656266857484
1486,111.61908852871966
1487,115.54745069006094
1488,96.87155503849317
1489,65.78130725961637
1490,37.246612841312526
1491,27.14737707632412
1492,43.293505064862984
1493,71.74490171720754
1494,94.94147175633589
1495,99.95311972052878
1496,84.56974996604367
1497,48.19126666973534
1498,-2.0424261682837823
1499,-43.30142472195803
1500,-51.15582533662564
1501,-22.705724526325866
1502,7.808781028903468
1503,3.0275944857385184
1504,-41.96938115972807
1505,-84.32224306924036
1506,-78.52108855964252
1507,-22.966015100135337
1508,29.012879690479167
1509,22.865498046585344
1510,-37.19825794148528
1511,-84.95848632464731
1512,-55.15528529227231
1513,43.441246830616365
1514,136.5510115861871
1515,152.7539103866111
1516,92.39984451689816
1517,8.48871513776794
1518,-48.36957671149503
1519,-66.35513011018884
1520,-57.018044253281914
1521,-32.678418448549564
1522,-9.246352113652392
1523,-4.371944773229188
1524,-31.105296055993676
1525,-73.09650569176483
1526,-102.54567350856087
1527,-98.04289942962168
1528,-69.73828347046401
1529,-37.431925735896584
1530,-18.96392641703642
1531,-24.634385788325744
1532,-63.03340420452332
1533,-132.91108209768026
1534,-204.63751997413965
1535,-243.482818411474
1536,-231.66707805546685
1537,-189.19039961704584
1538,-141.07288386921755
1539,-102.3346316439929
1540,-70.82574382930761
1541,-42.85632136592176
1542,-21.736465244317515
1543,-20.006276501588218
1544,-49.90585621829632
1545,-101.61530551535543
1546,-142.93472555087828
1547,-143.20421751702088
1548,-111.42388263680732
1549,-87.15382216096805
1550,-105.82413736474518
1551,-152.18492954469912
1552,-181.56630001549092
1553,-156.8483501066803
1554,-96.91118115948666
1555,-44.68489452356516
1556,-35.09959155373872
1557,-62.89537360675422
1558,-110.3623420380136
1559,-160.00059819829585
1560,-195.0502434304526
1561,-198.92137906614153
1562,-165.32410642248578
1563,-113.43852679877273
1564,-66.22474147311732
1565,-37.69285169912837
1566,-26.062958702557808
1567,-27.92516367792996
1568,-40.00956778519139
1569,-59.206272146315314
1570,-82.46537784191787
1571,-108.11698590785272
1572,-135.75119733181236
1573,-164.27811304989154
1574,-184.49783394317092
1575,-181.97046083426358
1576,-146.47609448386902
1577,-99.69483558731918
1578,-77.44678477109119
1579,-105.55204258934828
1580,-161.06070952041773
1581,-206.38288596331768
1582,-215.2486722342237
1583,-197.19816856297075
1584,-168.86147508949398
1585,-144.10869186029777
1586,-130.9599188249067
1587,-136.4352558323044
1588,-153.6548026273449
1589,-156.06865884719628
1590,-117.38692401771368
1591,-50.29969754986632
1592,-5.017078736109397
1593,-27.859166746766277
1594,-101.57606062638115
1595,-167.69785929009595
1596,-175.84466151997913
1597,-136.81656596137873
1598,-87.37367111922686
1599,-57.32607535437455
1600,-46.063876879887175
1601,-44.81717375734115
1602,-47.436063893115715
1603,-54.83064503465903
1604,-69.0310147667642
1605,-89.54727050781366
1606,-111.62950950602317
1607,-129.93782883570202
1608,-134.5823253934359
1609,-110.70309589434146
1610,-45.940236868249485
1611,35.62615534410179
1612,84.18598459485656
1613,59.75915493290995
1614,-2.2644293923003715
1615,-33.05486392691819
1616,14.897755991167287
1617,97.61333523619942
1618,146.78177889842664
1619,123.33299228798205
1620,62.32688093878642
1621,9.93335061244943
1622,-11.5776926978142
1623,-16.756342763253997
1624,-22.312693115660295
1625,-24.026837043402338
1626,2.1811324125155807
1627,76.83112246242308
1628,175.69304057195586
1629,248.48679446605092
1630,254.9422921329333
1631,212.17944182812244
1632,157.038152078454
1633,117.68833168609672
1634,95.35988973259555
1635,85.99273558290952
1636,83.59677888947044
1637,78.68192959625776
1638,62.0880979428548
1639,43.02519446854967
1640,50.2731300164196
1641,109.39181573745009
1642,199.051163094633
1643,268.3410838671007
1644,278.261490154262
1645,261.30229437993694
1646,275.5634092965265
1647,353.2147479891719
1648,445.61622387991156
1649,488.90775073189434
1650,463.9792426535496
1651,429.160614102806
1652,447.5617798912972
1653,515.272655188588
1654,562.0331555264074
1655,523.753196802898
1656,424.6026952868524
1657,338.35156762199586
1658,321.94973083125114
1659,347.36710232101177
1660,360.78359988545526
1661,332.86914171082026
1662,296.50364637974417
1663,293.5570328755566
1664,329.0192205866442
1665,357.01012931076
1666,331.6696792593975
1667,264.1277910621393
1668,209.1243857710233
1669,211.8893848649459
1670,245.79271025403068
1671,254.5842842840284
1672,204.77402974073811
1673,139.18186985442298
1674,116.16772830423542
1675,156.14152922265203
1676,214.2631971999308
1677,240.95265728857157
1678,221.71983500776696
1679,174.55465634790198
1680,117.95704777501851
1681,64.68493623532777
1682,24.68324915971243
1683,5.257914468238596
1684,3.502860574693841
1685,14.017016391098878
1686,30.34831133227999
1687,44.00067532040157
1688,46.67803878954146
1689,40.15333269026087
1690,36.15448849418681
1691,44.471438198612304
1692,54.32111433108548
1693,44.44144995403076
1694,-0.2026213306326099
1695,-69.80316537685576
1696,-148.42024748982658
1697,-216.49793242131818
1698,-247.75328436501695
1699,-216.95736695188316
1700,-137.6202432454411
1701,-59.95897573709772
1702,-29.211626341468218
1703,-39.55125639163998
1704,-61.056926634470074
1705,-69.4746972258672
1706,-60.94462772603765
1707,-36.200777094751174
1708,-7.211203686600129
1709,-4.349965246197826
1710,-56.65111890345179
1711,-143.21272116875116
1712,-202.74182792818647
1713,-185.13249443874338
1714,-117.96377532350198
1715,-58.7677245668001
1716,-47.80339550942699
1717,-77.6718408437664
1718,-132.66411260895256
1719,-189.11226218602496
1720,-213.17234029304564
1721,-175.4693969802429
1722,-103.03048162509549
1723,-57.51364292748076
1724,-82.35092890473788
1725,-138.21238688676567
1726,-163.23906351110236
1727,-129.4870047179993
1728,-74.2742557454767
1729,-40.66586112436198
1730,-38.84586467335612
1731,-49.52830949404051
1732,-54.408237965923036
1733,-48.89669174143637
1734,-34.00971174094775
1735,-12.540338147744478
1736,7.890389596946989
1737,18.903432799024813
1738,15.120753516519471
1739,-5.154685435361898
1740,-41.83492047918662
1741,-79.81898727022417
1742,-95.62792069140778
1743,-73.63375484822245
1744,-27.96852306364417
1745,20.253742126966245
1746,49.16400898096617
1747,35.769246553536505
1748,-38.513575297183706
1749,-132.43148590497913
1750,-162.57151379040624
1751,-71.87768665565636
1752,67.0789686206117
1753,143.74442598843052
1754,107.86066023171406
1755,24.643646973414434
1756,-30.929637319251924
1757,-41.16421532962886
1758,-36.01810888638465
1759,-41.47533895832203
1760,-52.76092564912142
1761,-54.41288819212241
1762,-40.081244945056824
1763,-23.339013384820646
1764,-19.790210102197307
1765,-32.22685079657094
1766,-51.61095027066585
1767,-69.64552242524951
1768,-85.37858025382957
1769,-100.65613583734194
1770,-114.41320033885859
1771,-118.7557839982328
1772,-105.26789612677749
1773,-75.61454510192925
1774,-41.17173836188522
1775,-13.104482400260167
1776,1.37021723930593
1777,-3.3916440314969805
1778,-25.814069840260345
1779,-47.43706284844302
1780,-48.108624745997076
1781,-23.469756245938697
1782,15.882542921071945
1783,57.56227401214164
1784,82.0184392776082
1785,67.08404196645097
1786,12.925086331790226
1787,-31.28942236369585
1788,-13.40747784227824
1789,52.78092719430424
1790,95.94180107031934
1791,61.00015314155462
1792,-8.365006199193886
1793,-35.64466551660371
1794,9.25418767269548
1795,66.7215669056568
1796,72.18248677834526
1797,39.779962951488415
1798,43.30401215601887
1799,129.01565219866825
1800,212.9529019674992
