800,130.73001647844285
801,110.56991205787199
802,96.40233728499516
803,89.1764796269872
804,86.26552630837796
805,84.98966430985456
806,83.6910803670944
807,84.21996096956536
808,89.18349235936876
809,101.08986053003355
810,118.85025122538173
811,136.8598499383079
812,149.23784190964943
813,150.80241212700275
814,141.81574532355444
815,125.10202597691205
816,103.50643830796434
817,81.9001662797018
818,70.31139359606823
819,79.56430370079579
820,119.50207977626815
821,180.52090474236138
822,235.0909612552914
823,255.0294317064745
824,220.42049822138142
825,154.56234265838975
826,94.81814660766031
827,78.22609138998632
828,116.52835805565701
829,177.95212738333976
830,226.44757987892626
831,229.32489577443994
832,190.7832550268704
833,137.88583731707695
834,98.01482204866443
835,89.70438834684865
836,102.95471505736532
837,122.0369807453244
838,131.5893636941364
839,125.88804190436895
840,109.72419309266115
841,88.41899469060809
842,67.20162384366813
843,50.72025741005382
844,43.40607195963821
845,49.65424377286581
846,70.08394883965047
847,98.30336285829253
848,127.15166123438757
849,149.84701907974159
850,163.78061121129394
851,169.01961215002484
852,165.674196119895
853,154.37453704675318
854,137.3978085572744
855,117.34818397787967
856,96.87783633368963
857,79.95793834743017
858,71.89866243838878
859,78.06718072135118
860,101.66566500554109
861,134.41328679356593
862,164.25121728036538
863,179.2456273521584
864,176.12268758539722
865,165.28456824572277
866,158.3404392869288
867,165.2964703499074
868,182.11783076162283
869,197.50768953407896
870,200.13121536327708
871,185.38457662818837
872,164.84494138974333
873,152.4624773897831
874,161.268352050065
875,190.78473247120746
876,230.2207854317203
877,268.52067738694313
878,296.05457446807304
879,308.2876424811384
880,301.8280469059937
881,273.6169528953196
882,229.3125252736245
883,183.9599285362492
884,153.06332684835616
885,148.47888404396144
886,163.0117636249288
887,183.25512875999448
888,195.9921422837706
889,198.13296669577176
890,201.44476415944337
891,218.87669650117277
892,260.49592520932674
893,315.0356114332699
894,361.6909159824172
895,379.68899932525346
896,361.23002158837517
897,323.7341425555387
898,287.54152166669337
899,271.1723180170393
900,274.63669035606836
901,287.08479708662526
902,297.5267962639591
903,298.42284559477594
904,290.8831024363117
905,277.37772379539274
906,260.4468663274911
907,244.140686335817
908,233.599339770366
909,233.97298222702193
910,247.21176894660857
911,265.15585481399467
912,277.6453943571578
913,275.16054174629426
914,260.17145079288457
915,245.798274948811
916,245.511167305438
917,266.7602805927163
918,293.66576717828684
919,304.77777906657684
920,279.6964678979348
921,223.77198494769618
922,169.08448112535007
923,148.9391069736139
924,186.92101266757345
925,262.71534801381677
926,343.6672624495277
927,397.75690504164595
928,412.2844244859898
929,397.2899691063849
930,364.0536868538111
931,323.45572530554637
932,284.1962316643003
933,254.2553527573691
934,241.4532350357913
935,246.22002457349117
936,259.54586706644477
937,271.8009078318373
938,274.91529180722137
939,269.44916354969973
940,258.8926672350681
941,246.79594665701734
942,237.21914522628867
943,234.97240596986376
944,244.90587153013985
945,269.3596841641265
946,295.98398574261773
947,307.16891774939904
948,285.6446212804349
949,230.68123704307254
950,164.54890535523373
951,111.19776614463444
952,90.4179589479736
953,97.50962291016367
954,118.8928967835327
955,141.06791892705587
956,156.79482730554992
957,167.3337594889308
958,174.61485265141528
959,179.658243570766
960,178.33406862751508
961,164.7224638042171
962,133.08356468468082
963,86.06750645320426
964,37.46442389383628
965,1.8144513896259014
966,-9.072277078133993
967,1.8443720693649084
968,26.704532007690432
969,57.63833550845993
970,86.69591493857297
971,105.89740225951027
972,107.21292902659843
973,84.60262638829226
974,41.53662508544221
975,-15.63494454940701
976,-80.45195259272805
977,-143.3532695307331
978,-191.31476626006588
979,-211.1183140885114
980,-193.96078473568014
981,-149.81805033373166
982,-93.65598342803787
983,-40.33245697787606
984,-2.1283443571319367
985,11.22148064504836
986,-9.922856176448477
987,-67.53122944335519
988,-135.9225141947063
989,-183.22158588750062
990,-179.48532039735983
991,-128.3415940192026
992,-61.58928346788525
993,-11.909265878872247
994,0.49758119113903376
995,-7.658620236452407
996,-12.887748562776324
997,6.470317387858813
998,48.45569836734467
999,94.708514703123
1000,126.58888629756802
1001,132.80693262736895
1002,119.59277274289707
1003,95.64652526758982
1004,69.72830839735616
1005,49.308239899926775
1006,33.50643711429984
1007,17.963016950094243
1008,-1.6219041130334517
1009,-26.298210025970548
1010,-52.455785170761374
1011,-76.15451436118383
1012,-93.48428284333386
1013,-100.97497629621103
1014,-95.29648083229222
1015,-73.33868299809728
1016,-39.191469774776124
1017,-5.374728578663053
1018,15.061652738169869
1019,13.277785887332357
1020,-1.896217856419753
1021,-16.980247655737912
1022,-19.004193111242785
1023,-5.6979442620486225
1024,15.318608413688708
1025,36.02557399823854
1026,50.46306113375249
1027,59.13117802175839
1028,63.79003242261206
1029,66.09973165499287
1030,66.23038259538225
1031,63.33209167754649
1032,56.54496489203848
1033,45.7191077856769
1034,32.31462546105104
1035,18.021622576046866
1036,4.840203343306712
1037,-2.8495284702257777
1038,0.5825304562040401
1039,20.626482996669438
1040,54.97243157808589
1041,88.73047817974657
1042,105.91072433283989
1043,94.51327111999126
1044,64.85821917479734
1045,34.985668681367315
1046,22.49571937386827
1047,31.88847053606878
1048,53.34402100091029
1049,76.3224691500418
1050,91.98391291338885
1051,97.60844976872977
1052,91.79617674124893
1053,73.60719040311233
1054,48.18158687305004
1055,25.049461815944596
1056,13.840910442393579
1057,19.726027508315383
1058,38.10490731453865
1059,63.08764370639983
1060,89.0843300733377
1061,112.9150593485083
1062,132.45992400838804
1063,145.5990160723868
1064,150.1024271024653
1065,143.53024820275823
1066,123.46257001919912
1067,90.15948273914728
1068,55.35107609101942
1069,33.787439343939695
1070,39.07866130736329
1071,66.17483033073768
1072,94.92603430314011
1073,104.8123606529407
1074,84.63389634745181
1075,45.04072789260863
1076,-0.17705866739197518
1077,-37.96937775040169
1078,-60.70614423664847
1079,-63.28727346906089
1080,-40.92268125358896
1081,-0.5822838595086068
1082,35.474001980275716
1083,43.97625906889152
1084,11.394569745247281
1085,-38.43098411629944
1086,-72.69032110621811
1087,-61.33336028009944
1088,-11.090021158932359
1089,45.25977627061002
1090,74.50611155590013
1091,61.719063778080454
1092,27.18871155180568
1093,-4.744866975028344
1094,-13.991594121534945
1095,-5.011392674099625
1096,8.905814113377346
1097,14.790102519240463
1098,7.291548353825419
1099,-11.419773040766813
1100,-38.85378679090718
1101,-71.03041849166038
1102,-99.94959420701889
1103,-116.99124047010991
1104,-115.19528428342164
1105,-101.44165311899997
1106,-89.26027491867717
1107,-91.96107809424029
1108,-112.30399152766222
1109,-139.8089445712758
1110,-163.10586704795787
1111,-172.87468925133726
1112,-166.64534194595217
1113,-143.37775636742663
1114,-103.37186422265222
1115,-60.25759768995886
1116,-35.54488941925047
1117,-50.45367253220138
1118,-105.07388062237078
1119,-168.2354477553763
1120,-206.2483084690357
1121,-195.76239777349474
1122,-154.30765115137547
1123,-109.53400455790324
1124,-87.0013944210259
1125,-88.03975764155075
1126,-98.06903159324975
1127,-102.41915412297021
1128,-96.38006355075959
1129,-91.16169866995733
1130,-99.41399874728813
1131,-129.52690352297213
1132,-172.05035321080868
1133,-212.9642884982586
1134,-239.21865054653244
1135,-250.13338099065732
1136,-253.25842193956487
1137,-256.19371597613645
1138,-261.8192061572936
1139,-265.52483601402855
1140,-262.01054955148174
1141,-249.0762912489754
1142,-236.70200606006438
1143,-237.93763941258112
1144,-263.8331372086541
1145,-303.44844582476435
1146,-332.1635121117415
1147,-325.4982833948143
1148,-278.8527074736121
1149,-216.00673262216878
1150,-162.98030758895584
1151,-138.80338159685925
1152,-138.30590434319856
1153,-151.11782599970138
1154,-167.23909721250857
1155,-180.56966910214396
1156,-187.02949326350972
1157,-182.6785217658471
1158,-167.81670715271684
1159,-147.7140024419532
1160,-128.00036112563612
1161,-113.00573717004045
1162,-103.66008501558827
1163,-100.29335957679905
1164,-102.56551624222084
1165,-105.6165108743844
1166,-102.67629980971651
1167,-87.73483985847452
1168,-69.56208830467767
1169,-70.61800290601605
1170,-113.71254189375577
1171,-198.15566397266775
1172,-276.10732832091344
1173,-293.97749458994804
1174,-216.8961229044162
1175,-97.2331738620469
1176,-12.848608533518927
1177,-34.10238846235916
1178,-141.53447566480463
1179,-257.0348326296844
1180,-302.7334223182643
1181,-256.7902081641332
1182,-174.21515407303013
1183,-115.55822442271347
1184,-118.80938406280438
1185,-154.9385983146076
1186,-182.555832970982
1187,-167.3710542961362
1188,-123.5642290254691
1189,-85.51532436538946
1190,-85.89430799313959
1191,-124.53114805658879
1192,-172.6858131740555
1193,-200.81827243409134
1194,-193.35849539529045
1195,-159.39645208607908
1196,-110.55211300449264
1197,-58.835449117961616
1198,-17.71643186309666
1199,-1.035033145435591
1200,-19.401225339239318
1201,-56.03498128722458
1202,-80.40627430033783
1203,-63.295078157505486
1204,-8.451367105366444
1205,47.54488414197658
1206,66.83370040321824
1207,35.7651060301323
1208,-11.910875092167771
1209,-36.914219544933076
1210,-12.58490437551336
1211,36.647092902949225
1212,73.39179431180492
1213,64.83922140719187
1214,18.56939528035946
1215,-36.97766344203956
1216,-73.98193459762842
1217,-82.84339848797572
1218,-72.00203587829492
1219,-50.657827997087225
1220,-25.65075653582062
1221,0.519196351418941
1222,25.842048048254583
1223,47.457815476403994
1224,59.396515096004805
1225,54.92816290598057
1226,29.67277444442334
1227,-3.3696352110400767
1228,-23.21905144289667
1229,-10.275460093316724
1230,30.611152536188456
1231,73.81079968517952
1232,93.36349413468997
1233,81.90924820762302
1234,60.688073769148104
1235,53.40998222714734
1236,73.7449845325973
1237,106.74309118001474
1238,132.37431220788312
1239,135.04865719907684
1240,123.77613528131587
1241,116.0467551276015
1242,127.58052495666743
1243,154.43745253343513
1244,180.28754516947265
1245,189.14080972347801
1246,179.1572526017244
1247,164.0568797585529
1248,158.28969669684557
1249,168.10570846853443
1250,184.07491967506394
1251,194.98733446790538
1252,194.00295654906586
1253,189.56178917158286
1254,193.39383514004658
1255,214.46909681112265
1256,244.19757609407134
1257,267.03927445127374
1258,268.86419289877813
1259,253.11233200683637
1260,235.28369190045123
1261,230.6282722599226
1262,241.46607232141287
1263,255.36709087751115
1264,259.161326277781
1265,248.32877642936728
1266,234.70943879755032
1267,231.99331040633479
1268,248.41038783904514
1269,274.25066723891905
1270,296.1841443097128
1271,303.4308143162889
1272,299.69067208525485
1273,293.78371200556285
1274,293.7099280291368
1275,298.639313671496
1276,302.55186201240394
1277,299.6475656964885
1278,290.0464169339011
1279,279.43840750096024
1280,273.69352874080323
1281,274.9817715640638
1282,279.9831264495242
1283,284.9375834447874
1284,287.3851321669681
1285,288.0357618033613
1286,288.04946111214485
1287,288.5762184230625
1288,290.7360216381294
1289,295.60885823234275
1290,303.78471525438727
1291,312.71357932735737
1292,318.58543664946774
1293,318.1502729947988
1294,314.52807371402014
1295,314.8588237351305
1296,325.9625075642107
1297,346.49910928616737
1298,367.40861256548305
1299,379.401000646998
1300,378.45625635666147
1301,368.03436210231484
1302,352.19529987446003
1303,335.0990512470562
1304,321.1755973782947
1305,314.8649190114247
1306,318.7369964755235
1307,329.08180968632223
1308,340.8893381470043
1309,349.7795609490422
1310,354.70245677301864
1311,355.63800388944765
1312,353.0161801596132
1313,350.8669630364202
1314,354.9503295652303
1315,370.3162563847327
1316,392.7847197277788
1317,411.7256954222703
1318,416.92915889201686
1319,410.95508515761503
1320,409.10344883734433
1321,426.83422414802044
1322,462.7173849059345
1323,491.45290452772133
1324,486.1007560312755
1325,440.9909120366574
1326,392.77334476702526
1327,383.1180260495403
1328,433.59492731630235
1329,508.74401960529576
1330,563.0452735613089
1331,564.1286594369049
1332,533.3641470933435
1333,505.85170600156744
1334,510.04130524316497
1335,535.4329135113148
1336,557.3764991117896
1337,554.6220299639172
1338,534.7994736015935
1339,520.0287971742437
1340,530.6599674478457
1341,563.2129508059334
1342,598.0177132505942
1343,615.8842204035009
1344,612.4824375069329
1345,597.0323294247919
1346,579.0938606436557
1347,563.7569952738086
1348,550.8216970502908
1349,539.7379293339545
1350,528.0856551125144
1351,510.56483700162244
1352,481.6454372459284
1353,443.7074177201812
1354,415.28073993027283
1355,416.87536501435716
1356,455.0012537439434
1357,498.6783665249841
1358,510.6766633989846
1359,468.4861040441265
1360,401.3866477763786
1361,350.0782535506278
1362,345.5508799617983
1363,374.03448524600753
1364,408.879027281695
1365,426.67446359077076
1366,423.59075133978513
1367,403.0178473410797
1368,368.725708053953
1369,327.5542895858471
1370,287.7235476935075
1371,257.4234377841931
1372,243.9739149168454
1373,254.2049338033048
1374,293.64644880950436
1375,349.9984139566841
1376,398.2607829226108
1377,414.5835090427918
1378,400.4965453117111
1379,379.50984438406704
1380,374.9333585760087
1381,386.55703986638036
1382,389.7808398979814
1383,359.744709978826
1384,301.8286010834072
1385,258.80246385397004
1386,275.0062486017814
1387,355.21990530843505
1388,446.4833836271155
1389,491.65663288392716
1390,469.13960207916716
1391,418.22223988865153
1392,384.0344946650239
1393,388.69631443909384
1394,408.18764692113473
1395,413.0284395022536
1396,388.8286392557002
1397,356.2781929382327
1398,341.027046991474
1399,355.395147543255
1400,375.78244040899335
1401,372.5988710930633
1402,331.2143847901698
1403,283.09892638674137
1404,268.58244046231266
1405,312.8848712909239
1406,388.07616284253527
1407,454.52625878442086
1408,481.8151024825911
1409,476.102637003225
1410,452.6588051140898
1411,426.4135492859714
1412,410.8368116941292
1413,418.99853421973785
1414,457.9286584513393
1415,504.97712568631323
1416,528.2738769323314
1417,503.9988529088423
1418,452.0019940485472
1419,406.92324049888157
1420,396.6725321235226
1421,409.4198085038752
1422,418.6750089405796
1423,402.8880724550236
1424,372.0989377908736
1425,348.7975434155833
1426,352.12382752193116
1427,377.92772802956824
1428,412.3091825865413
1429,443.41812857086734
1430,474.6845030920704
1431,516.2882429927613
1432,574.7392848502022
1433,628.1875649778813
1434,641.693019427099
1435,588.005583988559
1436,501.7651941939548
1437,447.2317853175882
1438,479.33529237797666
1439,574.8156501394515
1440,672.0427931137965
1441,715.756655561876
1442,706.5671714952696
1443,672.9042746779032
1444,642.2378986277163
1445,631.9379766183065
1446,654.294441680584
1447,717.2572266044626
1448,792.6362639405124
1449,833.9714860016447
1450,801.9728248648207
1451,718.1002123727176
1452,634.0835801354478
1453,595.7828595322553
1454,598.847981713252
1455,614.3888776011154
1456,616.6354778928198
1457,605.9977130613843
1458,595.3955133576073
1459,596.4688088118037
1460,610.4975292355757
1461,634.0516042235631
1462,662.3409631552149
1463,681.1855351965642
1464,672.2552493020103
1465,621.5300342161045
1466,544.4998184753313
1467,468.9545304099447
1468,417.9840981457364
1469,384.32844960588045
1470,348.87751251272493
1471,296.9912143896636
1472,240.7294825629142
1473,201.86224416341065
1474,196.8694261286255
1475,213.69095520442352
1476,230.666757946934
1477,229.90676072441784
1478,212.2608897191276
1479,184.29907092921712
1480,152.40123017060068
1481,122.05929307887163
1482,98.55618511118519
1483,85.86383154818941
1484,82.83115749591707
1485,87.03708788772747
1486,95.50854748622805
1487,103.32546088520212
1488,105.14775251157698
1489,97.30534662734317
1490,81.30616733153147
1491,59.651138562167034
1492,35.283184098254424
1493,12.320227561725915
1494,-4.924807580538982
1495,-14.754998014752346
1496,-21.591420578206453
1497,-30.664152257264504
1498,-41.03127018536179
1499,-39.311851640972236
1500,-10.841974045606548
1501,41.3172850382507
1502,83.52284790915292
1503,79.6566367287578
1504,24.12557352386648
1505,-43.6764198115161
1506,-81.49042151409412
1507,-75.46550994924837
1508,-47.28276360890595
1509,-20.41326110949194
1510,-6.0380811898157845
1511,-2.3663027089733077
1512,-6.952004644241242
1513,-16.681266088957273
1514,-27.84516625040851
1515,-36.94478444768174
1516,-43.61320010955387
1517,-49.79049277231752
1518,-57.057742077658986
1519,-62.649027770496104
1520,-61.178429696785315
1521,-48.24502780139301
1522,-27.856902125888155
1523,-8.123132806371359
1524,3.1551999287312356
1525,0.3090157608530717
1526,-21.49776571649818
1527,-63.22722499552583
1528,-106.88344265193882
1529,-128.65649934269823
1530,-111.46647580380522
1531,-63.753452848050074
1532,0.009488637229878805
1533,62.73926769242644
1534,99.86580328789205
1535,85.53901432623934
1536,16.891819644593852
1537,-57.692861983101466
1538,-83.31611184381109
1539,-43.64201128309651
1540,11.422358297182654
1541,26.40491544118231
1542,-13.301421358606603
1543,-68.26473365903439
1544,-96.66410306394027
1545,-88.82361122183829
1546,-67.69633982355299
1547,-56.444370599872855
1548,-59.08778531917051
1549,-64.8556657850495
1550,-63.38409383397084
1551,-52.41715133284379
1552,-34.41492017667042
1553,-12.582482286106824
1554,5.097080394907607
1555,8.574685901576231
1556,-8.715747749323782
1557,-36.01630255703094
1558,-57.20106053435484
1559,-63.16610370523995
1560,-69.43151410231076
1561,-96.88937376442482
1562,-152.90776473419646
1563,-211.39276905553743
1564,-241.36646877117346
1565,-231.30894592015466
1566,-204.0272825353768
1567,-185.44556064106655
1568,-186.2348622502832
1569,-197.77526936240065
1570,-210.49686396059042
1571,-220.5147280092824
1572,-229.10494345164443
1573,-237.20859220702187
1574,-239.8027561683939
1575,-228.03451719982695
1576,-195.43795713389045
1577,-153.61915776909154
1578,-122.23220086729816
1579,-116.30816815114486
1580,-128.39614130144946
1581,-144.28820195459593
1582,-150.82843169993612
1583,-138.21991207716928
1584,-97.41472457371492
1585,-34.14695062208557
1586,14.717328402750354
1587,9.210031186026754
1588,-49.04592352418513
1589,-99.32661691430258
1590,-79.52513010255097
1591,3.6074558636773872
1592,77.00706001053368
1593,71.98260144040069
1594,3.3679993345831463
1595,-59.931827043979865
1596,-58.74895834800736
1597,-8.271475143157659
1598,44.772542094709934
1599,64.13701298226442
1600,59.269857231440255
1601,51.860994652197405
1602,56.80634515527527
1603,70.77482875494934
1604,87.42636557182232
1605,100.84387583559328
1606,105.83027988783579
1607,97.69949818481291
1608,83.87845130026471
1609,85.06905992822794
1610,119.83324488584913
1611,169.34492711620442
1612,188.40902769114473
1613,140.92946781412684
1614,61.36616882306589
1615,15.411052193181604
1616,49.42903953987479
1617,126.64405262158834
1618,188.16501334269014
1619,198.81184375634803
1620,183.3914660674418
1621,175.72680263544498
1622,189.5567759773421
1623,207.69630877054624
1624,211.19732385581665
1625,199.77074424019338
1626,190.88049309993585
1627,200.8374937834651
1628,226.86266981432163
1629,255.0409448941282
1630,274.66524290555026
1631,293.4974879152851
1632,325.63660417703613
1633,377.240516134505
1634,429.73714842440495
1635,459.88542587944175
1636,457.6062735313517
1637,436.4666166139177
1638,412.4243805659953
1639,399.02449103455365
1640,407.26087387771804
1641,445.8464551678335
1642,499.2661611945023
1643,536.7399184676833
1644,534.4516537207419
1645,510.36729391354856
1646,497.4167662355667
1647,516.5039981089467
1648,550.9759171916448
1649,577.0314513805242
1650,584.4505288144828
1651,586.4930778775943
1652,598.2450272022306
1653,623.1203056722079
1654,652.9798424259552
1655,678.6255668596568
1656,685.6314086304355
1657,656.6192976595248
1658,581.8481641354465
1659,488.9959385172133
1660,417.10655153752305
1661,391.65593420596815
1662,403.57301781225397
1663,438.2997339294052
1664,477.95401441703143
1665,500.0777914245318
1666,483.87499739435407
1667,438.7575650652616
1668,397.28442747557347
1669,387.0605179664544
1670,398.2097701851799
1671,405.4081180884259
1672,389.4714959455632
1673,351.92083834196455
1674,298.6780801823006
1675,243.1281566938742
1676,211.4660034299286
1677,229.11355627299054
1678,279.94875143821264
1679,309.4955254767192
1680,270.9118152789524
1681,191.92155807806193
1682,136.62369145324374
1683,149.21415333316327
1684,195.75788199929775
1685,223.61681608936487
1686,204.1088946007112
1687,154.35505689372803
1688,96.39524269528556
1689,46.325392102129626
1690,14.365445584346162
1691,8.929343988793335
1692,24.948028542550674
1693,50.47044085638299
1694,72.99852292821015
1695,78.17921714657496
1696,51.340466294135695
1697,-4.976786448851271
1698,-55.92359750101605
1699,-64.76502287639232
1700,-31.271118180886333
1701,10.193061391248193
1702,27.35146106094544
1703,15.487026467835676
1704,-17.13429632615771
1705,-59.956560833310505
1706,-94.78982013649329
1707,-101.95912688563112
1708,-76.87853329411337
1709,-39.725091135196635
1710,-12.571851738421174
1711,-10.316865986005723
1712,-42.06618430922572
1713,-110.81485668481218
1714,-182.42193263129957
1715,-208.41946120541616
1716,-165.79549099841643
1717,-101.42707013244399
1718,-73.04724625686868
1719,-97.31106654461655
1720,-138.24457768848515
1721,-159.25082589747763
1722,-155.16785689309472
1723,-140.10871590564057
1724,-127.75744767051401
1725,-128.56009642448953
1726,-151.9587059019923
1727,-191.5723193313661
1728,-210.62197943113551
1729,-171.7337284062487
1730,-93.34860794432643
1731,-43.932659211890495
1732,-79.46792285059746
1733,-160.2494389734502
1734,-207.4602471610142
1735,-173.97138645760697
1736,-100.42389536751216
1737,-41.54081185113864
1738,-19.144173321221388
1739,-14.736016638977162
1740,-9.424378110268663
1741,-4.501293481751418
1742,-12.488797937034178
1743,-42.03492609280056
1744,-86.80371199493493
1745,-136.8361891146542
1746,-175.14139034461277
1747,-173.6783479950036
1748,-107.71009378966028
1749,-9.35265886212892
1750,49.23092624822857
1751,16.58363160019144
1752,-56.15457214540584
1753,-87.8127137217034
1754,-47.59282125188838
1755,-1.1219222452036774
1756,-20.615043593003975
1757,-103.62621156475598
1758,-185.59345180405762
1759,-210.91578932464654
1760,-185.61124850639044
1761,-137.1798530912829
1762,-89.06562617940108
1763,-55.74459022490646
1764,-49.70176703198376
1765,-66.70617775080609
1766,-87.08984287348267
1767,-93.97778222998295
1768,-91.60301498408262
1769,-92.25555962927501
1770,-101.21443398468728
1771,-107.31765519098099
1772,-97.6482397062482
1773,-72.45220330190386
1774,-44.66656105855964
1775,-26.921327361899785
1776,-26.467515898537386
1777,-48.42113965187218
1778,-89.04321089793484
1779,-123.8857412012294
1780,-126.86874141055159
1781,-100.5082216548144
1782,-74.3751913388669
1783,-74.37765913928524
1784,-97.46763300017847
1785,-129.72012012897176
1786,-154.4881269921798
1787,-149.2786593111823
1788,-92.83072205798726
1789,-1.301319450979463
1790,76.48554504933873
1791,98.91286874459911
1792,69.6136497028483
1793,7.456886762828617
1794,-64.5194204617328
1795,-115.29427157782811
1796,-115.06766540886656
1797,-66.22159999034648
1798,4.486927434447352
1799,71.17292041879773
1800,114.85338331687853
