800,255.30233547735588
801,269.8963603516295
802,257.54280626607033
803,225.5999157987917
804,191.45293089060215
805,172.60609284629936
806,180.5166423359915
807,205.70281939638517
808,234.1718634320896
809,252.19801321691557
810,255.2175068951583
811,250.163581982888
812,244.67947536923748
813,245.37542331769146
814,250.8066614673553
815,255.7134248342445
816,254.83594781254942
817,245.5024641759046
818,231.60520707867363
819,218.05540905719135
820,209.5263020310431
821,206.00211730431147
822,203.14408556684612
823,196.45343689549918
824,182.91240075538553
825,167.21820600113097
826,156.5850808780997
827,158.15725302365536
828,173.69494946837222
829,195.70339663729828
830,215.77182035114856
831,226.0574458275678
832,224.8884976823265
833,214.42519993054702
834,196.87877598793239
835,175.19344867196014
836,154.66844020309873
837,141.07297220601868
838,139.90826571078287
839,149.43154115405923
840,159.9940183803028
841,161.55091664295287
842,146.36445460561845
843,120.58785034326684
844,95.56232134339189
845,82.58108450722102
846,88.36035615083892
847,111.10135200640434
848,148.07128722329435
849,196.06437636926057
850,246.3238334316011
851,286.5538718183125
852,304.41870435922647
853,292.92254330717697
854,261.9756003391303
855,224.80408655732936
856,194.26021249042424
857,174.2611880946115
858,159.58422275475277
859,144.59552528550557
860,125.20630393243118
861,105.48576637314181
862,92.20311971836236
863,92.04657051308459
864,106.66932473764791
865,129.774587808839
866,154.36456458100292
867,174.00745934710903
868,187.29447583986803
869,195.41081723279603
870,199.55668614129536
871,201.38228462374354
872,203.55781418254264
873,208.93347576521774
874,220.10946976543892
875,236.16599602411588
876,253.46325383043768
877,268.32144192292435
878,278.12075849047505
879,284.11140117340074
880,288.38356706447485
881,292.9674527099596
882,298.06325411064245
883,301.89116672285127
884,302.5613854594776
885,298.89410469099676
886,293.36951824647804
887,289.64781941459114
888,291.38920094461355
889,300.963855047421
890,318.9719733964903
891,345.793747128886
892,380.95936684624576
893,417.2090226157634
894,444.3029039711637
895,452.0211999136809
896,439.1240989130147
897,421.7817889083035
898,418.164457309078
899,443.98229099622586
900,489.5354763229261
901,530.2441991156102
902,541.328644674888
903,511.22899777649764
904,461.445442672235
905,418.6181630908577
906,407.45734223905856
907,425.2931628023307
908,449.3458069459102
909,456.35545631567766
910,432.67229203906936
911,394.9464947259585
912,365.8082444695756
913,366.68772084738157
914,396.6651029219538
915,434.9305692418875
916,459.98429784262953
917,456.2264662474063
918,430.68725146804354
919,395.84683000585574
920,363.96537785249166
921,341.6330704907905
922,329.6100828956387
923,328.38658953479535
924,338.0127643697451
925,356.7187808565359
926,382.2048119465926
927,412.0810300875528
928,441.2476072240843
929,461.4947147987041
930,464.40252375258024
931,444.6512045263371
932,412.710927060878
933,384.051860798143
934,373.8041746819363
935,384.55803715868933
936,402.86361617825787
937,414.19107919468115
938,406.68059316697327
939,383.16232455987483
940,351.5264393446232
941,319.6531029997059
942,294.6624805116189
943,282.71473637560484
944,289.8800345964064
945,318.97853868899256
946,353.8604116793067
947,371.6158161049789
948,349.744914016057
949,286.88786697572687
950,211.05483606102462
951,152.4359818635403
952,135.37146449012653
953,149.7214435635924
954,172.8560782234108
955,182.47552712638935
956,171.00994844736488
957,151.27949987987995
958,137.60433863686012
959,141.20462145127385
960,155.73050457680984
961,168.582143788537
962,167.3996943835391
963,149.2033111815781
964,123.48314852575459
965,100.59936028311495
966,88.79209984531008
967,84.99152012921695
968,82.34777357756138
969,74.16101215954222
970,59.931387371458186
971,46.739050237281845
972,42.154151309303415
973,51.01684066872076
974,64.87726792621106
975,71.21558222255771
976,57.971932229207596
977,24.736466148866384
978,-15.780668283934574
979,-50.16932380225262
980,-67.83935360619762
981,-70.16061136233475
982,-61.70295120316041
983,-47.07622772652758
984,-32.28029599511683
985,-24.63501153587822
986,-31.540230339523987
987,-57.09580885996729
988,-93.50160401380344
989,-130.29747317980036
990,-157.2332741983828
991,-167.61886537109422
992,-157.78410546012492
993,-124.14885368778778
994,-68.6629697360404
995,-9.646313745966836
996,31.611253682687675
997,35.47987149199798
998,4.3096781663534784
999,-44.29918826709036
1000,-92.44659023793429
1001,-126.51239063206413
1002,-142.8864527912192
1003,-139.41864051251105
1004,-113.96881804800068
1005,-66.31685010423462
1006,-9.332601841821088
1007,38.74406112500401
1008,59.89327272880655
1009,48.965166449384924
1010,19.279875314177843
1011,-14.392468101317718
1012,-39.24173167313711
1013,-52.98778372844754
1014,-56.90049304515378
1015,-52.39972885148745
1016,-44.57536082563638
1017,-42.85725909534085
1018,-56.9252942375424
1019,-91.80933727797856
1020,-132.81925969083568
1021,-160.07493339836947
1022,-154.6962307705562
1023,-118.42302462472435
1024,-72.10518822521408
1025,-37.302595283026676
1026,-27.41511995548899
1027,-29.96263684590849
1028,-27.455021003246657
1029,-3.842147921797732
1030,37.25610645915549
1031,78.45986575562165
1032,102.09925313925305
1033,98.18439133762695
1034,74.14540263456365
1035,39.82240887040825
1036,5.005531442346182
1037,-21.01510869532467
1038,-29.17939103089884
1039,-10.617195494984117
1040,32.2715975397532
1041,79.00710725889257
1042,107.47945240650006
1043,100.76875128540269
1044,70.88512175744108
1045,39.81868124371067
1046,28.96954672483116
1047,42.5078347411727
1048,65.80366139309263
1049,83.21714234119463
1050,84.79839280651322
1051,80.64752757078531
1052,85.27466097664
1053,111.73990692782718
1054,152.57337888942493
1055,185.49518988803175
1056,187.91545251201023
1057,152.41427891163767
1058,104.69178079932135
1059,74.83806944979187
1060,87.91325570027766
1061,130.9574499506798
1062,173.6807621637745
1063,186.2633018653487
1064,161.6651781443852
1065,123.53649965322802
1066,97.70737460773489
1067,103.49791078742783
1068,132.8082155356533
1069,170.28839575970778
1070,201.138557930999
1071,219.79880808516828
1072,228.16925182223895
1073,228.35999430671654
1074,221.281140267738
1075,205.0727939991848
1076,177.45505935979236
1077,137.3680397732569
1078,93.04183822835148
1079,56.97655727903475
1080,41.46229904453139
1081,48.279165209429266
1082,65.62725702379612
1083,80.75667530322062
1084,84.88752042893248
1085,84.33989234785804
1086,89.03389057271306
1087,107.69961418204366
1088,133.07716182032527
1089,146.59663169799933
1090,129.51812159153815
1091,77.69172884351428
1092,14.957550362605616
1093,-31.584317376295076
1094,-39.983778332096335
1095,-17.83073689743469
1096,16.594902101343905
1097,45.32323340421317
1098,57.38435131750521
1099,48.6783497139204
1100,15.435322032548356
1101,-40.25463872111504
1102,-100.65143997515952
1103,-145.44498959124576
1104,-157.0251958646113
1105,-139.9619675240683
1106,-109.55521373201009
1107,-81.0148440844132
1108,-64.48076861085065
1109,-63.7228977745126
1110,-82.06114247221558
1111,-118.67541403443465
1112,-158.50562422532494
1113,-183.50168524275068
1114,-178.06350971832035
1115,-152.18101071742603
1116,-130.85410173927266
1117,-138.91269671693772
1118,-181.27671001740782
1119,-233.45605644162606
1120,-268.5306512245679
1121,-267.19041003526763
1122,-239.9652489768996
1123,-204.7450845868443
1124,-178.5298338367411
1125,-167.26941413257555
1126,-169.76374331474108
1127,-184.63273965812914
1128,-208.3063218721927
1129,-233.7444091010493
1130,-253.58692092355886
1131,-262.87377735341397
1132,-266.6348988392365
1133,-272.51020626466743
1134,-287.28962094847884
1135,-307.67306464467583
1136,-323.63045954258996
1137,-325.0717282669957
1138,-307.62679387822936
1139,-275.9155798722986
1140,-235.35801018100028
1141,-193.32400917203995
1142,-164.86350164915893
1143,-166.9964128522697
1144,-213.87266845756858
1145,-288.45219457768144
1146,-354.22491776179777
1147,-374.9807649957984
1148,-343.78966370242415
1149,-295.74154174138494
1150,-269.18632740953217
1151,-287.97394944099324
1152,-325.8443370073419
1153,-345.6474197177304
1154,-315.3731276190647
1155,-249.8013911961607
1156,-188.64214137189265
1157,-170.83530950738714
1158,-201.79082740216836
1159,-246.72862729432563
1160,-268.5086418607207
1161,-246.5708042171027
1162,-205.95504791835083
1163,-179.4913069586164
1164,-193.64951577150714
1165,-231.6496092302841
1166,-258.75152264804456
1167,-242.0551917779121
1168,-187.3305528132205
1169,-136.04754238772148
1170,-130.84609757576618
1171,-185.99615589252426
1172,-258.81765529415316
1173,-299.7305341780284
1174,-272.41473138293986
1175,-202.4501861892968
1176,-133.46683831932933
1177,-105.77462793731866
1178,-119.39349564978875
1179,-148.08338250573615
1180,-165.53422999683607
1181,-162.11598005767337
1182,-151.0885750659454
1183,-147.3919578426994
1184,-160.63607165255053
1185,-184.62086020391325
1186,-210.2662676492073
1187,-229.0422385851234
1188,-236.38871805281815
1189,-229.43565153817326
1190,-205.78298497201104
1191,-172.66066473033788
1192,-145.57863763458954
1193,-140.15685095184563
1194,-158.33525239509981
1195,-177.85379012347767
1196,-173.96241274249223
1197,-131.7110693042905
1198,-73.07970930787815
1199,-28.768282699402334
1200,-25.21673987235954
1201,-53.015031667880976
1202,-84.73310937495808
1203,-93.81092473071112
1204,-77.36842992062702
1205,-56.0955775788334
1206,-51.592320788329744
1207,-73.06861308125917
1208,-105.40440843917168
1209,-130.59966129326494
1210,-135.8243265246565
1211,-128.87835946463565
1212,-122.871715894933
1213,-128.78435204797643
1214,-139.26622460715407
1215,-137.5172907070846
1216,-107.6375079338668
1217,-56.746834325360396
1218,-14.725228371446065
1219,-12.252649014286362
1220,-58.459055648596404
1221,-122.26440812191686
1222,-168.11866673487384
1223,-169.70179224144886
1224,-134.643745849251
1225,-78.40448921977986
1226,-16.213984468706258
1227,38.89780583387255
1228,74.81091866314819
1229,80.3253905393376
1230,59.421257527417765
1231,28.97855523684302
1232,6.187318821283043
1233,1.8375829783472
1234,16.829381949310118
1235,51.22274951885447
1236,99.77771901477718
1237,142.03432330774194
1238,154.83259481099412
1239,122.16256548008641
1240,67.50426681261888
1241,27.9177298479608
1242,36.81298516698553
1243,86.60006289179364
1244,143.98899268544665
1245,176.16980375169805
1246,176.2025248347254
1247,165.50718421885358
1248,166.8838097282969
1249,190.81242872688745
1250,224.10306811779446
1251,250.89575434329163
1252,260.4705133844527
1253,259.9273707609045
1254,260.2663515305703
1255,270.3374802893868
1256,285.4507811710464
1257,295.6062778467476
1258,291.7639935249299
1259,277.8139509509929
1260,266.36617240706073
1261,269.8306797117166
1262,288.61749421973764
1263,309.4966368218429
1264,318.55812794444864
1265,311.1319875493955
1266,300.0082351337114
1267,299.97688972934884
1268,319.64796990294235
1269,347.6314937555471
1270,368.4274789224164
1271,368.9559425727257
1272,349.9069014093511
1273,316.8303716685987
1274,275.80636912000955
1275,238.17490906606145
1276,218.42600634198243
1277,230.04967531547118
1278,265.73592988649943
1279,298.52478348705336
1280,301.0062490809032
1281,265.72033916340115
1282,215.0170657612034
1283,173.68644043210588
1284,157.63847426476423
1285,161.56317787851003
1286,176.97056142310794
1287,195.9706345785653
1288,212.9034065548767
1289,222.64888609185437
1290,221.7670814588855
1291,217.59800045474185
1292,221.7816504073653
1293,244.73803817366206
1294,282.67717013930996
1295,322.87905221855544
1296,353.1036898540169
1297,373.01108801649934
1298,393.66125120477955
1299,426.27418344545003
1300,468.56988829270995
1301,498.99836882819363
1302,494.5896276607873
1303,447.4636669264528
1304,382.3304882880584
1305,328.1500929351878
1306,305.0324815840104
1307,303.6376544770701
1308,308.5556113831626
1309,307.0763515971612
1310,300.4798739398502
1311,294.526176757794
1312,293.965257923177
1313,295.6871148336577
1314,292.781744412232
1315,279.15914310709195
1316,259.48930689148983
1317,245.99223126360084
1318,250.55791124641473
1319,273.4763413875953
1320,303.547515759361
1321,329.13142795837484
1322,341.4980711056287
1323,336.0074378463287
1324,308.39952034980706
1325,262.4443103094036
1326,217.86179894237466
1327,196.32197698980235
1328,211.00483471651205
1329,251.0703619109736
1330,301.4485478852239
1331,349.20938147480956
1332,390.0728510386907
1333,421.9989444591847
1334,443.2376491419127
1335,453.7889520157187
1336,454.3428395326391
1337,445.98929766784386
1338,433.4583119195868
1339,423.27986730917473
1340,421.7539483809287
1341,431.660539202152
1342,453.3996233631133
1343,486.9911839770175
1344,525.5552036799891
1345,555.9616646310769
1346,565.1605485122254
1347,550.0618365283026
1348,519.3755094070784
1349,482.56154739925114
1350,450.29993027846285
1351,435.21063734130985
1352,449.97364740738703
1353,492.5789388193025
1354,530.9464894427238
1355,529.336276666414
1356,471.8082774022987
1357,395.63246808549775
1358,346.9388246743947
1359,355.64732265071507
1360,394.5679370195776
1361,423.9406423095825
1362,414.19541257290257
1363,382.82222138535326
1364,360.8610418465105
1365,373.4618465797994
1366,410.7646077326026
1367,449.89929697639127
1368,469.995885506818
1369,465.7543440438749
1370,439.20464283199726
1371,393.696751640231
1372,345.91063976236
1373,320.21627601707587
1374,338.42362874811806
1375,385.9126658244568
1376,422.1133546404744
1377,408.26566211611316
1378,348.9995546970931
1379,286.44499835510214
1380,262.66195858798346
1381,286.45040041995344
1382,332.11028840182735
1383,372.7615866112137
1384,396.74425865277954
1385,411.188267658461
1386,424.31357628772093
1387,439.33014672779973
1388,452.26794069396783
1389,458.5769194298082
1390,456.18704370747764
1391,447.2482738279923
1392,434.37056962152565
1393,420.40389044769836
1394,408.7881951958898
1395,403.01344228554444
1396,405.66958966650964
1397,417.3265948193475
1398,438.2044147556844
1399,463.3730060185608
1400,473.9023246827601
1401,448.57232635522087
1402,379.582966175356
1403,300.6141988154686
1404,253.3059784811212
1405,264.46825891154367
1406,308.5709933800281
1407,348.6341346943573
1408,357.74763519721455
1409,349.31144676661825
1410,346.70552081638016
1411,366.75980829652144
1412,397.05425969375756
1413,417.0088250319659
1414,411.4734538726443
1415,392.128095315411
1416,378.9126979985049
1417,387.25721009927474
1418,408.2215793347041
1419,424.5857529619352
1420,422.8896777787868
1421,411.90330012432787
1422,408.60656587939593
1423,427.0794204671838
1424,463.05180885379195
1425,504.98367554883043
1426,542.4349646059964
1427,572.355619623675
1428,594.8555837455679
1429,611.2347996612898
1430,631.7032096070179
1431,670.380755366139
1432,737.4773782698794
1433,813.1430191979871
1434,863.6776185794079
1435,861.1011163929452
1436,823.9834521679823
1437,793.1445649851667
1438,804.0443934771502
1439,846.8328758292828
1440,889.4699497803795
1441,903.2955526234527
1442,889.6396212064792
1443,864.7720919331641
1444,844.5229007637281
1445,839.9519832157021
1446,859.7292743647267
1447,909.5747088453645
1448,970.3182208519356
1449,1010.3197441393513
1450,1002.18921202397
1451,955.336557384444
1452,897.4717126626128
1453,853.6846098643691
1454,826.3751805605752
1455,806.853355887948
1456,786.9390665500105
1457,763.3422428179929
1458,735.0928145317994
1459,702.310711100954
1460,673.3758615055776
1461,660.4281942973666
1462,672.3376376005835
1463,693.7141191130686
1464,698.5675661072582
1465,665.0179054312193
1466,599.7650635096797
1467,521.4589663451061
1468,447.59953951876014
1469,388.1167081917847
1470,349.9903971063068
1471,336.79053058653335
1472,332.1470325398823
1473,312.3998264581187
1474,261.81883541849857
1475,207.4939820849304
1476,190.93518870916523
1477,238.83237713195922
1478,305.26546878430054
1479,322.0343846886062
1480,243.1490454599716
1481,120.70937130739912
1482,34.02528203506154
1483,39.10669704356769
1484,99.98353533126101
1485,157.94571549550164
1486,169.1531557339913
1487,142.04577384610457
1488,96.48348723422168
1489,50.72621290508869
1490,18.14386747118624
1491,11.166367152123712
1492,31.08362777602997
1493,49.27556478097176
1494,32.22209321638911
1495,-29.416872255476846
1496,-88.7414173581019
1497,-91.05162819922043
1498,-17.597591269326585
1499,78.20060655981433
1500,134.6428780367114
1501,122.8491355316637
1502,70.71929103831826
1503,11.603256175234492
1504,-30.539057812537067
1505,-45.62774005184838
1506,-25.18288003985799
1507,20.255432357629616
1508,56.42710690776403
1509,48.962053012350225
1510,0.13017970949840674
1511,-49.08860432467009
1512,-57.94439077431525
1513,-24.827271682159335
1514,17.292660552258894
1515,36.07531317433859
1516,24.91059307620162
1517,-3.9315932015342696
1518,-37.6013394679303
1519,-62.16873987991676
1520,-62.98388894044547
1521,-29.15688149662492
1522,19.55218726213934
1523,48.453221806043075
1524,29.21612626679962
1525,-25.249195560440057
1526,-86.01284021514766
1527,-127.92490456945052
1528,-144.8154858261587
1529,-136.29468151676156
1530,-104.97258949941715
1531,-64.77930795693283
1532,-32.29493539469877
1533,-18.169570638621735
1534,-15.743312833066739
1535,-15.256261438715228
1536,-10.578516230476453
1537,-3.6601772953272302
1538,2.3886549698290764
1539,3.2778798603521864
1540,-7.422603633953258
1541,-36.03289682661671
1542,-77.33310133226951
1543,-110.83331906440799
1544,-115.94365223309796
1545,-94.89420334272836
1546,-73.1050751896637
1547,-75.38637085993832
1548,-101.83819372691323
1549,-133.45064744890988
1550,-151.83383596682324
1551,-150.4278635017199
1552,-129.52283455242105
1553,-91.7588538930595
1554,-55.74602657061769
1555,-46.89445790244281
1556,-82.54425347375218
1557,-139.50551913511663
1558,-182.05836099990665
1559,-183.50288544174327
1560,-148.99919909192067
1561,-90.66740883679086
1562,-25.467621815152597
1563,17.63005458438238
1564,8.125512726077432
1565,-59.431355270287895
1566,-146.19065752666756
1567,-209.47250240406174
1568,-231.2169984997563
1569,-224.6342546445594
1570,-204.6043799000181
1571,-179.587483555606
1572,-152.27367512589808
1573,-125.18306434771512
1574,-101.36576117727054
1575,-84.21187578724857
1576,-77.01151856390788
1577,-82.33480010415587
1578,-102.42183121255948
1579,-137.47272289839748
1580,-177.97758637264815
1581,-211.5265330449547
1582,-227.7196745205929
1583,-222.63712259740532
1584,-193.72898926270136
1585,-146.6553866901486
1586,-104.55642723665187
1587,-92.25222343916721
1588,-109.8628880115557
1589,-122.4185338413572
1590,-94.34927398657601
1591,-35.96522167243165
1592,-1.7864902880828595
1593,-42.023193383342004
1594,-134.98544466535532
1595,-212.44335799525652
1596,-216.34704738481196
1597,-165.25662699303393
1598,-110.23221112275496
1599,-90.70391421721433
1600,-95.68185085659024
1601,-100.63613575451564
1602,-89.31688375457816
1603,-67.67420982679141
1604,-45.28822906403366
1605,-28.76905667848223
1606,-19.64680799800408
1607,-18.781598462523107
1608,-21.523543620392957
1609,-17.202759124687873
1610,3.780639270464235
1611,32.83653571362083
1612,48.52481425978476
1613,34.11535887415994
1614,9.218053435952243
1615,9.502781742205116
1616,58.05942751164184
1617,123.84787438854073
1618,161.42800594663822
1619,146.99970569304242
1620,111.52285707220653
1621,93.9873434698784
1622,105.73304821712372
1623,115.44985459434974
1624,90.08764583534685
1625,37.17630513138829
1626,2.785715635325687
1627,28.815760465713538
1628,98.46632271099043
1629,160.71728543364225
1630,174.55853167442547
1631,156.95994445660472
1632,144.81140679020973
1633,161.72280167634017
1634,189.98401211147757
1635,204.01492109182618
1636,193.73541161769936
1637,176.8153666979033
1638,173.28466935417418
1639,189.49320262563924
1640,217.11084957327694
1641,247.25749328445272
1642,272.7830168774417
1643,287.58730350599217
1644,287.20023636393125
1645,276.4416986897668
1646,263.44157377136435
1647,254.72974495059316
1648,251.71609562805315
1649,254.83050926780197
1650,264.0228694021189
1651,278.4830596362972
1652,297.2909636534532
1653,319.3764652193968
1654,343.53944818747914
1655,368.6997965035316
1656,395.0173942107722
1657,423.3221254547916
1658,451.10387448852816
1659,459.5125256773081
1660,424.71796350389195
1661,341.51007257355195
1662,252.0187376191916
1663,205.03384350647866
1664,215.49527523902543
1665,251.55291796358324
1666,279.55665697528457
1667,290.68637772289003
1668,295.13196581409284
1669,301.64330702083134
1670,305.7702872846494
1671,297.63279272208456
1672,269.38070963006066
1673,220.0639244913582
1674,150.32232398008273
1675,72.79579496715633
1676,20.794224525876416
1677,27.507499937473767
1678,81.73550869671817
1679,131.32813851754509
1680,129.77527733872193
1681,89.69681332954315
1682,52.58263489555611
1683,47.42263068432658
1684,54.09668959121336
1685,40.74470076520993
1686,-4.973446385218267
1687,-58.19786218622903
1688,-90.7586566927057
1689,-96.27593968228393
1690,-89.86982064937547
1691,-86.6404087991632
1692,-93.26781304152792
1693,-112.16214198499256
1694,-143.43350393057335
1695,-178.51200686567063
1696,-206.68775845785422
1697,-224.67086604865653
1698,-243.0414366473433
1699,-272.89957692459575
1700,-304.6153932062389
1701,-308.88899146684525
1702,-261.07047732338833
1703,-179.65995602880685
1704,-103.4775324655584
1705,-60.133311139132275
1706,-37.31739617153289
1707,-14.349891294721601
1708,10.569100155962587
1709,8.16947524844727
1710,-50.93886853944787
1711,-150.86603331328297
1712,-239.07212075529424
1713,-269.88723211763136
1714,-247.6314682155371
1715,-195.90492942054334
1716,-138.90771565358773
1717,-102.30992637810414
1718,-111.32166059310111
1719,-163.3830168261702
1720,-220.3340931264811
1721,-245.35498705773716
1722,-242.16579569109126
1723,-239.3066155980323
1724,-256.88754284321294
1725,-275.9886729772734
1726,-267.12010102961904
1727,-223.38192150113173
1728,-181.20422835690079
1729,-179.93711501885628
1730,-218.95067435840974
1731,-261.764998689041
1732,-274.43017975884686
1733,-248.69630874305767
1734,-186.81347623650254
1735,-102.21177224606981
1736,-38.88128618308838
1737,-44.512106855709135
1738,-112.18432246121301
1739,-168.03802057831308
1740,-143.80328815939902
1741,-65.08021152275069
1742,-9.738876344707023
1743,-30.599367651815555
1744,-84.26176981291246
1745,-105.59616653118974
1746,-77.4826408362187
1747,-58.58127507592326
1748,-107.94215090852231
1749,-200.85534929443747
1750,-253.6609504881617
1751,-205.82903403006821
1752,-112.90967873821137
1753,-64.50296270006402
1754,-100.63896326422218
1755,-166.44775703208506
1756,-199.24941984946963
1757,-186.81402679818893
1758,-158.86165218761744
1759,-141.23236954619279
1760,-130.23625161287964
1761,-111.97337032859105
1762,-85.36379682757797
1763,-77.39760142877276
1764,-116.75485362709696
1765,-190.98562208471776
1766,-249.72997462228523
1767,-248.96797821008113
1768,-193.57969895919814
1769,-107.1352021126113
1770,-16.03455203624435
1771,47.01218779002011
1772,50.06495478135366
1773,-0.8663127429354063
1774,-63.26167555029133
1775,-98.62119348577471
1776,-104.18492546285233
1777,-91.18292945417306
1778,-69.54526248227012
1779,-46.13198061026742
1780,-27.133138932487782
1781,-13.83879156506191
1782,-2.898991636484425
1783,8.036208721903677
1784,14.416758385423236
1785,9.132607245648614
1786,-7.956293779963744
1787,-21.52999273842397
1788,-15.328536631488532
1789,6.748028594085554
1790,23.249658056342014
1791,19.436307947973546
1792,20.177935546185836
1793,63.39449922264794
1794,151.94595845345248
1795,221.0622738291404
1796,203.33340706476338
1797,107.8993210099834
1798,1.8499796592313942
1799,-60.63465183809603
1800,-90.01460716739894
