800,100.85212892262007
801,129.22090595291593
802,137.4792581673937
803,127.16940373412035
804,111.94156019293678
805,105.60494445398308
806,116.73877279623684
807,135.8552608660666
808,149.56662367581612
809,144.8240756023988
810,120.37383038591452
811,89.74210112828678
812,67.37710029192021
813,65.96803969837492
814,84.49913052705688
815,115.50058331394212
816,151.47060795029847
817,184.4654136814388
818,205.39920910550063
819,205.01520217222605
820,174.8166001817708
821,121.3296097835364
822,64.92543697500696
823,26.48528710062419
824,22.242364850654667
825,44.185874260106175
826,76.4050187076291
827,103.08100091447159
828,115.14202294341794
829,115.12128619777104
830,106.69599142033712
831,93.76233869243879
832,82.60752743293688
833,81.00475639727847
834,96.74522367655663
835,132.22412669658297
836,172.47166221699172
837,199.02602633035167
838,193.99741446129246
839,154.74802136565813
840,95.27904112966644
841,30.4266671690948
842,-25.650907771523634
843,-62.85749161968306
844,-72.61489297567277
845,-46.446921113328244
846,13.704614019236033
847,86.53890179890277
848,148.65113092685988
849,178.50048942790636
850,175.78916464978647
851,153.76534326254296
852,125.89821125787512
853,102.33995394851081
854,82.79875596762031
855,64.93480126821396
856,46.48027312257
857,27.082354121685057
858,8.34222617472824
859,-8.057929491488721
860,-20.18193233301281
861,-24.79660248924847
862,-18.232760783438607
863,3.086771276869513
864,37.162171499382566
865,73.18061700661929
866,99.54428423549871
867,106.07234893693385
868,94.89598617543834
869,74.5223703287611
870,53.50767508751778
871,38.92307345485642
872,34.298737746115876
873,42.63383958852137
874,66.40454992087689
875,100.30703899328
876,133.09947636685138
877,153.3920309134719
878,154.1878708155482
879,144.28016356577064
880,136.00807596691084
881,141.34277413160726
882,162.65742348218464
883,191.99818875048368
884,220.89923397768416
885,241.91072251418245
886,252.8828170194356
887,253.39567946185616
888,243.125471118703
889,226.8793525759802
890,216.98748372837235
891,226.3790237791618
892,265.07413124019513
893,321.5589639318205
894,374.6626789828797
895,403.2684328306814
896,397.939381221011
897,371.9626792081317
898,341.24148115481603
899,320.45394073238003
900,311.60821092073184
901,309.28744400843607
902,307.9867915927907
903,304.55340457990314
904,301.7624331848074
905,303.31102693155844
906,312.29533465336954
907,323.49050449273363
908,325.55168390158724
909,306.9880196414588
910,263.582657783646
911,214.0707437093979
912,181.70842211010495
913,188.4298369875196
914,231.27113165396167
915,285.1134487325562
916,324.0729301574738
917,328.31971717417764
918,301.3099503397043
919,252.08276952291726
920,189.79531390481498
921,126.58472197881747
922,77.66413155107603
923,58.39967974080264
924,79.49450298059037
925,130.691737016763
926,195.83951690972754
927,258.9239770343329
928,308.12425108025127
929,336.5564720523653
930,337.605772271153
931,308.06628337310576
932,262.0011363111398
933,218.94646135502535
934,198.03838809182525
935,202.96804542633618
936,217.63156158155925
937,224.63206409915892
938,210.40667983994263
939,182.6365349843536
940,156.30275503296343
941,146.1184648069884
942,155.08878844879655
943,170.3178494224494
944,177.78277051422083
945,166.24167383317126
946,140.63168081167532
947,111.70391220600868
948,90.09248809691599
949,80.55352789019616
950,79.67115031730009
951,83.42747343593146
952,88.20861463065921
953,92.8156906135464
954,96.91981742477219
955,100.20111043327779
956,102.65768433741687
957,104.7136531656106
958,106.83813027701308
959,109.18022836219552
960,110.13605944382289
961,107.47573487735008
962,99.00036535172148
963,83.83906089008906
964,62.87593085052049
965,37.125083926740444
966,8.247628148846161
967,-18.579329115926157
968,-37.020681162463006
969,-40.92032194700823
970,-30.714146086392248
971,-15.00804885726302
972,-2.915926195290922
973,-1.946674694383546
974,-11.78619160587914
975,-29.760374837743257
976,-53.08012295374738
977,-76.14333517265004
978,-90.1739113673575
979,-86.22575206408692
980,-59.67375844152957
981,-24.26883232997534
982,1.3481237895293816
983,-0.666793213931669
984,-30.181487120282327
985,-69.36686235756406
986,-99.63882400103648
987,-108.41027777229192
988,-104.68313003833919
989,-102.32528781069686
990,-114.31765874446864
991,-138.3661511374221
992,-159.357673929042
993,-161.78613669960941
994,-137.0984496692363
995,-97.31952369691771
996,-58.259270279573684
997,-34.695601551075015
998,-28.074430281269088
999,-30.599669875015024
1000,-34.288234371164435
1001,-33.52903844159755
1002,-28.28899739020835
1003,-19.354027151899572
1004,-7.499044291570499
1005,5.723033996900995
1006,13.568289891685708
1007,7.150804944037191
1008,-22.215339920676342
1009,-72.8410644019259
1010,-128.15528882297076
1011,-170.42893412979993
1012,-185.44492189007815
1013,-178.15817429207254
1014,-160.0056141435798
1015,-142.16016487084835
1016,-127.3197505174985
1017,-108.2142957434171
1018,-77.0027258236887
1019,-30.117966647455432
1020,17.947055283148984
1021,47.92341285414295
1022,41.60317834079342
1023,2.2774234087582954
1024,-46.82478088480457
1025,-81.71836409008756
1026,-85.67225636350304
1027,-64.83638846654048
1028,-29.852691764610427
1029,8.822901774104139
1030,43.21345957981157
1031,67.09404848226859
1032,74.28673471196089
1033,62.555583901259524
1034,38.61266108562086
1035,10.410030704754718
1036,-14.0992433961801
1037,-27.016097965388326
1038,-20.47547034323452
1039,13.202701538956717
1040,68.69547916010742
1041,119.91192341059468
1042,138.87809459347318
1043,105.20805242569077
1044,40.703856039313905
1045,-18.256436017247324
1046,-36.352765777995955
1047,-8.088075858121556
1048,39.342690547247
1049,77.05458966428796
1050,84.96667714173509
1051,74.09200805212913
1052,62.30763689307787
1053,66.23961758852147
1054,85.14500348999172
1055,105.68584737788751
1056,114.266201462744
1057,104.45611738651405
1058,85.50164622384727
1059,68.73483848337128
1060,63.95674410898937
1061,69.49341248116434
1062,78.43989241821782
1063,84.00023217762919
1064,85.10147945733661
1065,88.3626813970468
1066,100.95588457954273
1067,125.98713503199633
1068,149.40647822728624
1069,152.6339590853122
1070,118.80162197433128
1071,58.91051071227139
1072,6.4876685680592345
1073,-4.337861737032654
1074,40.86996197193548
1075,110.60018132491678
1076,166.77883740821744
1077,176.96097076584283
1078,151.78062140083784
1079,121.69982877665188
1080,116.72863181847879
1081,144.09806891461994
1082,181.4881779178404
1083,204.59499614673678
1084,195.4185603870883
1085,160.16390689324362
1086,110.84107138947002
1087,59.366089071342685
1088,16.3539946071096
1089,-8.50017786092485
1090,-5.593394715026079
1091,25.32237713936138
1092,66.46117027498894
1093,97.9740167441978
1094,103.313948080312
1095,85.17999529901954
1096,53.19118889977926
1097,16.814558867203232
1098,-18.138865327530766
1099,-49.47505472528519
1100,-75.14098087756338
1101,-93.21861584509588
1102,-102.13093219643815
1103,-100.35090300656248
1104,-87.28950185544454
1105,-69.90070282665056
1106,-58.786480505924374
1107,-64.24980997976309
1108,-84.66266683401409
1109,-103.3850271524334
1110,-102.80486751527951
1111,-73.55216499789003
1112,-34.22889716923601
1113,-9.376042090525516
1114,-20.853578313735852
1115,-62.776484880224416
1116,-112.95474131926312
1117,-149.1803276466253
1118,-160.2762243631305
1119,-151.36841245323376
1120,-128.9048733835616
1121,-100.23558910148859
1122,-76.27754203369022
1123,-68.82971508469564
1124,-88.2310916354545
1125,-127.39865554188418
1126,-167.88239113342024
1127,-191.21728321158025
1128,-192.12231704850456
1129,-186.32047838551262
1130,-191.42675343163774
1131,-218.8291288622013
1132,-253.9915918173274
1133,-275.6411299005149
1134,-264.5157311771691
1135,-225.94938417314552
1136,-181.65107787328725
1137,-153.43180171998574
1138,-150.33554561169785
1139,-161.2412999015005
1140,-173.24405539562395
1141,-175.8558033519921
1142,-168.22953547875568
1143,-151.91424393283341
1144,-128.95292131844508
1145,-106.83856068564455
1146,-96.45815552885688
1147,-108.51969978541638
1148,-142.03318783408668
1149,-179.23661449360316
1150,-201.06297502120833
1151,-194.22626511116505
1152,-165.48048089330769
1153,-125.91261893156025
1154,-86.4646762224711
1155,-56.64465019373711
1156,-45.2115387027352
1157,-60.45934003505681
1158,-95.8390529030221
1159,-126.99567644422496
1160,-128.5252102200402
1161,-89.28165421416816
1162,-37.30500883115201
1163,-7.319274894907721
1164,-27.281453647245144
1165,-79.11554674641047
1166,-125.60955626558007
1167,-131.38548469142006
1168,-99.45833492259953
1169,-68.31111026830331
1170,-77.60181444676891
1171,-141.80345158382352
1172,-224.7610262113858
1173,-284.23654326600354
1174,-288.10000808738096
1175,-251.58242641689685
1176,-203.73680439613418
1177,-171.57214856540577
1178,-157.60446586227863
1179,-148.35876362010004
1180,-130.28504956652432
1181,-99.12333182203474
1182,-63.32961889847138
1183,-32.29191969756539
1184,-13.977243509447362
1185,-12.1376000111959
1186,-29.75799926534455
1187,-67.98945171842934
1188,-115.51796819949232
1189,-155.81955991863288
1190,-172.91823846552325
1191,-161.20801580793977
1192,-124.08990429028927
1193,-65.36891663214192
1194,2.649934073233453
1195,52.67163436035844
1196,55.862170392989356
1197,-3.181472034397302
1198,-89.27130749514072
1199,-155.31635092892975
1200,-160.14561764033624
1201,-112.8931232973373
1202,-47.96088392987804
1203,0.9690840716339153
1204,21.596763957759322
1205,22.919138621520688
1206,14.841190599829133
1207,4.149902074981583
1208,-8.475745123883826
1209,-23.06076951934665
1210,-39.45418998422065
1211,-56.730025740100245
1212,-73.77829635590933
1213,-89.08102174642954
1214,-97.59922217084204
1215,-92.47391823129146
1216,-67.43913087140936
1217,-30.088881374853372
1218,-1.7161913638774422
1219,-4.05708279785722
1220,-41.99857797184268
1221,-88.93369951510795
1222,-114.7834703897006
1223,-99.10591388898501
1224,-57.0640536362007
1225,-12.036913583013302
1226,14.470481991949782
1227,15.270108484508455
1228,-10.305059033582438
1229,-61.80004581321373
1230,-120.083877426463
1231,-150.1755797651822
1232,-117.11517903951062
1233,-18.440701776467904
1234,98.36282518149346
1235,181.54437467793105
1236,199.52491924384776
1237,178.43243109912692
1238,154.65488215396726
1239,157.69124401031877
1240,178.89548796331837
1241,196.5305850027089
1242,190.8355058142879
1243,164.4842207813308
1244,134.22869998600254
1245,116.60891321081544
1246,116.17082994002885
1247,124.26341936109384
1248,131.60965036605376
1249,134.11449155298942
1250,137.62791122742965
1251,149.13387740377038
1252,171.4003578067004
1253,192.63331987260608
1254,197.87773075100267
1255,175.86655730593884
1256,138.92876611741303
1257,108.69732348279103
1258,105.01719541820239
1259,124.80734765997113
1260,149.39774566601045
1261,160.35335461722752
1262,155.68213941894282
1263,152.1060647022823
1264,167.27409482557778
1265,207.86019387579108
1266,259.68332566988283
1267,306.22045375624293
1268,332.4905414160603
1269,328.5725516647435
1270,285.5624472532945
1271,200.48419066971655
1272,104.10374414040598
1273,39.13106963153223
1274,43.43212885043613
1275,104.66388324702348
1276,180.9262940151275
1277,231.25132209392905
1278,242.4219281693113
1279,227.43207267525213
1280,200.22971579521254
1281,170.34281746350462
1282,140.67833736667671
1283,113.60723494488411
1284,90.98546939326843
1285,73.45399966333571
1286,61.471784464310986
1287,56.238782264537804
1288,61.87795129281949
1289,83.22824953980307
1290,123.07363475934108
1291,170.79906446985478
1292,210.41449595570157
1293,227.4008862685405
1294,223.83319222866885
1295,212.1823704264243
1296,204.8753772234977
1297,209.74316875432487
1298,230.25370092740923
1299,269.4859294267044
1300,320.2358097129454
1301,360.5872970250093
1302,367.5573463812634
1303,332.6429125809027
1304,278.59995020530187
1305,232.2734136193667
1306,213.5212569728701
1307,219.0154342017886
1308,240.63289902964607
1309,269.4986049688596
1310,292.90050532205896
1311,296.8975531834403
1312,270.41570144009165
1313,225.34990277332327
1314,184.62510966000082
1315,169.54827437387394
1316,179.44134898690754
1317,198.28028537060163
1318,210.23603519732205
1319,211.39154994162345
1320,209.68578088156573
1321,213.42667910004457
1322,223.85119548610237
1323,232.2472807362392
1324,229.19888535575046
1325,211.28795966002326
1326,187.03445377585558
1327,166.3783176427678
1328,156.4205010143105
1329,156.18795345938452
1330,163.27962436352573
1331,175.20346293023795
1332,189.05441818227519
1333,201.83243896296517
1334,210.4904739374906
1335,211.7884715941982
1336,202.40438024591094
1337,180.58714803120165
1338,157.78172291570263
1339,152.0640526934003
1340,179.61708498793269
1341,232.15076725386643
1342,284.74804677799693
1343,313.1678706806506
1344,312.95818591694115
1345,297.5619392780882
1346,280.78307739268075
1347,266.681546727973
1348,247.68229359116503
1349,215.69526413067342
1350,173.2754043374307
1351,139.59266004614346
1352,135.1829769365886
1353,165.96930053486994
1354,207.97257621470908
1355,233.54774919870943
1356,225.44476455963468
1357,194.31956722167797
1358,155.4651019617204
1359,120.96731341062059
1360,91.61114605446528
1361,65.68454423583808
1362,43.333452155091436
1363,33.1968138716029
1364,46.357573305040205
1365,89.71467423662216
1366,145.1240603103779
1367,185.16067503440718
1368,186.6254617821387
1369,159.4183637935812
1370,128.9273241765868
1371,118.44128590809942
1372,128.88219183540969
1373,148.1539846774076
1374,164.2736070258361
1375,169.079001346533
1376,157.13010998068785
1377,123.82987514608521
1378,78.6692389383561
1379,43.3141433322171
1380,38.93853018271966
1381,64.19534122649475
1382,94.37251808299425
1383,104.3050022557245
1384,91.53673513350623
1385,81.62665799169645
1386,101.37171199343356
1387,150.66683819087757
1388,190.1639775264457
1389,177.77707083404766
1390,103.73305884032197
1391,13.664882165871859
1392,-41.493518673505605
1393,-34.33820326558089
1394,15.406768699534041
1395,82.38633743062292
1396,144.0014430365918
1397,184.0560255276987
1398,187.27402481678564
1399,147.76738072050466
1400,84.89803296054015
1401,22.22492116484773
1402,-20.839015131133237
1403,-37.75783648323977
1404,-24.45560353737619
1405,18.87662297172028
1406,77.08478222170288
1407,131.71081330383186
1408,166.98665522420197
1409,177.84224690496285
1410,161.8585271855427
1411,121.81743482386173
1412,83.58090849755717
1413,79.45788680520582
1414,130.42030826753944
1415,201.45611132865997
1416,240.28723435726624
1417,207.40061564786265
1418,132.78719342198656
1419,69.93790582941438
1420,62.82469094938915
1421,98.79548679182608
1422,144.41723129853563
1423,171.89586234444232
1424,189.87031773878607
1425,221.33553522635975
1426,283.7924524886894
1427,356.7600071452962
1428,403.82113675486835
1429,396.0187788164949
1430,359.1858707708825
1431,343.399350001554
1432,390.14815383608675
1433,474.2482195472985
1434,539.7294843544814
1435,538.986885424607
1436,492.644359873545
1437,453.92884476726886
1438,469.14127712307436
1439,525.730593910801
1440,582.294732054027
1441,602.0106284313024
1442,588.273219877351
1443,564.5234431842919
1444,552.1902351028393
1445,554.306532343544
1446,564.6592715779752
1447,577.4323894399658
1448,590.6998225268062
1449,604.4875074004658
1450,617.8623805888128
1451,621.6823785868291
1452,602.7264378578202
1453,550.8714948346396
1454,481.7024859209014
1455,423.3803474922015
1456,400.76201589733137
1457,411.7434274595016
1458,441.3855184775548
1459,474.89422522718814
1460,499.3874839621785
1461,502.83923091559154
1462,475.532402301018
1463,424.4149343137806
1464,363.77076313216367
1465,306.2088249186427
1466,252.67205582109546
1467,199.23339197403584
1468,144.2687694998349
1469,100.84112450995144
1470,87.77039310615783
1471,117.18651138176301
1472,161.7164154228485
1473,179.58804130949284
1474,138.53732511700764
1475,57.8512029171643
1476,-25.887389220569275
1477,-80.24751522780116
1478,-93.38123903596897
1479,-59.72162457511786
1480,17.790264227346597
1481,98.68336344789168
1482,132.07260916810174
1483,85.65993747591165
1484,0.6172844668571997
1485,-63.71841375469194
1486,-66.76522107427445
1487,-33.67620136610822
1488,-3.987418491828066
1489,-5.012936299246576
1490,-26.450818621097824
1491,-50.78912927379042
1492,-66.6519320561556
1493,-79.15029074818722
1494,-96.12026910979057
1495,-119.65093087952118
1496,-138.47033977333467
1497,-139.47355948330824
1498,-119.91365367639719
1499,-97.85968599315493
1500,-93.7127200464829
1501,-112.80081942034758
1502,-134.4600476685182
1503,-135.70046831329637
1504,-108.00814484423881
1505,-64.199140716888
1506,-18.709519351482413
1507,17.604655868307418
1508,38.401321596664275
1509,37.98641452692118
1510,20.28687139282465
1511,-0.6143710301594183
1512,-10.78537592356588
1513,-8.431206424632364
1514,-2.4839256250133985
1515,-1.688596569474612
1516,-6.973282254600235
1517,-13.52304562748759
1518,-16.973949584449656
1519,-19.111056969703895
1520,-25.4344305740633
1521,-40.30713313363049
1522,-58.373227328481335
1523,-69.52877578134667
1524,-66.3788410563011
1525,-58.881485657435405
1526,-63.77077202752935
1527,-92.09576254673811
1528,-126.9715195312483
1529,-142.95810523195996
1530,-122.59758183313443
1531,-78.68201145107469
1532,-31.15845613277361
1533,2.7520221454296916
1534,13.821361479190273
1535,-5.719499962487134
1536,-54.20262393589837
1537,-108.94307212128297
1538,-144.5199061214671
1539,-146.53718746049617
1540,-119.54897758227435
1541,-70.07833784919785
1542,-9.036329540774204
1543,46.89298614774543
1544,81.04454810674542
1545,87.08329531363142
1546,69.15216683421477
1547,32.325101824099875
1548,-11.566960469921469
1549,-45.4690807084753
1550,-54.33531945820414
1551,-45.05073719036409
1552,-37.2583942794181
1553,-46.998351001620904
1554,-63.75666753361293
1555,-65.63140395099344
1556,-38.42062022689879
1557,-6.418376230581998
1558,-5.8607317259748015
1559,-57.999746370258435
1560,-131.58547971242206
1561,-183.88999119182245
1562,-187.63034013673587
1563,-153.75758576290445
1564,-99.06078717208675
1565,-40.508003350592844
1566,4.609706832173288
1567,19.30428462519194
1568,-0.4703286027070135
1569,-42.38619136137186
1570,-93.1623620378341
1571,-141.78489889483262
1572,-179.27286006931627
1573,-197.16930357095953
1574,-192.28228728064641
1575,-164.79586894897875
1576,-117.13310619475851
1577,-67.70305650348291
1578,-42.053777225811245
1579,-58.00632557605513
1580,-96.0157586306359
1581,-125.30613332656321
1582,-124.71650645988575
1583,-103.59493468415349
1584,-77.327474508862
1585,-60.20618229790125
1586,-64.20211426800051
1587,-100.54432648715283
1588,-158.05287487305213
1589,-193.7318151915124
1590,-164.51620305488996
1591,-79.13209392049521
1592,3.798456911003086
1593,28.426394297168372
1594,-4.282336744591703
1595,-56.59179103542101
1596,-94.10702323339683
1597,-110.20608783190892
1598,-110.0380391580411
1599,-98.74393137092102
1600,-81.19281846009926
1601,-62.1867542438913
1602,-45.259792367741284
1603,-30.54198630254905
1604,-17.627389343016148
1605,-7.916054605978388
1606,-5.870035028725397
1607,-15.763383367317147
1608,-28.371152194908973
1609,-19.682393900038733
1610,31.755839315058438
1611,103.4784954361703
1612,142.0405226388093
1613,103.76386928994361
1614,21.15948394971656
1615,-39.54668462681457
1616,-27.6946874879377
1617,40.15342451645574
1618,129.53260073663387
1619,209.33579072477914
1620,257.02394423676014
1621,251.724011233905
1622,194.37894188478185
1623,119.47868656699666
1624,63.6321958689814
1625,46.79042059180301
1626,73.05031175097247
1627,142.65082057826294
1628,223.0398985235388
1629,262.53049725659
1630,222.65756866896663
1631,139.4730648758341
1632,74.628938217832
1633,69.98314126292735
1634,105.67662680829653
1635,149.9973478822003
1636,183.1852577458758
1637,206.93030989542694
1638,225.1184580637273
1639,240.41865622234036
1640,254.21785858342628
1641,267.5430196016823
1642,278.1470939762685
1643,281.7170366527607
1644,276.3218028250949
1645,273.99434793753335
1646,291.77462768663736
1647,336.7615980232331
1648,385.08421515441023
1649,407.0634355455113
1650,392.3482159221394
1651,363.9915132721653
1652,347.5242848477528
1653,348.6294881673857
1654,353.34308101791066
1655,348.530021456585
1656,337.40126781312756
1657,332.3517786917955
1658,341.1845129734511
1659,348.79742981764684
1660,333.1474886647238
1661,289.3726492379137
1662,256.19987154545015
1663,278.2751158826886
1664,357.03934283424223
1665,434.26451327611994
1666,451.21758837788184
1667,407.7155296047904
1668,348.4132987199919
1669,313.2658577866905
1670,302.56416917033584
1671,300.27119554082947
1672,295.38389987473147
1673,293.8702454574768
1674,305.0861958856185
1675,325.2097150690488
1676,327.7487672332654
1677,285.75531692162804
1678,208.738328997626
1679,139.86876864716487
1680,117.31760138085701
1681,127.74179303632718
1682,132.6693097805155
1683,104.79411811201953
1684,60.76318486341552
1685,27.76447720361375
1686,21.929962640200756
1687,38.26160902182528
1688,69.13838454056895
1689,101.77925773433435
1690,118.28019748924726
1691,103.31217304207257
1692,65.77315398263454
1693,26.919110256257227
1694,1.2670121662004021
1695,-23.55416962387062
1696,-66.35846408741963
1697,-128.53189983256198
1698,-178.72750509956677
1699,-183.41230775835356
1700,-140.0843353059745
1701,-75.65361486408892
1702,-16.724173176417935
1703,21.970963393802776
1704,31.272768866389924
1705,8.807217646793106
1706,-24.256715471319694
1707,-41.79205530346371
1708,-33.034826271716156
1709,-12.4330524020952
1710,3.483242678080387
1711,2.8640357428448624
1712,-22.35769602975597
1713,-75.8109750549811
1714,-134.0148233387108
1715,-163.03226247473685
1716,-147.91631364205568
1717,-125.8239976021332
1718,-141.64933469616517
1719,-195.7263448423255
1720,-231.31804753299184
1721,-194.72546183196937
1722,-106.88960637169475
1723,-34.563499350427264
1724,-28.330158529430264
1725,-64.29960123012916
1726,-98.21784433126959
1727,-104.120904266053
1728,-91.25179701925754
1729,-72.39253812435163
1730,-51.371142660583246
1731,-23.98262525007067
1732,10.915999945136718
1733,32.20971922600438
1734,9.6815193594648
1735,-64.57461241858982
1736,-136.94368840033894
1737,-144.899720403012
1738,-83.30771976588221
1739,-17.359697347228575
1740,-8.848663521283925
1741,-44.68162817517896
1742,-70.05360070586812
1743,-47.976590017025046
1744,-9.951604515944382
1745,-2.9706521104162675
1746,-39.66974020559337
1747,-78.47387570083174
1748,-76.49106498652691
1749,-37.059313940929314
1750,3.927372073055267
1751,18.027988211075353
1752,15.62553015056892
1753,18.460994094009948
1754,31.171376772163057
1755,25.667675447364672
1756,-27.07211208318222
1757,-108.68598748410659
1758,-161.37895187852791
1759,-139.37400584473835
1760,-71.71914941283012
1761,-13.49138206132011
1762,1.361297286232002
1763,-14.779109735367456
1764,-43.618600929519744
1765,-71.17217353440356
1766,-87.44282421950265
1767,-85.77954908214724
1768,-79.46634364402144
1769,-89.37920284765096
1770,-122.16212105288196
1771,-151.13909203334424
1772,-146.10010897288885
1773,-104.12916446201234
1774,-48.620250494268475
1775,-3.397358462657394
1776,12.0835208440094
1777,-19.86960275525962
1778,-94.94171882996125
1779,-157.35581633442143
1780,-146.86488360410385
1781,-65.67090835188355
1782,24.966122335684304
1783,69.7402220021113
1784,64.21740482474979
1785,23.060685618580465
1786,-35.005920159978814
1787,-82.48839640925144
1788,-91.97272637845981
1789,-59.85789266385564
1790,-3.328877204850869
1791,57.57433871989451
1792,91.37777449637815
1793,63.00645017919851
1794,-26.95261350448618
1795,-109.10939515098926
1796,-111.42087267609895
1797,-40.07802331106359
1798,39.463176401434794
1799,72.16175061134436
1800,56.75872416530183
