800,85.08587410430755
801,72.85225512508441
802,79.85946074941512
803,100.17470074348603
804,118.61318429556104
805,119.8651200144277
806,94.7907159278675
807,55.564179481140854
808,18.953717535488067
809,1.41153636665058
810,8.297841663415966
811,31.090838526167317
812,60.39173146545454
813,87.55472440059384
814,109.73802065826749
815,126.835822971153
816,138.75633347657094
817,144.71575371513336
818,142.17528462942937
819,128.32612656271613
820,100.78747925762855
821,65.75654185491021
822,37.332512892157865
823,29.90159030257564
824,53.235971413759216
825,92.99485294649276
826,126.98243101355274
827,133.19190111854095
828,103.75545815472378
829,55.13529640389879
830,6.1876095352636185
831,-25.394409395684306
832,-34.61656794823921
833,-24.360674297571677
834,2.3774627642278574
835,41.11203382708845
836,82.55222886195588
837,116.44423721975181
838,132.80424763040264
839,128.79944820184664
840,109.3900264190761
841,79.93416914318641
842,45.822062610444846
843,12.659892431366643
844,-13.864156410175383
845,-28.083899557845143
846,-26.34515328371799
847,-8.73173448912803
848,24.265539294489827
849,71.4868499047625
850,124.07737854758398
851,168.27430579630436
852,190.24681159096235
853,182.43807523751184
854,157.1032754070693
855,130.3845901351824
856,117.8771968211031
857,121.9392722270859
858,131.39799247768588
859,134.4685330590919
860,121.96806881845532
861,98.42777396324072
862,72.91282206059623
863,54.45238603672533
864,49.66363817628462
865,61.35875012178985
866,92.01489287303866
867,142.32423678654595
868,197.3819515749874
869,234.20720630667347
870,229.80916940502175
871,176.75700864803912
872,104.98589116784024
873,49.91698345016084
874,44.597451333886056
875,86.99046001059924
876,148.28217402413975
877,198.98775727017346
878,217.32637299578528
879,209.18418379907052
880,186.6583516287492
881,161.64703778379317
882,140.7894029130639
883,125.0676070149666
884,115.18180943710468
885,111.58016887597569
886,113.38084337663804
887,119.2699903324401
888,127.95376648471301
889,139.16632792251767
890,154.15383008237222
891,174.28242774801856
892,200.06327505017725
893,225.65352546633767
894,242.37633182054105
895,241.59584628318953
896,222.16222037086027
897,197.4956049461316
898,182.6931502174375
899,191.03300573889646
900,217.1333204102002
901,244.65824247647743
902,257.1509195281851
903,245.94949850101239
904,221.98612567579767
905,199.22594667843896
906,190.86510647984687
907,199.33074939588005
908,219.1240190873168
909,244.55805855981725
910,269.9130101639121
911,289.34901559499576
912,297.0062158933315
913,287.4647514440676
914,263.64476197727345
915,235.88238656797148
916,214.77376363619078
917,207.31803094703537
918,206.70332561075065
919,202.80678408281256
920,185.97554216402023
921,158.16373500060217
922,133.37649708434674
923,126.1789622527067
924,146.81726368896398
925,186.09253392236133
926,229.34190482827307
927,262.18450762837165
928,279.2544728908151
929,285.74793053043504
930,287.4600098089395
931,288.55283933513147
932,284.8905470651289
933,269.7042603025993
934,236.46110569900247
935,187.51320925385517
936,136.6036963149836
937,98.2226915788051
938,84.00431909061444
939,89.7817022448753
940,105.95296378552757
941,122.9892258063037
942,134.57860975105177
943,138.77523641407242
944,133.94422594046227
945,119.25969782646735
946,98.58477091985242
947,77.47456342026362
948,61.431192879627815
949,53.492776202532696
950,53.27742964663048
951,60.1532688230609
952,72.86440869685248
953,86.56696358737736
954,95.10404716876656
955,92.46277247038142
956,78.99825187725583
957,63.869597130565126
958,56.87691932811413
959,65.53732892481185
960,84.30193573316774
961,103.00184892380003
962,111.61317702593715
963,106.49602792795667
964,92.49750887789651
965,75.04672648400447
966,59.16578671528259
967,47.679794902045614
968,42.683855736481746
969,46.14507327323008
970,55.610550929956844
971,63.15739148795001
972,60.51269709271946
973,41.67956925459657
974,11.705108849359021
975,-21.01758388115468
976,-48.26540932840635
977,-66.74426851652242
978,-78.68606310164341
979,-86.61269537127009
980,-92.14906824359332
981,-93.07408526683503
982,-86.15265061854916
983,-68.5416691049495
984,-46.34704616020554
985,-34.46868784574508
986,-48.19150084953435
987,-94.68739248536167
988,-151.94527069211745
989,-191.37504403304592
990,-185.9856216950202
991,-136.34991348777476
992,-66.16582984316119
993,0.13871818561983673
994,44.23681892479635
995,65.81756008079446
996,67.88302874103738
997,53.535311374727826
998,27.138493833655048
999,-6.066338646995973
1000,-40.82210144783312
1001,-72.84171056442938
1002,-100.12208260649459
1003,-120.99213479703849
1004,-133.77978497153526
1005,-137.23195157705595
1006,-132.94055367142846
1007,-123.66851092235629
1008,-112.15074360656308
1009,-99.57117260890664
1010,-84.89371942149137
1011,-66.90330614278355
1012,-45.29785547671236
1013,-24.718290731757406
1014,-11.478535820051547
1015,-11.727515256447077
1016,-26.312154157607438
1017,-49.84737824106196
1018,-76.59111382428273
1019,-100.67028782372927
1020,-115.68482775391112
1021,-115.09066172641633
1022,-92.85971844896903
1023,-53.45592722444235
1024,-11.054217949897975
1025,19.793478884403157
1026,29.640232195984026
1027,25.13111031113749
1028,16.065180965937543
1029,11.736511307231922
1030,14.657167893663427
1031,22.590216696671632
1032,33.194723101528325
1033,43.86775190836124
1034,51.4133673331844
1035,52.54963300893269
1036,44.697611986519405
1037,31.290366735879616
1038,18.80795914702321
1039,13.716450531098417
1040,19.624901621465142
1041,35.5733725747541
1042,60.193922971956454
1043,91.17461181950421
1044,120.97649755035218
1045,140.25363802507854
1046,139.9600905329835
1047,119.47991179318979
1048,87.44815795575505
1049,52.969884602786806
1050,23.65314674955698
1051,1.8019988456362626
1052,-11.453505223988032
1053,-15.060312137764413
1054,-9.088369136451547
1055,5.583375978037111
1056,28.039974843783057
1057,54.707478540008196
1058,76.19193758824349
1059,82.32040195348327
1060,65.75692104536301
1061,40.5075437193309
1062,30.285318277818988
1063,58.29029247143899
1064,123.57351350014869
1065,192.68402801446973
1066,229.85788211666204
1067,209.75012136193527
1068,151.0087907596544
1069,83.8989347745428
1070,37.55059732790323
1071,22.473821798831523
1072,34.12565102544613
1073,67.51312730610061
1074,113.07429240063266
1075,150.5941875315857
1076,158.33485338545597
1077,119.16533011393494
1078,51.17865733515009
1079,-11.310125865068585
1080,-34.51598093195025
1081,-9.720869840509295
1082,39.27524490570977
1083,86.48240027590418
1084,111.00363271328479
1085,111.47197813634648
1086,91.20247194015701
1087,54.1191489976236
1088,12.209043660805037
1089,-16.823810237828184
1090,-15.276379384072243
1091,19.917369019291982
1092,63.56846725379728
1093,87.26094708661276
1094,69.10383977183756
1095,25.14917605181745
1096,-14.901013841540589
1097,-22.571700185449117
1098,2.217146235088876
1099,31.56255412859082
1100,36.37855169844079
1101,2.2391666442108544
1102,-46.20457383699795
1103,-77.84964304922232
1104,-66.52301479628204
1105,-25.992663380447993
1106,10.669436398909056
1107,10.992309246683362
1108,-30.39002062662985
1109,-84.73752950355902
1110,-121.11719415831158
1111,-118.86899185539369
1112,-92.22190034825599
1113,-62.800897877914394
1114,-50.65196317158279
1115,-59.280075441292865
1116,-82.48521438252101
1117,-113.88936017280139
1118,-144.46349347034175
1119,-161.27459541263852
1120,-151.061647615089
1121,-107.53963216959073
1122,-51.89653164315405
1123,-12.11032907650224
1124,-13.586007982663432
1125,-51.01755234558277
1126,-99.05694661870075
1127,-132.23817572355256
1128,-141.36922504835547
1129,-143.20708044659932
1130,-156.83872823562706
1131,-194.77015519521046
1132,-242.10634856614342
1133,-276.8342960488053
1134,-278.9119858017457
1135,-252.4314064402497
1136,-217.54454703491228
1137,-194.4953971102059
1138,-190.33194664303937
1139,-191.2551860613321
1140,-181.61910624256416
1141,-152.03969851234342
1142,-118.03695464295834
1143,-101.33386685193727
1144,-121.16342780059222
1145,-168.98663059257524
1146,-218.9964687724323
1147,-245.37493632414044
1148,-235.7950276696538
1149,-197.2577376674517
1150,-138.26706161107904
1151,-69.9139952276746
1152,-12.214534676522817
1153,12.870323452418234
1154,-12.816417860015463
1155,-72.84675606072415
1156,-132.35868902287984
1157,-157.08221504445464
1158,-138.3893328467384
1159,-98.39304157287188
1160,-61.02534078636745
1161,-43.077230469627466
1162,-41.67871102247045
1163,-50.62178326064259
1164,-64.20044841433719
1165,-80.16370812671175
1166,-97.69756445239727
1167,-115.9430198560176
1168,-133.08507721068872
1169,-146.42573979653844
1170,-153.2360112992119
1171,-150.76189580837217
1172,-136.22439781621142
1173,-106.83452221595417
1174,-63.01027430035265
1175,-20.159659760201976
1176,1.9253153171748636
1177,-14.466355550579465
1178,-62.24867923935017
1179,-118.15266301705105
1180,-158.90831454211548
1181,-174.64764186199136
1182,-173.8516534116361
1183,-166.33435801199903
1184,-159.5887648685266
1185,-154.22288356963873
1186,-149.57572408522356
1187,-144.5092967651226
1188,-134.62461233761587
1189,-114.17068190790906
1190,-78.06251695662104
1191,-33.61012933825805
1192,1.1204687202980494
1193,7.859264621305556
1194,-16.867754602313653
1195,-50.433602285450434
1196,-67.53129212929525
1197,-51.81783819981047
1198,-20.687254926211608
1199,0.5224429005629645
1200,-10.0677598706352
1201,-45.04687874962565
1202,-82.29192960338514
1203,-100.2789286545094
1204,-94.22789247970286
1205,-76.02883800823383
1206,-58.257782520415276
1207,-47.77774364607285
1208,-40.23773936301677
1209,-29.988787995509483
1210,-14.734908212736627
1211,-5.76211902727573
1212,-17.808439793564503
1213,-62.235890206361546
1214,-120.81749029923049
1215,-160.02726044298652
1216,-147.7362213441711
1217,-86.80239404352506
1218,-14.660799914443487
1219,29.956539338555558
1220,29.932601681368396
1221,8.583364751837507
1222,-6.336194138708379
1223,4.55890199607984
1224,29.68362981910741
1225,50.311965671380676
1226,50.23688557353216
1227,32.38736522736872
1228,8.425380017401949
1229,-10.346094987605284
1230,-19.906085033108866
1231,-22.392615677243157
1232,-20.102712789276666
1233,-13.253402548079066
1234,1.156288559418499
1235,26.391333739769834
1236,62.01870589453756
1237,97.00837762185074
1238,118.44932121792863
1239,116.91550867863407
1240,102.28291170099965
1241,91.05250168477778
1242,97.73124973397444
1243,114.24912665839383
1244,118.38210297517253
1245,88.62214891031726
1246,29.758234400257606
1247,-24.556670906629734
1248,-39.34159764847573
1249,-1.464576748372565
1250,60.3153605871521
1251,112.47918286968525
1252,131.9248583304634
1253,131.64335492191003
1254,132.43864031917565
1255,151.7796819216819
1256,185.75244685464713
1257,222.01090197063877
1258,248.76701385110118
1259,261.51474880789647
1260,260.70807288484866
1261,246.98795185926974
1262,223.6603512435031
1263,197.06423628645825
1264,173.71357197515317
1265,160.4323230362388
1266,164.63545393754703
1267,193.8059288896211
1268,247.13171184724615
1269,296.80276651099575
1270,309.49005632875105
1271,261.294544497252
1272,181.98219396361856
1273,120.31396742688685
1274,119.87782733954737
1275,170.46373590906933
1276,230.21865509944018
1277,258.304546632693
1278,244.24837199044214
1279,206.23909241540605
1280,163.47866891294598
1281,128.46506225259327
1282,103.65423296957488
1283,90.67414136634852
1284,89.9567475141248
1285,99.0420112544025
1286,115.040892200489
1287,134.78134973902797
1288,153.96434303153364
1289,168.0078310159015
1290,173.2417724079496
1291,171.91512570293162
1292,168.64384917706957
1293,167.87790088906513
1294,171.97623868163555
1295,182.00482018302682
1296,198.85160280854143
1297,220.0205437620525
1298,239.8076000375304
1299,252.46172842056058
1300,256.7828854898562
1301,258.0610276187881
1302,262.0781109768932
1303,272.1230915313927
1304,286.1049250487131
1305,301.2285670959973
1306,314.47497304261833
1307,322.08409806169857
1308,320.1368971316206
1309,306.0153250375397
1310,283.7553363728921
1311,259.5258855409129
1312,239.4399267561439
1313,229.10641404594116
1314,233.90130125198448
1315,257.8595420317897
1316,287.62608986021314
1317,297.7028980309542
1318,263.5789196580672
1319,189.48010767746382
1320,108.21741484842278
1321,53.51279375507602
1322,42.46219680794002
1323,68.77557624538531
1324,124.35388413516284
1325,195.11107237589295
1326,255.03809269856174
1327,276.71989666803347
1328,246.63843568452648
1329,190.75666098513375
1330,142.01652364529764
1331,126.05797458032248
1332,138.67896454685615
1333,168.07844414439023
1334,201.96836381674893
1335,225.3146738535861
1336,222.07032439186696
1337,179.75626541736528
1338,116.04744676615064
1339,63.77081812607685
1340,53.329329038265314
1341,83.19692889859834
1342,130.13656695919417
1343,171.10619232990575
1344,195.23375397978998
1345,202.6582007385996
1346,194.03748129825908
1347,173.94554421435168
1348,151.62733790759557
1349,136.55481066532047
1350,134.94891064295098
1351,147.9455858654801
1352,176.19278422894604
1353,212.9594535019114
1354,236.43654132692973
1355,222.97899522202624
1356,163.27476258216393
1357,86.49079068072479
1358,28.19302667096781
1359,12.792417587506861
1360,25.361910347778576
1361,42.31345175350998
1362,45.46498849218369
1363,41.56746713850225
1364,44.53883415585915
1365,64.91503589779495
1366,92.99801860946718
1367,111.59272842911105
1368,106.00711138949555
1369,81.18211341939059
1370,51.24968034502035
1371,29.762757891528963
1372,23.795291684426957
1373,36.653227251059434
1374,70.44251002205328
1375,111.81208533277277
1376,136.38089842478075
1377,121.20589444728103
1378,73.74101845857422
1379,27.716215427511088
1380,16.61143023493969
1381,45.68760767515232
1382,90.93169245733952
1383,127.36262920702939
1384,144.16836246754156
1385,148.03683670142618
1386,146.6529962919094
1387,142.89878554434017
1388,132.64614868762783
1389,111.2720298756858
1390,78.79237318887408
1391,43.18312263543521
1392,13.199222152935363
1393,-3.220384390300751
1394,0.2322468062502594
1395,29.638059476745184
1396,83.70099729040703
1397,143.9510038529661
1398,189.48902270808503
1399,206.75699733879173
1400,201.95587116891875
1401,184.57558756452454
1402,162.7140898353273
1403,140.15632123613796
1404,119.86122496827738
1405,104.26674418101356
1406,93.95882197298215
1407,89.11840139361539
1408,89.44142544455917
1409,92.67883708111003
1410,96.10157921362497
1411,97.68159470894534
1412,98.51482639182723
1413,100.56821704634967
1414,105.4457094173431
1415,112.95324621179952
1416,122.34277010029928
1417,132.52122371842324
1418,140.51954966816356
1419,142.7236905193513
1420,136.37258881106027
1421,123.67918705302509
1422,108.69142772705527
1423,96.51025328844116
1424,98.90660616737387
1425,130.29442877034944
1426,199.92566348158198
1427,281.5922526644108
1428,334.2061386627074
1429,324.95326380228926
1430,281.74057039231866
1431,259.3300007267171
1432,304.4924970855591
1433,401.69200173649006
1434,506.61845693612213
1435,578.5088049314354
1436,606.2959879611935
1437,593.0939482573267
1438,544.8296280463519
1439,489.75496955075323
1440,467.0739149904048
1441,509.24040658394824
1442,591.3493865502087
1443,659.895797109577
1444,667.6785804854244
1445,622.895678905481
1446,561.5780346032489
1447,516.956589819385
1448,496.6642868031022
1449,495.4670678135617
1450,507.40987512126867
1451,521.3016510094621
1452,523.3473377755126
1453,502.23987773230874
1454,467.2772132096534
1455,437.836286555651
1456,430.3630401381042
1457,437.44741634589536
1458,440.3163575903809
1459,423.22980630678376
1460,394.14070495557553
1461,371.88499602386946
1462,371.6796220268043
1463,382.0075255089332
1464,379.5986490456153
1465,345.72193524439444
1466,293.018326746389
1467,247.2127662276789
1468,229.60519640068833
1469,233.00756001557056
1470,239.07179986159645
1471,231.08685876853542
1472,202.21867960803775
1473,149.21720529502
1474,72.92237878905416
1475,-3.826856904261149
1476,-50.79455873190909
1477,-46.591783592075444
1478,-13.297588332766281
1479,13.688970249578233
1480,7.745835411457847
1481,-18.859049536304155
1482,-43.108741227172686
1483,-48.130296237528455
1484,-41.3847710852815
1485,-36.33922222849196
1486,-42.2437060639968
1487,-53.553278926012354
1488,-61.49099708477297
1489,-60.411916745135386
1490,-54.31809404521027
1491,-49.06058505497458
1492,-48.823445774895845
1493,-53.313732134546626
1494,-61.48749999123538
1495,-70.61980512861373
1496,-74.0767032553058
1497,-64.71025000352347
1498,-41.526500927689995
1499,-15.902511503055393
1500,-0.6283371243234797
1501,-2.2650331042677863
1502,-16.60665467234503
1503,-38.35625697332853
1504,-61.276895065916506
1505,-77.74062392135784
1506,-80.1834984220668
1507,-67.55657336024706
1508,-46.96690343651062
1509,-25.895543258487123
1510,-8.13754733946007
1511,6.411029903036251
1512,18.021134148578312
1513,26.721711175247947
1514,32.31670686101188
1515,34.79506718510129
1516,36.788738229400224
1517,42.865666179824075
1518,56.674797327706074
1519,71.52607807117874
1520,74.50345491656208
1521,54.971874479744656
1522,21.670283487572306
1523,-7.196371220771653
1524,-16.84714269237429
1525,-14.614083859205493
1526,-16.451247536740993
1527,-33.90068642256392
1528,-56.76745309498256
1529,-68.1946000116368
1530,-59.06917950811567
1531,-49.57424379656095
1532,-66.81784496428281
1533,-121.66803497236378
1534,-177.8018656542672
1535,-190.47038871444693
1536,-140.91065572695697
1537,-68.35871813405083
1538,-19.606627244794254
1539,-14.75343423366212
1540,-28.038190139151084
1541,-29.74494586237688
1542,-14.061752165677717
1543,-6.7806596712171086
1544,-34.51571885958492
1545,-91.40098006839617
1546,-138.60749349088837
1547,-138.31330917452942
1548,-90.65647701959824
1549,-25.110046777790558
1550,29.789931949180755
1551,63.02640971100118
1552,73.75433721015634
1553,61.53966530334037
1554,27.927345002864058
1555,-24.682672521929817
1556,-90.09943594326614
1557,-143.39399377351674
1558,-153.81839436378687
1559,-106.62668590250814
1560,-43.17791641401527
1561,-17.074133757134405
1562,-56.038385623760405
1563,-123.72871953744288
1564,-174.2821828519618
1565,-183.69082274990433
1566,-166.51768624124907
1567,-141.04682016193237
1568,-117.37527117242735
1569,-95.22908575631573
1570,-74.06231021886197
1571,-60.88699068557435
1572,-69.56417310078632
1573,-111.938903226207
1574,-173.5932266395057
1575,-223.2451887328616
1576,-234.1938347115256
1577,-215.67020959239562
1578,-192.90735820255395
1579,-185.45232517784825
1580,-185.08615496142738
1581,-175.24489180230466
1582,-145.25357975391125
1583,-103.11026267264333
1584,-60.50898421641614
1585,-28.725787843200123
1586,-18.137716809576887
1587,-38.61281416927977
1588,-80.46412277173567
1589,-106.23368526060312
1590,-78.46854407230785
1591,-6.297741434584168
1592,56.26568063499326
1593,58.3326803304808
1594,7.43521605902788
1595,-51.08475355763585
1596,-76.34926968174568
1597,-63.283373258012034
1598,-21.985105012143322
1599,35.29549455062988
1600,87.39938514704136
1601,110.76552671727313
1602,93.34387942644116
1603,53.863403666087834
1604,16.04606005567439
1605,-5.887190555931738
1606,-13.857387088951327
1607,-11.178568231200188
1608,3.7462275634106845
1609,37.89596207638715
1610,96.70959732614938
1611,161.7160955695399
1612,197.57341930334587
1613,175.43353126580314
1614,116.52239443810959
1615,64.23097204595433
1616,50.93122756103185
1617,61.481124702570014
1618,68.10662743885405
1619,56.65269998875738
1620,47.40030682327324
1621,65.62041266705
1622,113.49798249993182
1623,157.70998155849793
1624,163.53437533759825
1625,131.39112959191243
1626,95.14021033749577
1627,87.20058385332322
1628,111.38321668285607
1629,154.8490756355959
1630,204.81112778864008
1631,250.0293404882559
1632,279.7816813514446
1633,287.6771182675084
1634,280.7916193996307
1635,268.79815318644796
1636,259.56068834363396
1637,257.67419386548136
1638,267.12363902648667
1639,284.75699338294544
1640,299.8282267745444
1641,302.44530932595444
1642,296.7332114484352
1643,295.62390384143873
1644,309.0543574942167
1645,328.8085436874271
1646,340.1584339947576
1647,335.6130002845339
1648,330.2212147213495
1649,343.21704976768433
1650,376.66647818553884
1651,402.9674730380639
1652,393.1520076911993
1653,354.9080558153146
1654,332.2105913868472
1655,364.2925886899611
1656,428.826022318186
1657,468.8728671760855
1658,442.037098480906
1659,378.86369176424796
1660,332.04462287373553
1661,332.03986797467405
1662,352.77840355174703
1663,359.7842064106753
1664,339.48525367991897
1665,307.19652281235176
1666,279.648991586967
1667,262.88463811056135
1668,254.76944081944202
1669,252.09737848113673
1670,245.89343019609805
1671,224.79957539941552
1672,184.56879386253968
1673,144.69806569500724
1674,129.43437134616215
1675,144.7416916068878
1676,165.122007611355
1677,163.00630083874694
1678,132.5465531150203
1679,87.94974661464767
1680,43.82386386237613
1681,11.737887734985634
1682,1.7978014630589314
1683,18.314588632743835
1684,43.25023318753665
1685,53.26071943005354
1686,38.65303202382711
1687,15.815155995080204
1688,3.3890767345355925
1689,3.9597799992088767
1690,4.209251914212473
1691,-7.975521025429771
1692,-28.359551952970833
1693,-44.36885362812063
1694,-45.790438435216856
1695,-31.970318381393554
1696,-4.649505094749657
1697,29.171990177502266
1698,52.632156570865845
1699,48.68898360543426
1700,19.949461187736233
1701,-12.363420387398946
1702,-28.39767043496613
1703,-25.14229787792101
1704,-7.520311245286393
1705,18.964281329725054
1706,46.97747211160549
1707,68.79725376444912
1708,78.73061935386067
1709,74.41456234885572
1710,54.10107662378232
1711,20.954156460240483
1712,-17.879203450988825
1713,-55.60200800801704
1714,-88.3902616958967
1715,-113.55896858469168
1716,-130.15513232750982
1717,-141.96875615855788
1718,-153.24984289116946
1719,-155.27239491584442
1720,-122.6834141982572
1721,-34.58290227728958
1722,69.33613973696447
1723,112.15771116519863
1724,42.65681176088765
1725,-74.59155828769599
1726,-143.4883983554737
1727,-118.10670737853343
1728,-49.061483852105084
1729,3.8492741714726435
1730,16.503569084798073
1731,-3.2515962725447025
1732,-44.386218611934964
1733,-82.35229419364896
1734,-87.06181882479723
1735,-45.48578785723839
1736,8.346803814490158
1737,33.19196175527668
1738,17.820691991518288
1739,-12.215998986763225
1740,-30.788104223818664
1741,-28.190616296051303
1742,-3.8535273098868856
1743,38.59617110035197
1744,80.22648777459472
1745,98.71243202916412
1746,84.81601365892584
1747,49.95024293946608
1748,7.168130629251209
1749,-33.072312028194574
1750,-62.13507330210359
1751,-71.3531409722691
1752,-51.835502326847745
1753,5.187855839849362
1754,84.06194722957025
1755,122.47278604235271
1756,58.17938697874706
1757,-78.95923475794098
1758,-182.42406345939798
1759,-166.5270829100573
1760,-76.6352763848272
1761,-3.7096266468251997
1762,-1.7441159450918349
1763,-43.72272601230907
1764,-92.78043806250207
1765,-129.84223278873105
1766,-152.26409036079258
1767,-158.44199042287437
1768,-149.44791209124833
1769,-127.3848339519227
1770,-97.27973405829744
1771,-70.94258992880623
1772,-60.54237854455732
1773,-64.55307634696055
1774,-68.24465923534171
1775,-58.95310256456196
1776,-40.753381142605576
1777,-24.272469228189948
1778,-18.53034052833482
1779,-28.715968195944697
1780,-58.552324827372104
1781,-92.51138245997572
1782,-96.8601125696623
1783,-48.299486068438455
1784,8.538526698075657
1785,3.6979559531137056
1786,-84.08916750874141
1787,-169.12681231905844
1788,-156.88594653305427
1789,-53.93453762707304
1790,44.95644750393967
1791,61.720042548970014
1792,25.299281783491097
1793,0.30820007200145483
1794,18.32583287061243
1795,47.03421622960104
1796,48.78938679601288
1797,15.653381816242472
1798,-37.81276086135131
1799,-96.52800278383802
1800,-145.71930489108945
