800,171.55356261761926
801,204.85808286507427
802,213.30861835033465
803,198.67436309893037
804,174.02751018757408
805,152.58725174386836
806,143.88477894604284
807,144.72528202272133
808,149.1619502527269
809,151.3169719648995
810,147.61653453796043
811,137.36482440039345
812,120.05102703035755
813,95.96532695563519
814,71.68490775359624
815,56.73495205120889
816,60.63764152505428
817,86.16515690139067
818,118.9876779562369
819,142.112383515479
820,139.42545145501572
821,112.09905870091552
822,77.23538122962236
823,52.524594068163424
824,51.860871294406024
825,69.33838603732829
826,92.59731047731339
827,109.35081584649197
828,112.37807242907593
829,103.19124956175392
830,84.1575156340873
831,58.04703808894419
832,32.02998342295541
833,16.000517186993875
834,19.88880398668789
835,48.46800748294527
836,89.89729039251733
837,128.99581448857634
838,150.9777406013268
839,151.38022861862737
840,137.01343748665886
841,115.25252521059429
842,92.8146488553034
843,72.44296454608639
844,55.401627469416326
845,42.937791873720926
846,35.11661107017471
847,29.80423743352503
848,24.628822402935384
849,17.37451648284923
850,7.635469243884927
851,-3.8481706762554495
852,-16.312255571850528
853,-28.64963866819835
854,-38.6641741206422
855,-43.942717013565016
856,-42.21512335936859
857,-34.555250097424505
858,-25.459955093013832
859,-19.580097136232325
860,-19.40853594088412
861,-16.027132143351537
862,3.249252698557939
863,50.84775610678298
864,123.06651468420205
865,190.69166411584547
866,222.25933917013344
867,191.10267370012252
868,112.5278006447893
869,23.560852030318074
870,-38.645041028584274
871,-51.83674832735096
872,-29.522140570209103
873,9.53391063120307
874,47.29753275921439
875,76.51485239154272
876,98.15899520272615
877,113.41008596555503
878,123.12024855255822
879,126.94860593747899
880,124.29428019677971
881,114.66639251116385
882,100.55606316712056
883,87.66241155847729
884,81.84355618797917
885,87.81361466888075
886,104.31070372655768
887,128.1249392001355
888,156.04243604413523
889,184.5923083301359
890,209.92866924845566
891,228.17463110984409
892,235.96930534720332
893,233.76180251730557
894,223.71023230255423
895,207.99170351273324
896,190.43932408679302
897,178.1002010946445
898,178.3964407389626
899,197.27514835702414
900,225.56942842253693
901,245.24738454750877
902,238.18711948410646
903,198.0837351265577
904,148.33033251304323
905,116.9150118276184
906,129.4758724021449
907,178.72101271823703
908,233.11653040922602
909,260.56652226213146
910,241.38108421965262
911,195.05131138217712
912,148.7812980097915
913,128.55713752431984
914,137.39792251136396
915,157.89474472236907
916,171.927695076688
917,166.18286366367738
918,145.8093397447883
919,120.38121175568222
920,99.30256730835845
921,87.7094931932852
922,86.31307538156216
923,95.61439902706888
924,114.99754846865244
925,138.8236072323125
926,160.03465803339805
927,171.6767827788226
928,170.03806256928738
929,155.19757770152137
930,127.4514076705209
931,89.29063117181613
932,54.34532610374026
933,39.77456956970582
934,62.201437880508365
935,117.70400655661979
936,176.03835033051246
937,205.23554314897865
938,180.73365817546983
939,118.96376779244474
940,50.446943603725686
941,5.2942564368663625
942,-4.851223654467958
943,6.607572611885189
944,24.475713748984617
945,35.92026750319474
946,41.80430085660282
947,47.909880029444594
948,59.869070482543066
949,75.68093691975628
950,82.75354329042648
951,67.70795279185495
952,21.870227871762836
953,-35.83356976921459
954,-76.46037917504191
955,-71.65614013178492
956,-20.471793165096187
957,40.21572046229085
958,70.74845875309984
959,41.0784789780364
960,-24.009162321663553
961,-80.32840933169291
962,-84.52120696211205
963,-28.83950084477783
964,47.19276266922316
965,100.76763651215333
966,98.16917290221227
967,54.38042334613965
968,0.6144386418072827
969,-32.4817311191664
970,-34.81703654879948
971,-21.764428960132136
972,-10.288860364581524
973,-13.75928346931687
974,-28.067651674616172
975,-43.81291907120885
976,-51.86704043763348
977,-50.96197123755883
978,-48.639667617133455
979,-52.91208640229797
980,-69.21818509611239
981,-92.06392187607071
982,-113.0432555914058
983,-124.01614576039628
984,-122.81155256766124
985,-113.13243686145961
986,-98.93276015096671
987,-84.5634846035664
988,-75.79757304211944
989,-78.72898894224545
990,-98.70169642958354
991,-128.1226602770539
992,-148.5478459021242
993,-141.19621936405292
994,-98.23474736114531
995,-44.183397227996466
996,-9.518136932733796
997,-22.29893507424822
998,-79.31776087943217
999,-155.69358420041044
1000,-226.1133755117562
1001,-271.78310590772026
1002,-289.2997470994451
1003,-277.480271412182
1004,-235.13865178249898
1005,-163.8158617554891
1006,-83.35287548197721
1007,-21.140667715716518
1008,-4.12821381059257
1009,-35.58348971781106
1010,-84.78647198310136
1011,-118.37513774389481
1012,-110.32246472651877
1013,-74.54843124338458
1014,-38.48701619015901
1015,-28.92619904295043
1016,-51.668959855494904
1017,-87.86127925631354
1018,-117.22413844590483
1019,-123.92851919390523
1020,-110.95140383625858
1021,-86.23677527239033
1022,-57.648616962374035
1023,-31.31891292409091
1024,-11.776647730391232
1025,-3.492806506269517
1026,-9.668374926010983
1027,-29.495339210359816
1028,-61.38068612367351
1029,-103.04440297108158
1030,-143.26847759564316
1031,-164.55689837550017
1032,-149.3326542210316
1033,-93.76673457201832
1034,-25.259129394781667
1035,24.462170820658685
1036,28.215175063422976
1037,-2.2231081953705143
1038,-35.32967099976122
1039,-39.730505906101826
1040,-5.345605980204709
1041,43.86103520550114
1042,80.85742357481922
1043,83.74156455063621
1044,59.15246305776236
1045,23.5871235257855
1046,-6.708450108089892
1047,-22.90125439619078
1048,-24.279286377530298
1049,-10.545543574970907
1050,16.989976007625955
1051,51.34727388824285
1052,84.29235110954232
1053,107.9122082417125
1054,118.75784538530661
1055,116.61926217407745
1056,101.3874577778206
1057,77.84743090519987
1058,61.511179806593645
1059,69.31570227691736
1060,114.09699565846222
1061,177.834056843717
1062,228.46888227820182
1063,234.5104679632932
1064,192.10280945904015
1065,134.577901886998
1066,97.9087399330374
1067,107.07431785016615
1068,140.60462946134612
1069,164.76766816230247
1070,148.0264269243362
1071,94.61689829713214
1072,37.702074411562535
1073,11.234946982492147
1074,32.82950731157416
1075,81.95974629005559
1076,132.65965440156288
1077,161.48722172489852
1078,164.37543793682835
1079,146.18129231486546
1080,111.91077374005636
1081,70.67687069975364
1082,36.90857129039887
1083,25.39986322029108
1084,45.510733812355284
1085,85.78117000690963
1086,129.746158364429
1087,161.52668506829377
1088,173.03573592756038
1089,161.720296379699
1090,125.19435149334458
1091,69.01588597103819
1092,14.011884151970662
1093,-17.231669985285407
1094,-7.43679282004905
1095,29.84249891320269
1096,69.9531881275534
1097,89.03925738636372
1098,81.74368890599362
1099,60.93946455849709
1100,40.281565874333864
1101,29.27397404507974
1102,26.389669926100396
1103,28.278634039260396
1104,31.606846575602503
1105,33.19128739802363
1106,29.91693604396005
1107,18.792771728049047
1108,1.239773344805144
1109,-15.775080528729632
1110,-24.916811630321718
1111,-21.5404420099012
1112,-10.121994026912944
1113,2.9335096523218454
1114,11.337046057239604
1115,10.094591915658384
1116,-5.0338763435829605
1117,-38.09738258802827
1118,-83.41495097897496
1119,-120.939605968877
1120,-129.44837229874338
1121,-95.99327499553692
1122,-40.270339369594694
1123,9.969408987961287
1124,28.943944207800087
1125,14.405240144948039
1126,-20.53372961863988
1127,-62.51599177152548
1128,-100.64557327023431
1129,-127.94350133671287
1130,-137.77880345578433
1131,-126.39350737261339
1132,-101.98464109018823
1133,-75.86423286679383
1134,-58.62131121350012
1135,-51.970904891652935
1136,-51.729042910378666
1137,-53.59375452408585
1138,-53.00606922997849
1139,-44.99501676557884
1140,-24.55062710625498
1141,9.146069537248877
1142,40.24604272126999
1143,48.74226177167566
1144,16.78269578631989
1145,-49.46168636253606
1146,-128.8799160257795
1147,-200.261024775029
1148,-249.11004440021497
1149,-270.5730069071751
1150,-260.5399445152443
1151,-218.82188965487785
1152,-158.80087496524266
1153,-96.8049332918572
1154,-48.248097684208915
1155,-20.17140139339608
1156,-15.161877869766613
1157,-35.44556076057688
1158,-73.0014839076457
1159,-107.5036813450215
1160,-117.9031872966616
1161,-93.20903617411204
1162,-50.071262574197135
1163,-9.854901276725286
1164,8.903012757816214
1165,6.936444390531506
1166,-7.018641693593963
1167,-24.51728098343665
1168,-43.61550913946485
1169,-68.380361991487
1170,-103.05887553641787
1171,-145.4270859360322
1172,-180.27902951474243
1173,-190.83474275737808
1174,-165.5972623069738
1175,-117.79062496257393
1176,-67.85686767703737
1177,-34.911027554841894
1178,-22.200141849925785
1179,-22.608247963506074
1180,-28.92938344192862
1181,-38.084585974512265
1182,-52.64589339141094
1183,-75.59734366147859
1184,-104.75897489014915
1185,-122.67082531732103
1186,-109.05193331524697
1187,-49.82333738643956
1188,26.71792383841148
1189,74.59781160252805
1190,50.583287025105165
1191,-37.31968889662676
1192,-136.57615528534006
1193,-193.44115138159123
1194,-181.75571654175747
1195,-124.02089023603457
1196,-47.711712046416324
1197,22.04477833531837
1198,69.02454110959025
1199,79.07653637101066
1200,41.924724110367606
1201,-20.00993578341786
1202,-67.87848352133005
1203,-64.39095941230607
1204,-11.5204038612992
1205,49.63414263265531
1206,76.44463947835538
1207,50.57804599434621
1208,1.3143214108176835
1209,-36.523575128492666
1210,-37.142684564433694
1211,-11.38904792055655
1212,20.614293698747133
1213,40.14029911008856
1214,40.8249270529368
1215,22.688136191443846
1216,-13.688114883724666
1217,-56.4348676535883
1218,-82.51016366903059
1219,-68.56104454902106
1220,-9.915551978823714
1221,63.17527229177631
1222,116.60738645023685
1223,125.24474862300849
1224,97.07931687728342
1225,47.750049222727284
1226,-7.42409638679419
1227,-55.641162051512765
1228,-85.24018992403671
1229,-85.47122220767142
1230,-61.436301154728426
1231,-31.679469064855766
1232,-14.958768283378049
1233,-16.924241199635617
1234,-23.063930245348274
1235,-17.150877892981953
1236,9.522873345875269
1237,44.152280922119644
1238,70.10530225073762
1239,73.88689471239832
1240,59.3680156550281
1241,36.37862239538572
1242,14.2086722206177
1243,-4.0468776101843105
1244,-19.1750698644546
1245,-31.958947334616823
1246,-41.308552836569106
1247,-44.078929208179034
1248,-37.0391193077794
1249,-19.452166012687485
1250,4.6218877822730065
1251,30.58799916623775
1252,52.76212521375692
1253,61.73022298624164
1254,47.26924953339403
1255,3.686161894634097
1256,-45.68608289948861
1257,-66.0755278258921
1258,-26.485215867568513
1259,56.10280998779035
1260,132.03750674917228
1261,152.34483142360114
1262,107.35574101747807
1263,32.140192537938674
1264,-35.87785700583754
1265,-70.8364506013022
1266,-68.84663123122846
1267,-28.47844187242299
1268,44.978074505571385
1269,124.36287494172757
1270,178.0539164848342
1271,181.3581561947094
1272,149.13655114346693
1273,110.23005841674694
1274,91.03963511492657
1275,92.43923835433634
1276,100.28582526846003
1277,100.79835300912146
1278,91.84277874766394
1279,82.29005967611556
1280,81.30315300834627
1281,90.21401598121611
1282,98.63560585570576
1283,95.22787991804216
1284,73.71879548081415
1285,40.01030988407456
1286,1.7933804964268347
1287,-32.20603528388801
1288,-49.20698002792233
1289,-35.42949627496273
1290,18.249373468514023
1291,90.54058672988867
1292,147.97710107141847
1293,160.4738740912553
1294,136.33286342445444
1295,107.88202674396325
1296,106.486321761613
1297,134.86370622908635
1298,168.49313793888268
1299,182.16457472526872
1300,170.7829744652172
1301,158.00529507934516
1302,169.6064945328235
1303,212.13053083629256
1304,250.60236204675675
1305,244.61994626847445
1306,173.87024165383173
1307,84.60520640421146
1308,36.87079877084307
1309,74.62997705565522
1310,159.2976996121024
1311,225.90292484599286
1312,218.84761121629253
1313,157.86171723593816
1314,98.80220147262389
1315,93.42402254957597
1316,136.80113914632966
1317,184.4575099994845
1318,192.75709390345583
1319,156.46084971120945
1320,108.54573633498967
1321,83.1677127470366
1322,91.16073798028992
1323,110.55377112908718
1324,116.98177134985053
1325,98.08569786175303
1326,65.40150994738815
1327,33.30616695342451
1328,12.649628291243971
1329,4.277853437577505
1330,7.2718019351214025
1331,20.249433393157233
1332,39.91870748814381
1333,62.50858396431249
1334,84.23602263424709
1335,101.30798337944998
1336,109.92242615090254
1337,106.89631096961784
1338,94.27559792717238
1339,76.72924718623744
1340,59.266218981096245
1341,50.78647361815456
1342,62.849971476428436
1343,105.82767300804062
1344,166.14953873869308
1345,208.5675292681326
1346,198.16460527060826
1347,137.09372749531212
1348,71.72185676682602
1349,50.46695398553584
1350,86.51098012805141
1351,137.9358962476099
1352,158.17066347447508
1353,125.80224301632006
1354,70.92259615859439
1355,29.926684264906726
1356,25.39946877735747
1357,42.86791121690567
1358,61.69497318368667
1359,67.62861635734862
1360,68.92080249735955
1361,78.77949344331591
1362,105.5976511152403
1363,135.589237513861
1364,148.58621472089544
1365,130.2355448993103
1366,101.01619029357607
1367,94.30211322991818
1368,136.23827611655634
1369,196.48364144392144
1370,218.25417178487714
1371,152.7448297949386
1372,34.01157821245033
1373,-55.64762014120879
1374,-40.23480236145224
1375,63.24399453967908
1376,171.3917336336881
1377,203.54937807576061
1378,154.90389110491014
1379,86.21923604411586
1380,58.45537630043691
1381,82.93027536512909
1382,119.47689681374777
1383,126.39120430624189
1384,92.766161587042
1385,45.72273248513375
1386,14.429880914125533
1387,11.179570872304794
1388,23.650766442690838
1389,37.656431793068805
1390,46.797531176029224
1391,58.0250289289761
1392,79.54888947415384
1393,111.44407731864067
1394,137.50355705434777
1395,139.61129335800888
1396,111.99425099114796
1397,77.57439480005633
1398,63.344689715748245
1399,82.35210075391569
1400,110.16359301486591
1401,116.10813168345521
1402,84.10768202902
1403,43.11220940528892
1404,30.74667925029098
1405,70.49205708625323
1406,136.09530851949967
1407,190.36239924032634
1408,206.0272950228773
1409,195.3359617250171
1410,180.3463652881792
1411,177.7414717372194
1412,180.23424718026035
1413,173.86565780852743
1414,149.55966989615808
1415,122.36024980004277
1416,114.75136395961545
1417,142.58897889665968
1418,185.65006121511033
1419,211.51057760082858
1420,194.57549482138074
1421,149.8267797258177
1422,107.13539924442739
1423,92.20332038849301
1424,103.8015102500367
1425,130.08493600156453
1426,160.09156489579436
1427,189.12836426538433
1428,215.12730152263885
1429,236.56334415923175
1430,255.77745974590016
1431,276.82361593214046
1432,302.98978044589694
1433,331.63192109324336
1434,357.36200575805105
1435,374.8540024016602
1436,379.3808790625362
1437,366.50160385592335
1438,333.66814497348514
1439,293.8304706829531
1440,267.54454932774024
1441,272.0923493265873
1442,296.83083917316253
1443,317.18298743568175
1444,312.2197627565092
1445,292.8051338517571
1446,285.7850695108782
1447,313.66653859624694
1448,361.17651004274103
1449,394.04895285731163
1450,382.54283611854953
1451,336.0751289762429
1452,283.5638006509362
1453,251.46182043347198
1454,244.71615768453285
1455,257.7697818341758
1456,283.99166238136513
1457,308.89676889349084
1458,314.2500710058912
1459,284.90153842135624
1460,229.44314090964053
1461,167.37484830696485
1462,115.82363051549783
1463,74.18845750286437
1464,34.08429930161219
1465,-10.461873991303946
1466,-48.69109221504641
1467,-62.869385145434535
1468,-39.742782495474785
1469,5.2526860840916925
1470,45.436991004237825
1471,58.375102737108136
1472,46.85399181544199
1473,22.841628832032256
1474,-1.0080155608584391
1475,-8.468970652067583
1476,17.89373432789489
1477,87.05307020625969
1478,166.49700786740686
1479,210.98751825228737
1480,187.49757235781635
1481,117.09514123627105
1482,35.80319599469567
1483,-24.674292205715574
1484,-49.78935215022648
1485,-29.218012571183863
1486,37.854697851370474
1487,118.99175048906727
1488,174.4611167645844
1489,177.662768151009
1490,142.41367617120522
1491,90.28381239717328
1492,40.6531484493953
1493,6.978655996203088
1494,1.7013067531124761
1495,25.070072482179967
1496,48.93492499132935
1497,41.249836133706594
1498,-7.488222192996545
1499,-61.46727804720649
1500,-79.75135944414251
1501,-48.753494356484225
1502,-2.085710715055029
1503,22.355963590499414
1504,9.033500711028864
1505,-24.6291271628088
1506,-58.71394780123228
1507,-79.28998893603239
1508,-79.91827826125609
1509,-55.24584343391962
1510,-15.494712074691051
1511,12.663088231409347
1512,3.6505299342907165
1513,-32.51541448189255
1514,-54.357772499461134
1515,-23.23857156791746
1516,44.35316089534717
1517,91.48739750434197
1518,66.75011090375483
1519,-12.342726231760935
1520,-86.74514119829473
1521,-104.23216126340685
1522,-73.34781366685183
1523,-32.29512562128821
1524,-15.095124313009364
1525,-27.835836902665505
1526,-65.7352905259877
1527,-120.88051229451685
1528,-170.18752929632683
1529,-185.90836859675346
1530,-151.3050572391221
1531,-91.30162224547985
1532,-40.67409061732269
1533,-22.840489336324026
1534,-28.159845365069486
1535,-41.044185647783706
1536,-50.83653711106399
1537,-57.909926664609884
1538,-64.13438120195588
1539,-72.34792760120308
1540,-87.03559272575058
1541,-112.5634034250188
1542,-141.6433865351937
1543,-151.57756887994674
1544,-119.8829772711706
1545,-54.677638509701865
1546,4.863420613942253
1547,20.8681733188414
1548,-3.5214071670552585
1549,-33.45334760766036
1550,-36.72567475946471
1551,-16.674415372270232
1552,2.704403810090298
1553,1.1317560490324468
1554,-13.61938538949562
1555,-21.737047235744285
1556,-9.719256216868416
1557,4.342960942350146
1558,-7.433422481205525
1559,-60.01143320970641
1560,-123.06609796508292
1561,-156.39044346973424
1562,-139.28849644723505
1563,-99.3552836230374
1564,-71.35483172517706
1565,-72.35816748496927
1566,-88.21731763770276
1567,-101.83430892334309
1568,-105.19516808721255
1569,-101.77092188068491
1570,-95.8515970618746
1571,-93.13022039631414
1572,-100.57481865763657
1573,-123.5454186282459
1574,-148.23504710000452
1575,-148.5237308748865
1576,-104.6384967656586
1577,-45.04937159653218
1578,-19.71938220382799
1579,-64.16855543663132
1580,-143.77891815744533
1581,-202.8534972428306
1582,-203.9883195840648
1583,-167.82841208775972
1584,-126.44080167651919
1585,-102.00451528955546
1586,-95.83857988331874
1587,-106.46002243212206
1588,-124.31686992875802
1589,-128.4131493851046
1590,-98.07288783274271
1591,-38.90311232354907
1592,18.17115006970107
1593,43.603872252738256
1594,36.399027109224335
1595,14.036587500157111
1596,-7.659473736694963
1597,-26.63118378737181
1598,-46.66356986228038
1599,-70.79265919675072
1600,-98.75547905159965
1601,-129.39305671366492
1602,-159.04241949635525
1603,-177.33559474017784
1604,-172.96260981327214
1605,-148.4644921119252
1606,-129.90426906109224
1607,-144.22896811489863
1608,-179.2246167571484
1609,-179.76224250180894
1610,-94.93987289351207
1611,40.87846449198423
1612,133.20274204730595
1613,102.83893213300598
1614,-8.181992922895915
1615,-104.19106082535745
1616,-112.63829931276814
1617,-60.831736157378145
1618,-2.6543991657144943
1619,24.967683820976163
1620,28.029484926339137
1621,19.158976238501964
1622,8.15212980967408
1623,0.44391765577074693
1624,0.838311756033363
1625,8.552284052657342
1626,17.488806450433913
1627,21.84685081641055
1628,21.147388979537027
1629,17.99539273033679
1630,14.771833820588654
1631,12.34968396300792
1632,11.090914830950169
1633,10.63349805810958
1634,8.363405238242194
1635,1.3186079248853275
1636,-5.217922368901782
1637,8.830785829207343
1638,63.67770395056323
1639,142.79080338530366
1640,190.52905548213676
1641,155.8354315481265
1642,61.308902848491925
1643,-24.0975593935882
1644,-42.181983997144016
1645,-1.4393998235900654
1646,65.75416422312173
1647,129.15467919635103
1648,165.37211610664053
1649,152.60244592159597
1650,93.41063956576545
1651,32.47266792055416
1652,17.09150182412759
1653,57.905112071344774
1654,129.2604694136844
1655,203.71954455921605
1656,252.08930817253895
1657,244.14973087477574
1658,163.6007832435498
1659,62.022435812994445
1660,11.603659073760355
1661,48.96042347305047
1662,120.2996994146506
1663,158.67945725899517
1664,144.8776673232269
1665,125.58029988127964
1666,148.3703251639763
1667,201.4557133591352
1668,227.57643461169664
1669,180.39145902385826
1670,95.18575665522349
1671,40.885297522973815
1672,58.77205160204812
1673,97.40498882533757
1674,86.55507908389427
1675,4.424292227157821
1676,-87.3974019367979
1677,-121.81403364102061
1678,-88.3256331593966
1679,-28.67923080637229
1680,17.090143063357573
1681,39.37445805515199
1682,43.390683734780396
1683,33.58178962875627
1684,10.99674522470741
1685,-24.07848002823539
1686,-65.39291671904721
1687,-95.31759547438287
1688,-95.97254695815354
1689,-73.27780187107055
1690,-56.74039095017906
1691,-72.09334496838073
1692,-103.59669473392069
1693,-114.35947108987739
1694,-80.53470491362395
1695,-30.20442711627038
1696,-4.002668642098797
1697,-18.834460467962344
1698,-47.01983360268787
1699,-56.94181908644077
1700,-38.5014479900874
1701,-1.9877514145209716
1702,40.66423951000979
1703,71.11649362460957
1704,67.98597974245604
1705,22.24766664953495
1706,-31.88247689459331
1707,-51.1484821560216
1708,-23.26238042569821
1709,13.219796981400577
1710,17.278018727093695
1711,-14.56874654913554
1712,-55.45353022926656
1713,-81.12536371583974
1714,-89.38727843104289
1715,-86.53330581576529
1716,-76.15147732864352
1717,-54.37582444507689
1718,-16.384378656223817
1719,30.652828532018248
1720,64.21376560006138
1721,63.46340101568876
1722,37.249703235146626
1723,12.64564070425422
1724,12.619181859532546
1725,40.72129512936681
1726,95.03094893516754
1727,157.38611169258547
1728,178.45075181272296
1729,109.08983770338045
1730,-27.00266222967275
1731,-140.83877958141284
1732,-155.99354594625038
1733,-96.15899291668438
1734,-25.94615208195364
1735,8.1479449733597
1736,10.029266670722336
1737,-7.729218560903973
1738,-30.482542283615658
1739,-41.05173604908214
1740,-24.628831397048998
1741,9.075140146203466
1742,36.68314706939918
1743,41.47115787785788
1744,32.23014109509268
1745,23.5950652644392
1746,21.924898950710485
1747,20.522610741875724
1748,12.116169250770781
1749,-2.92445688317639
1750,-18.85029899218398
1751,-30.212388378336982
1752,-33.59475631177111
1753,-26.19243402884331
1754,-7.132452730260411
1755,20.762156420800693
1756,53.67836230062176
1757,78.34813382687616
1758,73.62543996060958
1759,25.72124970823188
1760,-36.3464678764517
1761,-68.67674369018732
1762,-47.496608578193445
1763,6.9229066679558855
1764,68.53677131246513
1765,113.02895467748522
1766,117.67342614530708
1767,68.03115516059597
1768,0.8641112326336042
1769,-27.523736062395983
1770,10.922582920910372
1771,78.09103789951087
1772,127.64259866429393
1773,141.12223508247462
1774,126.93391710003061
1775,95.02761474415729
1776,58.11829812576616
1777,30.013937441998223
1778,18.22650297878363
1779,15.522965113420923
1780,12.911294317191732
1781,8.955461158006983
1782,9.367436303083196
1783,17.140190521648492
1784,17.047694687686544
1785,-12.890080217296145
1786,-72.5331631014651
1787,-113.20758275982098
1788,-83.48536787133298
1789,-0.9595469960386254
1790,56.53485142789259
1791,28.881799087120726
1792,-36.92773220386198
1793,-58.28277049969938
1794,-1.739343721108071
1795,71.11552034822671
1796,92.17179406478044
1797,58.326449928356396
1798,15.712460585288682
1799,3.0527988316766823
1800,20.077437616655516
