800,93.76318513967817
801,109.8847875087904
802,127.60321372698854
803,143.81874053418323
804,157.19164383319185
805,166.39219868452892
806,170.12067930126796
807,167.09735904397348
808,156.04251041568932
809,135.8364050570035
810,109.82931374119835
811,87.08150636942446
812,76.98325196599399
813,87.18481867370429
814,111.7464737492337
815,138.358483558628
816,154.6511135728142
817,152.48462836322506
818,134.3392915974364
819,104.33536603491666
820,66.71311352281737
821,27.75279499183125
822,-4.3853295478820655
823,-21.461001010717155
824,-17.44396123956176
825,2.246046990314426
826,28.419279967431066
827,51.945993040331814
828,66.20644061389794
829,68.89087614569507
830,58.139552142418324
831,33.07272015634226
832,4.030630781900982
833,-11.72646634773082
834,3.1716774360429554
835,56.69530983394907
836,126.7546775756582
837,185.1400264165768
838,204.55160113481725
839,180.77964552808953
840,134.7644024107758
841,88.75611361097617
842,61.145019967649205
843,47.121361327799605
844,33.26537654373897
845,6.257303470381885
846,-35.71262103740446
847,-73.01416112736479
848,-83.6870819523865
849,-48.391149672997926
850,22.333868540254116
851,98.86820450441155
852,151.30208902180675
853,160.15575187779723
854,138.80942183858497
855,107.1333266490492
856,84.38769303066147
857,75.98274667943588
858,73.14871226394825
859,66.45581342338846
860,49.394272765688584
861,30.91431186567752
862,25.036151263289867
863,45.590010461854035
864,93.85610792640364
865,151.2846610820361
866,197.57588631234103
867,215.04999895786932
868,209.0872133146404
869,196.9477426327212
870,195.9817991148393
871,215.02959391503828
872,242.5113371373991
873,263.86723783480556
874,265.4975040077279
875,248.23234260310346
876,223.95195951323694
877,204.78655957472256
878,199.53634656747636
879,205.01152321374866
880,215.33229117723022
881,224.7488510621679
882,230.3614024125509
883,232.41014371134952
884,231.28527237975322
885,227.52698477649938
886,222.43547619722995
887,217.6009408738828
888,214.5935719741501
889,215.15356160094598
890,221.25110079194928
891,234.88637951917008
892,257.0895866885694
893,281.8109101397131
894,299.83053664545696
895,301.95865191171833
896,286.1254405772288
897,264.13108621336687
898,249.3557713240134
899,253.69967734547572
900,273.5029846464113
901,296.015872527807
902,308.378519223028
903,304.90110189785264
904,297.79379665058514
905,302.0767785122043
906,331.190221446519
907,376.8442983504028
908,414.74918105405413
909,420.2150403212672
910,380.9720458497777
911,323.8303662716189
912,283.3101691535412
913,292.08162099743276
914,348.22488724081086
915,419.0201322573266
916,470.6575193573153
917,477.60721078837923
918,446.0893677360091
919,389.94415032423603
920,323.0017176163183
921,259.45222761547666
922,213.78583726563193
923,200.53270245220665
924,228.942978002955
925,284.40681768881404
926,345.67437422479634
927,391.79579927091436
928,412.68124343313684
929,410.95085626438777
930,389.9447862655452
931,354.0631808865237
932,313.0961865273348
933,278.5339485392178
934,261.62661122578174
935,264.79431784418193
936,279.0572106063355
937,294.7254306801533
938,302.77911819080873
939,298.1184122220511
940,276.97345081751155
941,235.79437098207927
942,180.30130868327797
943,128.75439885269407
944,100.33377538740933
945,109.40957115147285
946,142.34191797741187
947,175.42094666775483
948,185.28678699659395
949,163.32956771115278
950,121.5794165334155
951,73.57646016176113
952,32.280824272613245
953,7.282633522152537
954,6.9020115480198
955,39.20908097106076
956,98.54396339710183
957,160.39677941873197
958,198.82764861713622
959,193.08668956392648
960,151.9140198230216
961,94.45975595254095
962,39.744013506704505
963,-0.453092962196024
964,-23.9614499018644
965,-29.26094475797254
966,-16.521465972187798
967,5.017097019890571
968,23.074853790780253
969,25.691912923202835
970,11.418382012176153
971,-8.115632332846872
972,-20.480024485841568
973,-16.654689802033317
974,-4.139524615708069
975,4.53557376200115
976,-2.7992929546635423
977,-28.20402402381842
978,-62.3685196736551
979,-95.43268110017016
980,-119.2264104648275
981,-133.1296108922288
982,-138.47218646776855
983,-136.71404223523678
984,-132.02508419445076
985,-131.15521929882016
986,-141.0343554529336
987,-164.39240151008744
988,-188.9292672698266
989,-199.0148634754678
990,-180.1291018115753
991,-137.7018949014473
992,-93.8931563045735
993,-71.3628005140763
994,-82.86074295413164
995,-111.8168999773934
996,-136.26118886235236
997,-135.9135278107442
998,-112.48383594488041
999,-82.88203330500983
1000,-64.33804084663825
1001,-66.36178043783002
1002,-80.2931748565079
1003,-94.85214778774025
1004,-98.71862382099607
1005,-83.09252844739967
1006,-55.85378805695291
1007,-31.772329935774906
1008,-25.478082263298347
1009,-42.76097410944749
1010,-76.790935431849
1011,-119.73789707295509
1012,-163.50179075722917
1013,-198.45254908827155
1014,-214.47010554592453
1015,-201.81439448341916
1016,-163.6753511244442
1017,-118.42291156024476
1018,-85.29701274670151
1019,-77.78759250137409
1020,-85.00458950056964
1021,-89.63794327636606
1022,-75.16759421365714
1023,-41.07348354714668
1024,-1.6755533583636861
1025,28.126253427346455
1026,37.781993043838156
1027,30.37172088720581
1028,11.66549151880281
1029,-12.586641331698047
1030,-37.00462476323628
1031,-56.41840670031888
1032,-65.70793588991
1033,-62.23316189837533
1034,-49.17403510835538
1035,-30.440506715678566
1036,-9.402528726242963
1037,15.549946047120102
1038,48.50696398776927
1039,93.48857067839708
1040,144.5848109041799
1041,180.1057286559262
1042,176.95136713327156
1043,119.70176874781282
1044,35.846975126316465
1045,-32.342972886097414
1046,-43.90803522277383
1047,4.481827407698802
1048,74.86665352468845
1049,127.18648087873225
1050,133.65134645476974
1051,109.89128647535654
1052,81.09633640391985
1053,70.91653094797402
1054,81.131904062393
1055,97.69248895264354
1056,106.23831807805618
1057,100.40942315507709
1058,91.46583516055398
1059,92.98758433498551
1060,116.06470018581967
1061,153.10721149072378
1062,188.02514630088808
1063,204.95853194429765
1064,200.1173950290431
1065,185.9817614466083
1066,176.13165637519342
1067,180.17710428300234
1068,190.76812893156784
1069,196.08475337905475
1070,185.30699998358432
1071,163.90489040655848
1072,150.52844561598067
1073,164.2076858897708
1074,211.81263081911675
1075,272.023299311797
1076,319.42970959548984
1077,332.20187922115656
1078,315.6198250663456
1079,287.4635633385333
1080,265.3031095784863
1081,256.01847866358185
1082,252.59968481117176
1083,247.0967415819141
1084,233.49966188312646
1085,213.13845797213253
1086,189.14314145961725
1087,164.73372331296196
1088,144.35021385961045
1089,133.33262279040173
1090,136.99095916294755
1091,154.0552314049528
1092,170.5854473175841
1093,171.20161407882006
1094,143.96373824679904
1095,97.0618257631595
1096,45.8558819564023
1097,5.31591154524358
1098,-20.54808135805797
1099,-38.43609324433601
1100,-55.518121204180716
1101,-75.01416292458998
1102,-89.69421668562791
1103,-90.58828135708245
1104,-70.9063563951222
1105,-41.408441838975705
1106,-21.3345383075648
1107,-29.504646996205338
1108,-67.23876967324577
1109,-113.78690867675505
1110,-146.96906691119148
1111,-151.46524784407666
1112,-135.18545550267118
1113,-110.93969447066593
1114,-91.19796988485541
1115,-84.37028743182964
1116,-96.5466533446579
1117,-133.5670743995961
1118,-190.2915579127748
1119,-245.38011173688574
1120,-276.12274425792566
1121,-266.65946439186155
1122,-227.9402815813628
1123,-177.54520579251948
1124,-132.41424751155319
1125,-101.45741774155431
1126,-88.40472799919371
1127,-96.76619031147493
1128,-124.15181721244517
1129,-158.72162173997276
1130,-187.77561743247134
1131,-201.7138183256593
1132,-203.74623894930846
1133,-200.44289432402547
1134,-197.9237999579982
1135,-196.8789718437929
1136,-194.3684264551066
1137,-187.43218074357355
1138,-176.64025213554123
1139,-168.11265852888573
1140,-168.44941828978153
1141,-182.46055024954148
1142,-207.76607370141392
1143,-240.1960083974118
1144,-275.3803745451296
1145,-306.459192804592
1146,-325.0824842850634
1147,-323.0502705419476
1148,-301.2725735735785
1149,-273.7094158181317
1150,-255.38082015046348
1151,-254.596809878989
1152,-256.65740874257244
1153,-241.85264090741293
1154,-193.9625309639341
1155,-128.3671039236924
1156,-77.28638521628818
1157,-72.18040068628761
1158,-114.12917659013874
1159,-167.81273959311693
1160,-195.73111676626831
1161,-176.13433558334327
1162,-130.59242391777843
1163,-88.03541003963801
1164,-72.74332261260497
1165,-77.42619069097054
1166,-81.6440437166093
1167,-66.14691151597981
1168,-36.414824297153245
1169,-20.787812646804014
1170,-48.325907527261734
1171,-125.58914027352694
1172,-213.92754259032517
1173,-269.26114654915546
1174,-259.3099845853576
1175,-207.04408949518438
1176,-151.55349443287196
1177,-128.918232907743
1178,-139.1483387813023
1179,-158.68384626433908
1180,-163.86478991406148
1181,-145.1912046312027
1182,-112.49312565717992
1183,-77.04058857124073
1184,-48.64362928760238
1185,-32.74228405263966
1186,-34.046589442057666
1187,-55.39658235807474
1188,-87.28230002662895
1189,-114.99377999458193
1190,-124.39106012693628
1191,-111.91417860407273
1192,-83.21317391898083
1193,-44.22808487451948
1194,-2.078950580667879
1195,34.094189548191935
1196,54.931295796002814
1197,54.34232814772804
1198,38.417246292057825
1199,16.1460096240844
1200,-3.791422752015933
1201,-15.455092020327356
1202,-14.295039650540275
1203,3.818692604685566
1204,32.66606271236378
1205,55.767028361771736
1206,56.25154696709069
1207,27.669575669964615
1208,-16.098928657882425
1209,-58.75400941209591
1210,-86.63571025313468
1211,-96.61407510369827
1212,-88.27914814621545
1213,-62.230973820307554
1214,-28.35959682027169
1215,-1.3150620925971452
1216,4.872585166547651
1217,-8.77670048622349
1218,-26.332964739049203
1219,-31.346253522358893
1220,-16.15661300643842
1221,10.365910400998473
1222,37.541270057236034
1223,56.56941908694171
1224,65.62031038457826
1225,64.47389661677153
1226,53.32013022468527
1227,35.6689634263621
1228,16.510348219084335
1229,0.9542363816854049
1230,-4.219420523115332
1231,9.169328853573461
1232,49.14043564912754
1233,110.61385079165666
1234,168.3495250023061
1235,195.39740879748388
1236,177.47745249111176
1237,136.60960619685102
1238,101.25381983031912
1239,95.16004311128927
1240,116.06822556587758
1241,152.78831652872395
1242,194.03026514515113
1243,227.87402037332322
1244,241.95953098636346
1245,224.68674557449776
1246,184.6356125471557
1247,152.62608013506724
1248,160.43809639234678
1249,217.81160919856848
1250,292.2465662608229
1251,346.4129151157522
1252,353.79060313159243
1253,325.29957751019174
1254,279.92978528899584
1255,236.0611733430651
1256,207.94368838702758
1257,208.2172769770641
1258,247.5118855128385
1259,311.3674602394567
1260,368.2339472493604
1261,387.0112924842706
1262,360.6394417370593
1263,309.39834065364084
1264,255.0379347348353
1265,214.34816933824186
1266,194.76898968005298
1267,202.68034083690873
1268,238.86216774768945
1269,285.8544152153372
1270,322.4770279086206
1271,332.06995036393346
1272,323.8131269870282
1273,316.0065020547863
1274,325.0700197169317
1275,347.6136239977568
1276,368.6172587978326
1277,373.4808678956888
1278,359.6843949494996
1279,336.1077834987518
1280,312.03097696587065
1281,292.563918657881
1282,276.6765517680233
1283,262.7988193773581
1284,250.16066445635806
1285,239.8320298664985
1286,233.1628583618094
1287,232.0630925904461
1288,240.70267509621954
1289,263.81154832011634
1290,304.06965460182073
1291,350.8669361812081
1292,388.27333519983404
1293,401.83879370239447
1294,393.57325363818563
1295,375.87665686255787
1296,361.13894513832565
1297,358.0200601372053
1298,371.6399434411942
1299,406.76853654397746
1300,456.20578085228226
1301,495.6916176872601
1302,499.75598828581496
1303,462.0688338019427
1304,417.69009530806034
1305,407.0797137962945
1306,453.88763017977726
1307,526.043785293934
1308,579.9181198977403
1309,581.720574674966
1310,547.9610902354343
1311,511.24960711621316
1312,500.03606578285326
1313,509.08040663057545
1314,517.0725699854447
1315,504.0324961055485
1316,469.65012518215553
1317,427.25539734084487
1318,390.1982526426418
1319,365.5786310851454
1320,354.2164726036044
1321,356.63171707202855
1322,370.3643043042448
1323,388.73417405498367
1324,404.78126602090015
1325,411.0755198416209
1326,399.2668751007768
1327,360.9352713269909
1328,297.980647994882
1329,241.70294452605594
1330,228.56210029005888
1331,281.0280546053418
1332,364.4007467402025
1333,429.3601159137161
1334,435.3261012966468
1335,392.6786420123517
1336,330.2876771376723
1337,275.32314570382187
1338,240.09498669722961
1339,229.44313906041134
1340,247.45754169279644
1341,289.2081334515551
1342,343.6348531524254
1343,399.44763957049327
1344,442.8564314409887
1345,457.8311674600682
1346,428.8817862855667
1347,361.18822653775896
1348,284.5904268000777
1349,230.12832561986397
1350,212.61186150905996
1351,221.47097294491869
1352,243.94559837068482
1353,271.2056761962813
1354,302.4411447989605
1355,337.83194252396424
1356,372.18800768515575
1357,385.99927856565773
1358,357.3256934184501
1359,278.13719046699043
1360,189.33370790578738
1361,142.57518390099722
1362,174.08155659098156
1363,248.7127640868548
1364,310.8287444730504
1365,314.5094358078277
1366,272.3747761238046
1367,218.6447034284738
1368,183.94915570467856
1369,170.3580709111211
1370,166.58138698281255
1371,162.44904183157087
1372,159.91097334643382
1373,168.01711939412598
1374,194.68741781947392
1375,232.26180644582746
1376,261.8802230754827
1377,265.5526054900456
1378,245.2888914508476
1379,220.4090186993035
1380,210.16292495728158
1381,218.36054792745563
1382,232.77182529363927
1383,240.64669472113746
1384,237.9050938570399
1385,231.09696033055843
1386,227.35223175330248
1387,227.50084571959633
1388,223.27273980673635
1389,205.76785157526865
1390,176.58611856925017
1391,155.2874783164898
1392,163.10186832880936
1393,204.78922610224618
1394,252.15948911729174
1395,273.1325948390913
1396,253.15848071765504
1397,218.46708418803428
1398,201.05834267051432
1399,218.2121935707837
1400,247.48857428010706
1401,259.8674221754518
1402,236.01867461965958
1403,186.4622689615644
1404,127.49814253613658
1405,75.56623266457973
1406,47.696476654449725
1407,61.018811799756804
1408,123.08317538105621
1409,203.31950466551461
1410,261.6577369070128
1411,269.43780934618917
1412,248.81965921050687
1413,236.13322371429422
1414,258.3784400587956
1415,296.64524543220796
1416,317.80357700967943
1417,297.6033719533607
1418,260.00456741240305
1419,245.24710052293813
1420,283.87090840810197
1421,348.76592817801065
1422,391.6820969297314
1423,374.3693517472693
1424,323.2076297015228
1425,290.02686785023434
1426,318.14700323796205
1427,392.0379728960015
1428,471.4197138423442
1429,521.6721630815882
1430,549.825257604858
1431,581.3789343897606
1432,637.9931304002457
1433,711.7077825865472
1434,780.8228278850547
1435,825.738203218234
1436,844.0138454944863
1437,841.4196916080473
1438,824.7156784388517
1439,808.111742852403
1440,809.507821699648
1441,843.2238518168197
1442,893.5997700252938
1443,929.9755131314414
1444,926.091017926472
1445,893.8762211862595
1446,864.4910596711943
1447,865.2254701259899
1448,889.6393892795077
1449,914.3527538445978
1450,917.8555005178969
1451,895.7175659796303
1452,851.9788868934247
1453,792.1693999061208
1454,733.1690416475594
1455,697.4477487303702
1456,703.0454577497767
1457,732.6321052833682
1458,752.0176278908857
1459,731.9819621140159
1460,682.0650444761486
1461,629.6268114821505
1462,597.4871996181591
1463,574.816145351313
1464,535.9835851295556
1465,461.04945538136417
1466,369.3436925155311
1467,296.6062329209126
1468,271.6470129661757
1469,278.70596899956763
1470,284.5830373486606
1471,261.868154320091
1472,217.62125619931612
1473,171.4222792503715
1474,139.6711597155827
1475,121.56783381534115
1476,110.50223774782717
1477,100.44430768875463
1478,88.34397979111782
1479,72.07119018492267
1480,51.045874976927735
1481,31.77797025038126
1482,22.677412064762393
1483,29.664136455512562
1484,48.62807943378357
1485,73.02917698615602
1486,95.9273650744035
1487,109.16257963520547
1488,104.31475657989722
1489,78.16383179421427
1490,43.59974113801945
1491,16.54242044505736
1492,7.551805522678478
1493,12.617832151609036
1494,25.300436085664842
1495,37.66955305152078
1496,38.33511874844589
1497,15.497068848060735
1498,-30.52466100591846
1499,-75.0101351979174
1500,-90.55941814076141
1501,-70.892574275902
1502,-46.08966807366596
1503,-49.32076403349129
1504,-84.11592668415324
1505,-110.21522058400114
1506,-85.05871032118921
1507,-8.716460513885977
1508,65.35146418948534
1509,82.1749991100387
1510,35.44407953822156
1511,-29.73135926640498
1512,-67.72138207537319
1513,-69.91605369150057
1514,-60.365438949089366
1515,-62.56960271412572
1516,-75.81860988444714
1517,-81.71252538995577
1518,-63.71141419275591
1519,-29.61534128736639
1520,-1.8943717008478416
1521,-0.3785704929887288
1522,-21.698002756460482
1523,-51.082733616949554
1524,-75.60282823330454
1525,-94.31835179769223
1526,-110.98936953569864
1527,-128.31594670647246
1528,-143.87814860283106
1529,-153.70604055138392
1530,-154.7796879126072
1531,-147.879156080975
1532,-134.62451048501316
1533,-116.97581658740819
1534,-97.83313988505142
1535,-80.24654590913451
1536,-67.47610022517256
1537,-63.121868433079726
1538,-70.81391616718975
1539,-89.67230909628597
1540,-111.1871129236406
1541,-126.25839338701371
1542,-134.37621625865177
1543,-146.35064734529078
1544,-173.0517524881434
1545,-207.0095975628501
1546,-222.22424847948423
1547,-194.1657711824555
1548,-134.04423165049775
1549,-80.62969589658132
1550,-69.17222996782948
1551,-91.69189994544831
1552,-115.10877194461136
1553,-111.38291211435535
1554,-90.34438663746005
1555,-78.1332617303051
1556,-94.43960364272971
1557,-126.59347865787822
1558,-151.94495309202466
1559,-155.3440932943904
1560,-148.01096564694672
1561,-146.9156365642084
1562,-160.73817249301646
1563,-177.61863991230166
1564,-182.65710533282254
1565,-171.03363529692797
1566,-155.6382963782653
1567,-150.9311551814917
1568,-161.79227834197263
1569,-181.01173252547233
1570,-200.7495844278037
1571,-216.74590077449466
1572,-227.99074832041333
1573,-233.284193849413
1574,-228.04630417390035
1575,-205.55714613447162
1576,-162.1667865994459
1577,-117.23529246445469
1578,-100.37273065196314
1579,-131.77916811082105
1580,-185.9646718157419
1581,-223.72930876681676
1582,-217.3431459889871
1583,-175.48625053149772
1584,-114.0586894673379
1585,-50.83052989266798
1586,-7.471838926223427
1587,-5.652683708700351
1588,-43.27313140211845
1589,-84.39324918918464
1590,-92.13310427262331
1591,-65.60276387445447
1592,-38.55229523534581
1593,-43.48176561383116
1594,-81.33124228559609
1595,-132.61079254270044
1596,-178.06048369279233
1597,-202.60038305830676
1598,-192.8605579756295
1599,-143.54107579425545
1600,-83.67200387591947
1601,-51.49340959370056
1602,-67.00536033112076
1603,-101.32792348119801
1604,-117.78116644550573
1605,-103.4051566331782
1606,-85.5299614599262
1607,-94.13564834700446
1608,-123.21228472017901
1609,-127.32993800863551
1610,-64.19867564391097
1611,39.881434941222324
1612,110.3203263139203
1613,85.0179310424046
1614,1.1941816971539083
1615,-60.030989147875516
1616,-39.46764891402199
1617,27.484134983349577
1618,80.24429513613177
1619,81.42276414477237
1620,52.239474619636894
1621,22.864359182354747
1622,11.067350467208598
1623,15.528381122554492
1624,33.38738381226358
1625,63.24429121719004
1626,105.10903603666338
1627,157.35155099001895
1628,201.40176881814477
1629,208.7596222850534
1630,160.6650441795082
1631,92.83796731662551
1632,59.68832453957657
1633,92.66604872124844
1634,151.67107276597744
1635,183.0133296113072
1636,163.99275222974939
1637,127.55927363061528
1638,111.59282686183906
1639,130.09334501185003
1640,171.71076121147962
1641,223.61500863588844
1642,270.9860205065288
1643,297.68373009313837
1644,292.83807071576484
1645,276.3089757468206
1646,278.9663786131787
1647,318.34021279828085
1648,370.3504118443143
1649,403.0469093543652
1650,403.0096389946684
1651,388.89853449684233
1652,382.02352966018043
1653,391.5645583539772
1654,414.6815545198733
1655,447.55445217424676
1656,481.80318541064116
1657,506.52768840222234
1658,511.81789540426325
1659,493.063740756681
1660,447.2551588866081
1661,380.1220843109786
1662,319.5444516391708
1663,296.31219557567783
1664,315.1052509228248
1665,344.4235525835138
1666,351.71703556399916
1667,327.69563497672425
1668,280.989286043161
1669,222.4579240967323
1670,175.1114845857319
1671,166.93990307629247
1672,210.47311525542682
1673,266.54105693405654
1674,285.553664050105
1675,251.50087267164963
1676,206.22261900007288
1677,194.87883937328115
1678,213.9294702689731
1679,214.93444830790577
1680,156.333710257255
1681,67.3871930339792
1682,11.914833708236984
1683,29.646569506860033
1684,66.30233781684001
1685,45.332076188879
1686,-53.084277659008876
1687,-140.3367858378915
1688,-120.11551028421673
1689,-0.7105127561171685
1690,105.96814517036364
1691,97.3704021050853
1692,-8.893803152359396
1693,-133.92453160872537
1694,-212.40184407319066
1695,-234.41580115336183
1696,-203.74646325124377
1697,-136.57389055916065
1698,-72.35814305561871
1699,-51.2392805011732
1700,-72.03736243415551
1701,-94.48244816645456
1702,-82.9245967791685
1703,-50.39386711828047
1704,-32.960317790209956
1705,-53.18400715738426
1706,-86.04499333372405
1707,-96.39333418007664
1708,-70.45908729963776
1709,-29.492310033265312
1710,2.586940545199468
1711,12.66860763369732
1712,-3.6373652932506957
1713,-47.30103447968395
1714,-99.25245588328835
1715,-132.75168517044767
1716,-134.72877771123967
1717,-129.7937885743595
1718,-148.04677252202237
1719,-185.29778400477335
1720,-193.33687715629276
1721,-128.78410578810872
1722,-32.61952338427545
1723,2.3568169040063367
1724,-85.84513773617255
1725,-219.95543977393572
1726,-284.8241413290998
1727,-228.85129416655036
1728,-122.70694969059514
1729,-48.12115893925875
1730,-31.093972578517423
1731,-47.64544089646188
1732,-73.28561379744133
1733,-92.44454079610477
1734,-93.17227101141725
1735,-72.99885316061227
1736,-55.54433555307878
1737,-67.94876608418599
1738,-103.30219222906635
1739,-112.99466103632767
1740,-53.66621912171104
1741,42.823087338319965
1742,102.64321261303667
1743,75.49411142397548
1744,0.8657389515192335
1745,-61.141949158456555
1746,-78.91899678787377
1747,-65.77544733969626
1748,-38.42134373107183
1749,-5.736728386469622
1750,28.878356769302627
1751,60.12387031807884
1752,73.09977135546978
1753,50.19601949795833
1754,-7.4674251098658715
1755,-63.00060178804051
1756,-77.53354931389003
1757,-48.67630591462512
1758,-4.4289092598719435
1759,28.778603545852093
1760,38.71619597074641
1761,18.153832063389927
1762,-28.328523539525122
1763,-70.27090560539546
1764,-75.36334829784573
1765,-42.625885168790774
1766,-0.03854915042757057
1767,26.848627452824076
1768,34.675612972467206
1769,28.52237638412589
1770,12.148887315835964
1771,-13.964883943617679
1772,-49.10896643628803
1773,-78.48338852656525
1774,-73.68817789263812
1775,-15.473361517848389
1776,53.361034318004386
1777,65.81498404742342
1778,-2.8615371759296977
1779,-78.33855346831842
1780,-75.93608820695226
1781,7.155835979092444
1782,96.32719721798458
1783,126.17797440436516
1784,106.48814720863083
1785,75.20769608627597
1786,54.71660228735345
1787,33.11484786595429
1788,-4.95758431019749
1789,-54.15071055007138
1790,-91.08454632961184
1791,-96.23910628192243
1792,-74.39440418737104
1793,-38.48045296362034
1794,-0.3372646555890242
1795,30.405149574673487
1796,45.11677945819247
1797,47.077615629350476
1798,48.587649636234346
1799,58.78687395109773
1800,71.6952819808539
