800,99.15347766083869
801,119.40901679213675
802,115.19347843283595
803,90.68699394140276
804,60.447694513398346
805,39.167711184561085
806,37.07517483384072
807,48.97521618641258
808,66.33996581664451
809,80.80855415102269
810,89.59411147104765
811,96.89676791610145
812,107.35765348624227
813,124.90489804501885
814,147.95363132218972
815,172.31698291645625
816,193.80308229812
817,209.1000588117313
818,217.15004167868483
819,217.23615999979393
820,208.7265427578168
821,192.51031881995004
822,170.8956169403009
823,146.23656576229132
824,121.16729382107769
825,99.80192954588347
826,86.72960126232829
827,86.48543719471854
828,98.654565468295
829,114.32611411145263
830,123.75721105793218
831,118.21998414895643
832,100.22056113536473
833,79.21706967968476
834,64.7606373581857
835,62.216391662898786
836,63.427460003596934
837,57.52396970975042
838,34.15904803244666
839,-3.0611778537322607
840,-35.30158084884715
841,-42.96603392578072
842,-11.503410128454561
843,43.23941742993702
844,94.0775755686418
845,113.9861910410591
846,93.6523905363847
847,56.6873006812566
848,30.279048041348688
849,39.14875912293701
850,79.81056037444432
851,130.79457818794253
852,170.35493890063663
853,183.87276879629826
854,179.2111941066978
855,168.66634101297768
856,164.114335647012
857,167.50330409274284
858,170.6383723874569
859,164.865666523071
860,144.1393124473616
861,116.23043606517149
862,93.47216323959765
863,88.04461979312964
864,102.85993150878312
865,126.17322413118563
866,144.95062336764113
867,147.49825488917304
868,133.9372443315242
869,110.49371729614359
870,83.44679935113254
871,59.99461603217242
872,49.54729284342466
873,61.83795525839014
874,105.42072872076369
875,171.4597386452415
876,237.84611041830522
877,282.1399693989961
878,288.36644091963626
879,263.7966502865429
880,220.9157227807118
881,172.12478365845982
882,127.59895815207165
883,95.12237147039104
884,82.3541487993989
885,94.16441530276734
886,120.81629612238157
887,147.82191637884716
888,160.873401171958
889,155.52987558114728
890,141.81046466591943
891,130.89129346623668
892,132.59548700290816
893,146.77017027792954
894,168.78246827482144
895,193.97950595891416
896,217.38540827764427
897,233.3993001607987
898,236.34630652073702
899,221.6685522526168
900,196.28016223456052
901,173.82226132781852
902,168.00897437691037
903,185.49442620972786
904,215.19274163763566
905,243.27604545552913
906,256.7664624418803
907,254.64611735876497
908,244.7101349518498
909,234.94963995038506
910,231.38175706714264
911,233.77861099836355
912,240.6903264236489
913,250.54902800587206
914,259.78684039102245
915,263.0468882080713
916,254.91129606877985
917,231.75218856751053
918,196.85369028100922
919,155.1469257681556
920,111.72701956972378
921,75.60809620806958
922,59.87128018686235
923,77.7896959907448
924,136.58146808498987
925,216.19072091514772
926,288.90557890665696
927,327.66416646444304
928,325.95060797249425
929,301.3360277934298
930,272.7645502680216
931,255.62829971473275
932,247.254400429204
933,239.25297668373878
934,223.39715272676767
935,197.8520527822884
936,168.9698010492939
937,143.64152170117086
938,127.53933888510073
939,119.62237672141782
940,116.53275930295604
941,114.9676106943989
942,114.11605493158277
943,116.5282160207953
944,124.99821793805131
945,141.03418462836999
946,158.68324000499888
947,169.31350794866012
948,164.42011230674325
949,141.6121768925168
950,107.00882548428672
951,67.35418182457579
952,29.61236961924078
953,1.9885125366236025
954,-6.853265793350147
955,11.464158219921956
956,52.23890812680111
957,92.72310743646267
958,108.84587961595025
959,82.46334808920074
960,29.287636236063918
961,-22.990132608712884
962,-47.107835156486544
963,-34.441348165744785
964,-1.1065484431765071
965,35.067687155289605
966,58.996481723397665
967,70.3449583034726
968,73.6892398853197
969,73.55544940510117
970,72.58970974419753
971,71.1191437280686
972,69.31987412507988
973,66.02802364532727
974,53.58371493945742
975,22.353070597444457
976,-36.72478685261558
977,-116.25973494573918
978,-190.4276512812994
979,-232.4184135242922
980,-223.37789940660332
981,-178.31998672828922
982,-121.24555335887635
983,-75.57347723867497
984,-51.25063638010215
985,-44.96890886901565
986,-52.86017286606511
987,-70.30430660804086
988,-89.99718840926653
989,-104.0206966629612
990,-104.91570984265672
991,-93.07310650359068
992,-75.46076528413869
993,-59.2605649072284
994,-49.67238418181114
995,-46.0651020042842
996,-46.72659735998059
997,-49.972749324633696
998,-54.42843706586609
999,-58.925539844700324
1000,-62.30793701705079
1001,-64.02150803525365
1002,-64.93913244959913
1003,-66.145689909863
1004,-68.72106016687758
1005,-73.44912307406594
1006,-79.13075858902994
1007,-83.74284677514152
1008,-85.2602678031144
1009,-81.50490195260863
1010,-70.08562961386087
1011,-48.5933312892721
1012,-16.591887595070148
1013,15.629820737069167
1014,34.15491285838107
1015,25.47450780133113
1016,-10.77727552203396
1017,-59.51731832175392
1018,-104.77950193166544
1019,-132.46470781107564
1020,-136.4408175464523
1021,-112.66771285315735
1022,-57.87127557715576
1023,15.83161230326732
1024,82.06806867577143
1025,113.90621129220744
1026,96.35715776688266
1027,52.04102557479018
1028,10.967932049856245
1029,1.0109943831666897
1030,21.802329621183162
1031,53.157054663952295
1032,74.51428626331835
1033,74.00814102113327
1034,59.56873538742366
1035,41.853185658595976
1036,30.735607975608218
1037,29.284118322138966
1038,37.12083252276898
1039,53.80686624111149
1040,76.61433497799408
1041,99.16735406958833
1042,114.75503868555461
1043,118.33250382717779
1044,114.15186432550036
1045,109.6722348394378
1046,112.11272985389405
1047,121.9784636778877
1048,132.40755044264006
1049,136.15810409969527
1050,128.31623841899273
1051,112.21106698698713
1052,92.9877032047043
1053,75.64026028585067
1054,63.03585125486461
1055,56.484588944998904
1056,57.260585996386
1057,64.30695485411343
1058,71.46280776624917
1059,71.88925678192936
1060,60.4894137493975
1061,45.2313903140257
1062,40.028297916396696
1063,58.54524779031635
1064,102.27135096083657
1065,156.3177182423242
1066,204.63346023644772
1067,234.29468733021713
1068,245.64050969401615
1069,242.50503727958494
1070,228.8743798180676
1071,211.2386468180066
1072,198.09594756334445
1073,197.98739111144096
1074,211.62908629106823
1075,221.49414170040473
1076,207.4496657050422
1077,153.95676643597653
1078,80.59155178758192
1079,23.106129415629766
1080,16.54660673525359
1081,64.37509091894026
1082,129.06468889451753
1083,170.32350734312422
1084,159.90165269720273
1085,115.71023113846059
1086,66.73434859586632
1087,40.10411074360127
1088,38.20962299905659
1089,45.91799052078386
1090,47.783318206480544
1091,36.78771069094182
1092,22.163272344057987
1093,14.999107268749867
1094,23.70131929895615
1095,41.138011997587455
1096,54.57528865450513
1097,51.68025228447732
1098,29.327005625133097
1099,-6.518348865047301
1100,-49.50670900879777
1101,-91.98097291208614
1102,-122.81303896614554
1103,-130.29780584953005
1104,-105.62017253013437
1105,-63.3330382672375
1106,-29.295302613545573
1107,-28.839865417206966
1108,-65.2396268238681
1109,-114.02248727868937
1110,-148.91334752840885
1111,-151.76610862334383
1112,-131.99567191942515
1113,-104.87393908026388
1114,-84.86281207912907
1115,-77.9931932010295
1116,-85.36098504469737
1117,-107.86909052464398
1118,-140.01041287317275
1119,-166.7998556424045
1120,-172.4833227063118
1121,-147.7087182627056
1122,-108.40494683530233
1123,-76.74291327569881
1124,-72.9225227654133
1125,-93.73868081788532
1126,-120.69129328049894
1127,-135.21226633657716
1128,-132.34450650739382
1129,-128.83092065418532
1130,-143.36041598015072
1131,-187.54090003243073
1132,-243.4982807041397
1133,-285.6974662363318
1134,-290.92236521999985
1135,-264.42988659807634
1136,-230.41093966739209
1137,-213.17843408068074
1138,-222.00927984855844
1139,-242.4343873414873
1140,-257.8836672917532
1141,-256.8040307954361
1142,-247.61938931438453
1143,-243.73565467815388
1144,-257.27773908599374
1145,-286.2125551087902
1146,-319.6870156910063
1147,-346.7690341526486
1148,-359.24152419120037
1149,-352.78439988356695
1150,-323.38657568800227
1151,-271.23396644603963
1152,-211.0734873844376
1153,-160.7990541170784
1154,-136.6505826468965
1155,-139.70798936779647
1156,-162.97419106654888
1157,-199.23710492471582
1158,-236.7776485205286
1159,-258.47273983078594
1160,-246.88529723276406
1161,-196.3692395060698
1162,-133.6474858345482
1163,-90.97495580813847
1164,-94.40456942475248
1165,-127.79924709213446
1166,-157.48790962972635
1167,-151.53547827050897
1168,-114.26287466285794
1169,-83.48702087238235
1170,-98.10483938376456
1171,-168.75725310258713
1172,-249.3041853571558
1173,-286.76255990032405
1174,-243.83530091129614
1175,-156.6083329974499
1176,-82.60558119610869
1177,-74.1859709763703
1178,-122.16142824086819
1179,-177.1518793275609
1180,-189.87325101150782
1181,-147.14447050664603
1182,-85.2604654675306
1183,-44.10516399111111
1184,-49.10449461846838
1185,-82.77238633655361
1186,-119.71776857993063
1187,-137.89057123250495
1188,-138.15972462923128
1189,-130.94815955783633
1190,-126.37880726053118
1191,-128.4375994356924
1192,-135.76846823956657
1193,-146.80134628795167
1194,-156.7311666578753
1195,-155.027862889252
1196,-130.5753689865578
1197,-79.55461942048532
1198,-25.600549129576393
1199,1.183906478125209
1200,-24.07718847653632
1201,-81.96677034547429
1202,-130.8227759549627
1203,-130.63214260723362
1204,-83.70680808208635
1205,-34.54371063847975
1206,-29.26678901609921
1207,-85.38498243693721
1208,-164.33923060686175
1209,-221.0424737171652
1210,-222.54065244611775
1211,-185.11670796049293
1212,-137.5285819171113
1213,-105.60821646435215
1214,-89.54055424367834
1215,-76.2275383911201
1216,-53.04911253877799
1217,-21.035220816316723
1218,5.33419214757123
1219,11.069181223703708
1220,-9.990199219069837
1221,-47.50389531529436
1222,-89.2818537043604
1223,-123.75402153192772
1224,-141.4803464513443
1225,-133.53077662506075
1226,-94.10526072602079
1227,-40.983747939066234
1228,-2.7461879623115237
1229,-6.122531008499209
1230,-44.45272780638879
1231,-82.7567296020843
1232,-85.57448816039141
1233,-42.35595576613014
1234,19.108914774526056
1235,67.76017013274759
1236,84.0378564557559
1237,81.19201936551872
1238,78.37270395748783
1239,90.3199547993172
1240,107.7238159296121
1241,113.01433085666758
1242,90.84154255726207
1243,51.215493475396215
1244,20.036225521100278
1245,22.503780069222557
1246,57.378197958229066
1247,94.3595194890404
1248,101.8477844238314
1249,71.39303198490052
1250,38.975300853497174
1251,45.62462916868935
1252,116.47105452625692
1253,221.634613977536
1254,319.2953440283545
1255,373.08328063791487
1256,381.66845921772074
1257,357.47091463050856
1258,313.0706811891887
1259,261.9877926557856
1260,218.4522822404324
1261,196.28418260031685
1262,197.37352583868778
1263,209.9703435038573
1264,221.65466658819423
1265,226.7665255271695
1266,232.52595019838918
1267,247.5529699206345
1268,274.6076134529212
1269,297.26990899359043
1270,295.17988417937886
1271,254.15756608451193
1272,195.05298121983105
1273,151.11615553190495
1274,152.2971144021667
1275,193.84588264605554
1276,250.6524845121894
1277,297.89694368153323
1278,323.0992832665688
1279,325.3795258105183
1280,304.4276932865396
1281,265.0238070969499
1282,219.56788807247358
1283,181.08995647147822
1284,157.9900319792432
1285,147.63813370723437
1286,145.72428019240397
1287,149.4684893964677
1288,161.83077870524357
1289,187.2311649279709
1290,227.78966429665343
1291,270.8762924654111
1292,297.9310645098467
1293,292.7039949264399
1294,264.93509763192924
1295,240.62438596273387
1296,244.8618726743589
1297,277.45756994084513
1298,314.25148935421566
1299,330.4336419239444
1300,318.70403807641924
1301,296.7326876544412
1302,284.05959991674354
1303,289.5547835374782
1304,299.0482466057856
1305,295.33999662531824
1306,269.4200405137981
1307,239.2983846026127
1308,228.62503463639405
1309,254.19999577261115
1310,297.77327258120386
1311,329.9048690442105
1312,325.33478855540307
1313,292.3030339199686
1314,255.16960735416615
1315,236.69451048502742
1316,237.62774435004758
1317,243.30930939692553
1318,239.25920548327485
1319,221.61743187638422
1320,197.15398725297928
1321,173.09886969899344
1322,156.0220767093706
1323,151.6336051878552
1324,165.55345144683452
1325,197.1816112071574
1326,233.6480795979969
1327,260.6128511567131
1328,269.3359198287344
1329,267.05727896744975
1330,263.82692133413
1331,267.2948390978472
1332,275.4310238354192
1333,283.7054665313608
1334,288.03815757787197
1335,287.0890867747985
1336,280.46824332966753
1337,268.3156158576785
1338,254.99119238175626
1339,247.01496033258263
1340,250.14690654867627
1341,260.5270172764649
1342,267.8052781703809
1343,262.2116742929775
1344,248.5861901150529
1345,244.9388095157865
1346,269.039515782908
1347,315.42829161286863
1348,350.85511911102185
1349,340.9199797918445
1350,281.4028545791389
1351,215.28372380628934
1352,189.50256721650476
1353,222.99936396308476
1354,277.5140926097192
1355,307.7667311307705
1356,287.35725691160405
1357,240.53564674891823
1358,199.97187685109566
1359,189.53592283855687
1360,202.04775974416225
1361,223.48736201359497
1362,242.30470350577343
1363,258.2997574932997
1364,274.55249666288546
1365,293.3128931158244
1366,311.9209183684761
1367,325.88654335274805
1368,330.4497384166316
1369,318.9404733247011
1370,283.76871725868114
1371,219.79443881800398
1372,146.67760602038288
1373,98.55818630240901
1374,106.54614652016426
1375,158.92145294985494
1376,213.34407128844032
1377,229.00396665431253
1378,204.82110358797217
1379,173.98544605270035
1380,169.76695743531673
1381,197.9156005468576
1382,235.65133762335608
1383,259.33413032659155
1384,261.6539397448705
1385,255.44072639382284
1386,254.5644502172163
1387,259.89507058779236
1388,253.46254630809744
1389,215.97683561136546
1390,148.90789616239636
1391,89.15568505843112
1392,76.98015883010703
1393,126.31127344235938
1394,198.41898429538742
1395,248.32324622561282
1396,251.7140135066693
1397,232.27123985039543
1398,220.51487840787922
1399,232.49488177045896
1400,245.38120197079843
1401,229.86379048396338
1402,172.1425982284818
1403,106.1775755674862
1404,75.13867230980759
1405,105.40583771113961
1406,164.25902047515956
1407,205.98816875475495
1408,198.59323015317568
1409,164.4541517252619
1410,139.4908799786699
1411,151.61336087512063
1412,192.85153983165037
1413,245.30536172191023
1414,292.9747708774521
1415,329.43971108904043
1416,351.1901256080091
1417,355.79595714758034
1418,346.5871478842637
1419,328.8336394592243
1420,307.48537297969415
1421,285.4922890203943
1422,265.08432762498524
1423,249.66142830749232
1424,250.3235300538272
1425,281.1805713232443
1426,351.49249004986996
1427,437.08922364423415
1428,499.7607089948033
1429,509.10688246956124
1430,491.967679917585
1431,500.50303667064327
1432,577.6028875448264
1433,694.2071668421686
1434,788.0558083523192
1435,805.0887453541964
1436,758.5859106176977
1437,693.9572364054056
1438,653.2326544742918
1439,648.6420960775049
1440,677.8454919660908
1441,736.0527723908035
1442,799.1238671038936
1443,833.2487053609239
1444,810.3472159226094
1445,751.7393270566699
1446,703.5249665397059
1447,705.9640616590877
1448,747.7565392148572
1449,791.7423255216618
1450,804.3213464106993
1451,783.693527231675
1452,743.8587928547968
1453,698.287067672758
1454,654.7882756027648
1455,618.4723400885778
1456,593.6291841025468
1457,578.3287301477103
1458,567.6809002598711
1459,557.7156160096965
1460,551.5627985048777
1461,555.6223683922417
1462,573.2042458599317
1463,584.9883506395945
1464,561.7546020085738
1465,480.99291879213524
1466,366.7732193656957
1467,262.51542165708634
1468,204.55944314883527
1469,183.46520088044417
1470,171.87261145070988
1471,146.93159102005666
1472,112.73205531287022
1473,83.17391961989233
1474,69.40709880058057
1475,67.48150728551627
1476,68.4070590788433
1477,65.20366776068659
1478,60.72124648962745
1479,60.889708005175635
1480,68.4489646302718
1481,72.2089282737852
1482,57.1295104330693
1483,16.220622196491604
1484,-25.757825753968064
1485,-36.16592314016634
1486,3.1462399148458644
1487,59.46857288942556
1488,89.03098486600356
1489,64.78338453372635
1490,11.305680191144347
1491,-36.962220251085455
1492,-55.31040926747664
1493,-45.23897971498627
1494,-12.648024830257782
1495,31.552361773163284
1496,64.73208610760412
1497,62.70105381409667
1498,19.389170165184623
1499,-34.873659932203736
1500,-65.62753193391472
1501,-59.732541655663226
1502,-40.888785270135486
1503,-36.056359304078796
1504,-53.915360635335674
1505,-76.05588648991034
1506,-82.36803443897224
1507,-69.48190239587348
1508,-54.977588613117405
1509,-56.865191679349664
1510,-70.30481051627248
1511,-66.36654437560719
1512,-17.080492835983023
1513,65.58324420016106
1514,134.3345665097022
1515,144.23337355198055
1516,100.98956447196724
1517,47.42303810343583
1518,23.563692972173158
1519,30.201427299189163
1520,44.51613900396114
1521,45.777725707681384
1522,33.326084736543635
1523,16.301113125020493
1524,2.162707619194407
1525,-12.649235319935542
1526,-35.97481951308873
1527,-72.63414905934042
1528,-112.53732833273716
1529,-141.03446197890298
1530,-147.57565491159585
1531,-137.26101230928543
1532,-118.85063961168635
1533,-99.27464251628953
1534,-80.0331269748458
1535,-61.67619918987839
1536,-46.223965611126914
1537,-39.03653293201569
1538,-45.81400808607032
1539,-64.05649824333705
1540,-77.13411080676815
1541,-67.52695340861465
1542,-37.605133906761694
1543,-16.078760381087704
1544,-32.117941129763494
1545,-82.04278466557662
1546,-128.84339971219742
1547,-136.63989520045288
1548,-109.3523802645741
1549,-81.64096423842238
1550,-85.4357566516992
1551,-116.34686722614788
1552,-148.90640587170128
1553,-160.3394826826734
1554,-148.92520793387484
1555,-121.97669207673425
1556,-87.73104573540331
1557,-58.852379702835606
1558,-49.420804936860804
1559,-68.0164325562182
1560,-104.13937383659504
1561,-143.06174020663093
1562,-171.93864324391507
1563,-182.52819467095105
1564,-167.39150635113037
1565,-128.3166902846515
1566,-83.36685860444413
1567,-51.95412357207897
1568,-41.51959757364966
1569,-44.37339311562937
1570,-52.2956228207222
1571,-65.78539942370662
1572,-93.25383576722197
1573,-141.046044797582
1574,-188.22213956054475
1575,-196.32423319706686
1576,-135.68143893904926
1577,-43.56887010504761
1578,12.90935990399521
1579,-16.163862390892973
1580,-97.19865054242837
1581,-171.50911817268025
1582,-195.9863789687406
1583,-176.97154667831273
1584,-130.60773510531544
1585,-76.63305810547354
1586,-42.3266295818612
1587,-55.27556348046528
1588,-110.56197378569232
1589,-157.09597451589434
1590,-142.83467971884966
1591,-72.3072034672332
1592,-4.545659854091355
1593,4.474837011746786
1594,-38.92882698977883
1595,-88.1177659853256
1596,-102.30609410358375
1597,-86.40192547059814
1598,-64.6863742051446
1599,-56.37255441405432
1600,-58.51958018753794
1601,-62.24056559445671
1602,-59.91962467765552
1603,-47.33387144916742
1604,-20.99341988549895
1605,9.143616077153638
1606,10.3031225476916
1607,-50.45201431506939
1608,-148.62690829760504
1609,-196.80667312680634
1610,-113.92542246515404
1611,53.81873009418268
1612,170.50167103221247
1613,122.72928690906338
1614,-24.183535631136692
1615,-125.85390985526647
1616,-78.0449489362909
1617,50.39623405173734
1618,144.5835261386619
1619,137.11881446324514
1620,80.68098627817744
1621,45.94492895514486
1622,58.47852998987037
1623,74.46367700720839
1624,46.76625776623041
1625,-15.881839834664788
1626,-51.60972775260234
1627,-4.668517795116713
1628,96.2206783850379
1629,173.12974929505253
1630,164.3995836072645
1631,101.98507016436815
1632,49.98209798464268
1633,51.819556267200824
1634,86.44633439724748
1635,120.44932195136607
1636,134.05940870279846
1637,132.00848462678186
1638,121.75743990584306
1639,115.07516493516596
1640,128.32755032795467
1641,175.06648692079943
1642,234.64886577907237
1643,264.8835782023343
1644,234.9355157297705
1645,181.56657014562006
1646,165.78063348465002
1647,222.30359803761348
1648,303.8683563567429
1649,347.7018012612716
1650,329.3378258429366
1651,290.5163234715201
1652,278.1051878004182
1653,304.0803127722047
1654,345.9255926241949
1655,381.002921894089
1656,400.0721954255587
1657,401.4333083738784
1658,383.01615621160454
1659,340.72063473421076
1660,269.8636400657815
1661,176.524068664703
1662,94.18181732938865
1663,60.05878320397824
1664,84.8348637841209
1665,142.53095692268835
1666,204.77596083558637
1667,248.04577410752427
1668,252.54329569782567
1669,204.73642494624255
1670,132.830061578803
1671,82.23210571364689
1672,82.08445786689663
1673,106.9510189585435
1674,120.25469031834109
1675,106.50837369170767
1676,86.54897124566924
1677,83.77438557477399
1678,100.42051970708235
1679,119.19827711011203
1680,123.29956169683464
1681,106.11427783167164
1682,65.99133033651196
1683,7.144624496741017
1684,-43.70293393270185
1685,-54.586438721289596
1686,-19.227983156813934
1687,19.608339960701414
1688,15.308438325102543
1689,-39.0817798697808
1690,-111.22740592399714
1691,-168.68453062533627
1692,-192.95624424315065
1693,-172.62363652219938
1694,-106.10779667644056
1695,-30.1718133828399
1696,9.177225224841095
1697,-10.896768437689389
1698,-69.7028813990546
1699,-141.56320012590731
1700,-197.91081051668152
1701,-207.4397978952893
1702,-147.37524700482209
1703,-63.0732420012464
1704,-32.076866447048815
1705,-99.24920330492205
1706,-194.5023349313742
1707,-223.44834307038946
1708,-152.7373088470249
1709,-49.252312761014764
1710,13.984565319637113
1711,16.967246165095276
1712,-17.45134880988553
1713,-65.98929753949415
1714,-110.54367730041486
1715,-134.99856470532177
1716,-131.67003569640838
1717,-115.97216553886938
1718,-106.84802881439646
1719,-107.38869941463236
1720,-100.38025053462479
1721,-69.7387546662867
1722,-26.412283591807864
1723,2.0470916229260183
1724,-5.214699365080378
1725,-38.400726169305926
1726,-79.25205766711588
1727,-109.22276199309636
1728,-109.22190653242797
1729,-62.066557914225996
1730,11.3492179951445
1731,55.99135609874611
1732,26.921792075763733
1733,-44.92453761178149
1734,-97.59469571230511
1735,-90.97074417793738
1736,-45.47374415777267
1737,8.320244008900772
1738,47.127160799358535
1739,56.596947514228304
1740,25.772546284284545
1741,-28.757099922751877
1742,-75.04704729538389
1743,-89.53935117151195
1744,-80.80806603158999
1745,-64.92524549178233
1746,-57.10794229707608
1747,-71.19120831443797
1748,-118.26209452587682
1749,-174.51665102159677
1750,-191.57792699304446
1751,-136.0989707260087
1752,-48.708829593675546
1753,8.284449950309863
1754,6.597822378817
1755,-16.872756901828325
1756,-20.28933154484912
1757,-3.574944256026356
1758,-1.4116367866954533
1759,-39.8214499267433
1760,-89.97742349759028
1761,-104.02159634513373
1762,-63.19600633272239
1763,-12.358690334103812
1764,-2.748684226344267
1765,-43.44002288275806
1766,-104.557740165832
1767,-156.65386892011156
1768,-182.32544096510355
1769,-168.79648708815512
1770,-117.27003703732225
1771,-61.56211951424848
1772,-38.37876216699442
1773,-45.060991582888164
1774,-41.007833281362764
1775,4.230688293228013
1776,46.35554977879656
1777,11.901728902721516
1778,-121.23079551095361
1779,-254.76304353428532
1780,-278.0260341282283
1781,-184.8927851353783
1782,-68.09431327272978
1783,-11.100634124428325
1784,-16.58176213450315
1785,-56.92471059959462
1786,-105.37849166165688
1787,-137.31711630069003
1788,-129.96659432741762
1789,-90.20893437599443
1790,-50.79814389666353
1791,-38.587229148453844
1792,-43.56419519182418
1793,-43.43404588133126
1794,-28.426783858261842
1795,-12.96741054328595
1796,-13.14292612906138
1797,-28.439329572882343
1798,-45.76761858927421
1799,-54.983789642592455
1800,-60.62083793962847
