800,41.63919383448956
801,19.239011009523892
802,35.54068825577815
803,82.18437820383588
804,134.0002336068883
805,165.57840734123238
806,160.2090524067862
807,131.05232192753647
808,97.74836915197557
809,79.5473474535047
810,83.11941033082257
811,99.33471140826805
812,118.08340443615089
813,130.43564329106266
814,137.00158197612654
815,142.81137462127117
816,152.91517548343109
817,168.84313894675688
818,183.12541952277388
819,186.92217185053596
820,171.89355069673002
821,139.82971095578432
822,101.8908076499265
823,69.5769959292229
824,52.608431071601444
825,51.51526848285539
826,63.837663696573145
827,87.0657723741333
828,115.00975030457812
829,135.16975340452882
830,134.43593771805354
831,101.83845941650907
832,49.897474798362964
833,5.763140288994691
834,-3.2843875595372083
835,37.16504793126478
836,99.91160356605906
837,149.3554362753548
838,151.13670311522583
839,103.06556126693249
840,38.09216803657364
841,-9.093319145293208
842,-10.650742724094016
843,19.960054978366315
844,53.89923176341472
845,62.46694555506292
846,36.163354399472155
847,1.0886164644634846
848,-12.737109961051829
849,21.30633353237863
850,91.54910547414329
851,161.86136451298626
852,195.73326941633786
853,171.54497906969482
854,114.5766524759274
855,59.36844875460338
856,39.250527141244675
857,59.70304698662949
858,97.67616775599345
859,128.83004902829452
860,133.70485049538365
861,118.48073196121186
862,97.84785334095614
863,86.33637466021355
864,90.3564560540799
865,103.38825776626982
866,117.80194014820154
867,126.50766365805612
868,127.4355888598293
869,121.08587642234124
870,107.97868711825504
871,91.54418182306654
872,82.21252151405497
873,91.43386726925564
874,129.48838026637168
875,189.64622178169157
876,252.17755318899617
877,297.04253595840055
878,308.3213316552665
879,284.9641019389783
880,229.2510085618178
881,143.96221336773488
882,44.96787829114146
883,-37.79183464430025
884,-73.69676332696145
885,-40.826745558471885
886,37.148380944954624
887,121.73877855125284
888,174.88460971117638
889,181.7560369569601
890,161.67322290097945
891,136.66633023437862
892,126.44552172568365
893,133.7809602194102
894,153.81280863464417
895,181.6812299636058
896,213.1163872702109
897,245.15844368859507
898,274.95756242165044
899,299.65390673951333
900,316.08763997806454
901,320.9489255374083
902,310.92792688031113
903,285.89480753067073
904,253.76973107193044
905,223.702861145488
906,204.45436144911946
907,199.4243957353283
908,208.02312780974898
909,229.57072152947512
910,262.057340801437
911,299.1531495806794
912,333.69831186872034
913,358.74299171182247
914,371.1973531992935
915,371.39156046174503
916,359.7857776693727
917,337.01016903016534
918,304.27489878817505
919,262.94013122171236
920,214.66603064155242
921,167.87276138913148
922,138.09048783473554
923,141.1293743756487
924,186.92958543430905
925,258.76128545647407
926,332.414638909313
927,384.1298102795481
928,403.53696407155076
929,396.0362648054379
930,367.8878770151423
931,325.771965246493
932,278.2686940552612
933,234.5782280052099
934,203.73073166613358
935,187.87636961186035
936,180.34530641828496
937,173.88770666135497
938,162.79373491506158
939,149.7435557494191
940,140.3573337284215
941,140.15523340801883
942,151.05741933403806
943,170.12405604013293
944,194.07530804569797
945,218.84133985379958
946,235.98231594905155
947,235.4384007955323
948,207.41975883465966
949,153.34655448305966
950,90.32895213044503
951,36.57711613744141
952,7.751210833464938
953,4.211400514532215
954,20.767849441101134
955,52.190721835871955
956,90.61018188161324
957,124.56639371894198
958,142.31952144412935
959,135.03972910686934
960,110.36718070805182
961,81.7820401975332
962,62.55447147187988
963,56.4746383721249
964,54.772704681498
965,47.828834123169145
966,28.663190357947315
967,4.66593698201541
968,-11.99276247537091
969,-9.462744554190067
970,13.066154134046883
971,42.72409690397035
972,65.77124699401975
973,70.55776756414343
974,55.593821693424616
975,22.45957237775474
976,-27.044817472529758
977,-85.33918503499626
978,-138.2733675774889
979,-171.38720246049888
980,-174.3805271395595
981,-154.8131791676078
982,-124.95499619738985
983,-96.83581598386809
984,-76.62547638661636
985,-64.74381537222871
986,-61.3606710167478
987,-66.04588150807649
988,-76.13928514841973
989,-88.48072035670702
990,-99.89002567104035
991,-106.20703975114338
992,-102.54160138079897
993,-83.95354947031046
994,-50.28272305898281
995,-15.498961317563953
996,3.8578964492735395
997,-7.251989199543459
998,-44.22845784397032
999,-88.86134920533732
1000,-122.68050314883112
1001,-134.19575968598838
1002,-128.37695897720005
1003,-112.57394133422713
1004,-94.15654722268482
1005,-79.61461726456946
1006,-69.58799224077666
1007,-62.34651309360561
1008,-56.11002092930721
1009,-49.47835702058546
1010,-41.511362809160346
1011,-31.338879908256786
1012,-18.95075010519031
1013,-9.156815363883652
1014,-8.406917827411235
1015,-22.870899820547493
1016,-50.098603852333326
1017,-77.56987261860559
1018,-92.14454900456985
1019,-84.99247608736187
1020,-65.38349713858588
1021,-47.407455626917
1022,-44.43419522062868
1023,-55.95355979019223
1024,-68.54539341083364
1025,-68.29954036510935
1026,-47.47584514547634
1027,-17.794152456888696
1028,5.235692780643149
1029,7.383845429460052
1030,-8.59953986832079
1031,-27.9943086934054
1032,-35.870306851891655
1033,-24.757380377868685
1034,-4.0653755360017385
1035,14.435861175883474
1036,20.736483024184054
1037,19.71664303697071
1038,23.856494001356623
1039,45.49618846091107
1040,86.17587871308751
1041,130.10571680658722
1042,159.9458545388061
1043,161.87644345320405
1044,141.7976348367265
1045,112.4195797172033
1046,86.1824288607404
1047,68.93633276913533
1048,59.24144167727718
1049,55.25790555054118
1050,55.485874082189184
1051,59.47549669078944
1052,67.02692251759618
1053,77.68030042397186
1054,87.55577898877527
1055,90.28350650577522
1056,79.45363098105008
1057,54.57630013040216
1058,28.051661376748598
1059,13.99986184754016
1060,24.451048372162404
1061,55.675367479352644
1062,96.79296539461029
1063,136.90398803759308
1064,167.96858101954604
1065,185.71688964070927
1066,186.13905888773843
1067,167.48523343111447
1068,137.51555762257703
1069,106.49017549251585
1070,84.1892307474318
1071,72.55286676733522
1072,67.17122660318273
1073,63.454452974299784
1074,57.6726882658204
1075,48.156074526115844
1076,33.50475346422536
1077,13.258866447300534
1078,-6.0214455019558955
1079,-14.536041707839104
1080,-2.7347818442121934
1081,27.932474062958136
1082,61.77586563304067
1083,82.15553212819941
1084,77.87161245086281
1085,58.72424514115664
1086,39.54356837439809
1087,34.06971995854292
1088,41.7128373316682
1089,51.6730575594338
1090,53.03051733257416
1091,40.785352964361664
1092,21.40770038811388
1093,2.7176951546589407
1094,-8.834527570144928
1095,-14.518833007950889
1096,-18.415086770381095
1097,-24.62315486156149
1098,-37.772903680577656
1099,-63.01420002399027
1100,-105.53691108829662
1101,-163.6909044724307
1102,-217.68604818021413
1103,-244.7222106228437
1104,-226.0192606213477
1105,-175.1670674090492
1106,-121.42550063402268
1107,-93.6644303615285
1108,-102.69372707648654
1109,-136.6332616858963
1110,-182.1229055212716
1111,-224.79253034109206
1112,-246.8320083331928
1113,-229.73121211722355
1114,-158.83001474702542
1115,-59.50828971307055
1116,19.344089055148288
1117,29.207247186730456
1118,-39.988690133044656
1119,-141.5135981650892
1120,-224.04735261889255
1121,-249.76982965490242
1122,-234.32090588687242
1123,-206.49045838424718
1124,-192.9683646744943
1125,-195.31450274549206
1126,-198.62875104782142
1127,-187.95098849715214
1128,-161.7610944765347
1129,-139.9789488387505
1130,-144.44443190861602
1131,-189.18742448530065
1132,-255.6878078446225
1133,-316.9554637413494
1134,-347.87027441149803
1135,-346.362122574601
1136,-325.65089143598925
1137,-299.1564646890747
1138,-274.45872651757963
1139,-249.91756159783836
1140,-223.0628551009977
1141,-194.67449269528333
1142,-178.3823605482321
1143,-191.03634532890283
1144,-246.6663342101001
1145,-327.82221487059905
1146,-397.5338754973236
1147,-419.05120478754725
1148,-382.92409195109576
1149,-318.862426712496
1150,-259.5960993131739
1151,-228.42500051360184
1152,-215.77902159545374
1153,-205.05805436375886
1154,-182.05199114901734
1155,-154.8607248093649
1156,-143.47414873265734
1157,-167.21215683860646
1158,-220.1946435808677
1159,-266.351503949154
1160,-267.8126334712979
1161,-206.267928215344
1162,-117.12728479162433
1163,-44.99060035479488
1164,-27.057772605905484
1165,-50.40869979443414
1166,-81.30328072032171
1167,-87.40141473599033
1168,-66.60300174836448
1169,-44.7379422208669
1170,-48.60613717542219
1171,-88.21748819443746
1172,-139.87189742278133
1173,-175.84926756974528
1174,-175.2995019110149
1175,-149.6925042905914
1176,-119.95817912276652
1177,-105.6964313940025
1178,-110.95716666490443
1179,-129.64029107206807
1180,-155.42571133004276
1181,-181.12333473316357
1182,-198.3230691574554
1183,-198.5548230625045
1184,-178.13850549329982
1185,-147.76402608209355
1186,-120.74129505022574
1187,-108.25022320995595
1188,-106.79072196628294
1189,-106.75270331874526
1190,-98.92607986321673
1191,-82.25076479367999
1192,-62.66667190402222
1193,-46.39371558977109
1194,-36.94181084986667
1195,-33.17087328838352
1196,-33.48081911627196
1197,-37.05156515307863
1198,-46.213028828638926
1199,-64.00512818479001
1200,-92.2277818770417
1201,-122.13090917625232
1202,-139.67442997029502
1203,-131.40826476570692
1204,-98.73233468932631
1205,-57.84656148991962
1206,-25.57086753979638
1207,-11.515175836413619
1208,-11.249410003976664
1209,-18.70349429500311
1210,-28.66735359190716
1211,-39.46091340854764
1212,-50.264099891774094
1213,-59.79683982295683
1214,-62.50906061952446
1215,-50.630690336445696
1216,-17.061657667747568
1217,30.518108052012394
1218,69.78867684626493
1219,77.93011809497511
1220,48.112500533201455
1221,3.365892249647004
1222,-29.999639314757587
1223,-34.064027368254756
1224,-22.00720576967251
1225,-14.139109029791143
1226,-27.289672312736002
1227,-51.52883143731924
1228,-64.75652287838966
1229,-46.07268376817228
1230,2.7027481024233566
1231,60.51983428247331
1232,105.93863565977699
1233,131.61921245954727
1234,151.94162424316164
1235,183.12592990689518
1236,230.19218768068822
1237,266.20045512691104
1238,258.5207891391492
1239,185.37324594101483
1240,84.9478810849414
1241,16.01474945102018
1242,31.163905245830392
1243,113.01540200130512
1244,200.28929257358686
1245,232.74562914190756
1246,198.81446320749455
1247,140.38584559246556
1248,101.96982643875526
1249,107.02645520704755
1250,138.76578067573064
1251,175.7678509398611
1252,201.95271341013176
1253,219.5004148118751
1254,234.551001184067
1255,252.09451787833132
1256,269.60100955800044
1257,281.59052019714727
1258,283.1630930796473
1259,276.47877079826503
1260,268.6075952537394
1261,266.4196076538974
1262,269.5948485127574
1263,269.58335764969706
1264,257.4551741885625
1265,232.55033655687112
1266,209.89888248496572
1267,206.30084900522343
1268,230.57627245125514
1269,265.5151884571369
1270,288.5876319566505
1271,281.9736371825293
1272,254.4932376657307
1273,224.39646623472254
1274,208.64335501478308
1275,210.44393542730904
1276,224.95823818915233
1277,247.12629331196695
1278,269.5181301015564
1279,282.483777157262
1280,276.4532623713494
1281,250.05661292840887
1282,214.29385530478976
1283,181.1350152680261
1284,158.66011787629395
1285,145.47918747788026
1286,138.8422477106651
1287,136.03932150162655
1288,134.5704310663441
1289,132.0055979085464
1290,126.98484281964193
1291,125.24818587829395
1292,135.39564644999155
1293,164.87724318664368
1294,208.61299402619989
1295,253.63291619226766
1296,287.2670261937492
1297,306.01533982452383
1298,315.0678721630866
1299,319.8846375722824
1300,321.0656496989668
1301,312.2809214737663
1302,286.7304651108043
1303,245.15429210745424
1304,204.6824132441161
1305,184.5548385839993
1306,196.9115774729362
1307,230.3626385391999
1308,268.6380296933439
1309,298.18775812805325
1310,319.5318303180138
1311,337.710252019815
1312,356.7230282718265
1313,372.46016339415655
1314,376.9516609885559
1315,362.9875239383946
1316,334.05775440861544
1317,301.1023538457448
1318,274.9613229778788
1319,260.2046618147124
1320,255.24236964757984
1321,258.1744450495171
1322,266.65088587531136
1323,277.6416892616289
1324,288.09685162707865
1325,294.5663686723783
1326,292.9402353804635
1327,279.0384460166697
1328,254.4309941288957
1329,237.18787254779818
1330,248.2490733870036
1331,299.48458804334405
1332,365.67440719708793
1333,412.11852081221514
1334,411.62691813669153
1335,380.95958770276593
1336,352.7765173272892
1337,356.16769411204405
1338,389.5031044440948
1339,435.72273399615915
1340,477.8865677269914
1341,502.07458988178405
1342,496.41678399259035
1343,450.41313287876255
1344,380.1336186474091
1345,325.63822269386947
1346,326.6869257022008
1347,384.5897076456986
1348,454.70654778740936
1349,490.2174246806899
1350,475.8323161697663
1351,445.59119939030825
1352,437.7240507700408
1353,469.9108460293555
1354,517.8415601819415
1355,552.0761675354552
1356,553.3746416921658
1357,529.8969555496751
1358,494.3630813016025
1359,457.35299043831947
1360,421.79665374769684
1361,388.9540413158702
1362,361.8551225280062
1363,351.5798660691198
1364,371.528239924879
1365,430.2102113824458
1366,506.77574703134087
1367,569.5048127642822
1368,590.2673737781297
1369,569.1233945747481
1370,519.3128389619542
1371,454.30567005446574
1372,388.8818502748654
1373,338.62134135457745
1374,317.9241043348793
1375,325.58009956791284
1376,349.1892867177394
1377,376.391624761387
1378,399.77707198991993
1379,416.1955860095568
1380,422.71712374276103
1381,418.221641429398
1382,403.42909462786884
1383,379.2494382162822
1384,349.4626263936534
1385,321.40861268111803
1386,302.5273499231407
1387,294.088790288768
1388,288.37288527290366
1389,277.07958569759285
1390,261.7088417133036
1391,260.650602800275
1392,293.8348177698481
1393,361.31143476582474
1394,423.4904012658426
1395,436.08166408279067
1396,383.2751693662067
1397,315.4508626037259
1398,292.36868862253687
1399,343.73859159084714
1400,418.40051501938797
1401,451.794401762927
1402,405.8301940217898
1403,324.2878333434219
1404,266.70726062395806
1405,273.53841610981726
1406,318.20123939929726
1407,359.34566944422113
1408,365.4616445515694
1409,344.16910238516357
1410,312.8079799673451
1411,286.29821368067496
1412,268.7497392696823
1413,261.2924918425724
1414,264.4864058730309
1415,276.3514152019852
1416,294.08745303941214
1417,314.0244519661628
1418,327.70234393580176
1419,325.0410602764732
1420,299.00053169278726
1421,260.45068826770694
1422,226.8614594644805
1423,214.75277412858122
1424,234.62456048965942
1425,294.5867461635298
1426,397.07925815417366
1427,505.47202285573985
1428,566.7849660546126
1429,539.2180129314365
1430,463.09108806322183
1431,415.034115425422
1432,459.7570183940734
1433,569.0597197479074
1434,671.8321416705203
1435,705.4042057525548
1436,676.4658329938866
1437,624.8369438058398
1438,587.6874580134299
1439,578.5372948576223
1440,599.2763729975904
1441,649.3346105130277
1442,707.8419249064609
1443,743.8082331055793
1444,731.0434514655917
1445,684.6074957715973
1446,640.3302812409966
1447,630.0117225258819
1448,650.1817337154862
1449,679.6402283386433
1450,698.4471193662412
1451,698.2023192137403
1452,676.2357397436735
1453,631.4672922681802
1454,575.2668875515683
1455,525.1344358128736
1456,496.0898467284769
1457,483.4730294346955
1458,473.22389253043184
1459,454.63234407982054
1460,443.18829161490794
1461,466.40164213833305
1462,542.9323021260607
1463,626.7701775301048
1464,643.4551737812781
1465,535.5071957919845
1466,362.09614795898597
1467,231.03193416624708
1468,229.09445778774534
1469,307.82362169033695
1470,365.7593282366397
1471,321.02147928789964
1472,207.83997620694026
1473,102.7647198610739
1474,68.42561062506866
1475,91.84254838411107
1476,134.65543253682335
1477,163.79416199825027
1478,172.1486352029242
1479,160.56875010789372
1480,130.8544041958212
1481,88.87549447806123
1482,41.63191749779435
1483,-2.006430666853703
1484,-25.87965439963773
1485,-12.037858543037146
1486,44.65885160495782
1487,104.40037029405539
1488,117.51659132490386
1489,59.417408052335304
1490,-17.397286611327218
1491,-45.707600193014514
1492,9.626359344452794
1493,97.41448360565664
1494,152.23666376598703
1495,137.1827905749742
1496,81.77275435971569
1497,24.92644502829353
1498,-6.67624792679635
1499,-11.05543542518717
1500,10.788771204854129
1501,49.51626022990786
1502,81.52691951493398
1503,82.20063652680619
1504,49.08729833787402
1505,12.446791629534346
1506,4.429002695851523
1507,30.083817447159163
1508,60.60112141370337
1509,66.00079974931214
1510,42.45273723507307
1511,13.70681828303168
1512,3.5929269399111945
1513,12.020946890861524
1514,17.760761463214294
1515,0.5822536302639492
1516,-35.24469398491783
1517,-67.54019910568059
1518,-75.54437979792965
1519,-58.33735446629362
1520,-26.969241850199978
1521,7.429838979986016
1522,34.35976862690768
1523,43.63042737015712
1524,27.161695170228995
1525,-9.866548327483542
1526,-57.08442378868858
1527,-103.93205218618823
1528,-139.00955479580443
1529,-150.66705319234825
1530,-132.43466924550557
1531,-97.60252511575891
1532,-64.10074325025016
1533,-45.809446378632856
1534,-44.75875750891464
1535,-60.82879992328344
1536,-90.21969717388129
1537,-121.00157307858899
1538,-140.14455171679765
1539,-139.4087574251098
1540,-118.74431479308441
1541,-79.14134865893539
1542,-31.2799841051783
1543,1.339653545694091
1544,-4.622561264428441
1545,-47.25675432487333
1546,-99.04305165178812
1547,-132.63157948372282
1548,-140.99246427717662
1549,-132.81583270213196
1550,-116.74181163757748
1551,-96.90052816700154
1552,-74.76210957386866
1553,-52.19668333706977
1554,-34.09437712636645
1555,-26.585318797802756
1556,-34.41963638909874
1557,-55.237458115032496
1558,-84.51891236280062
1559,-116.65412768733768
1560,-142.36323280664874
1561,-151.59635659711057
1562,-140.5636280887211
1563,-121.0251764603945
1564,-107.07113103517077
1565,-107.23162127545038
1566,-120.26677677817497
1567,-143.9067272700213
1568,-175.1016026025518
1569,-209.86153274737262
1570,-243.99664779121304
1571,-271.6870779310593
1572,-285.62295346922656
1573,-279.28440480841164
1574,-256.2815624467348
1575,-226.75455697277903
1576,-200.23351906055177
1577,-181.25857946451652
1578,-172.0998690145152
1579,-173.20751861072677
1580,-176.31165921858337
1581,-170.50242186369178
1582,-152.89993762669474
1583,-145.9743376381466
1584,-177.10575307335603
1585,-248.69431514721146
1586,-310.58015510898986
1587,-306.8234042371332
1588,-226.1541938340324
1589,-120.78265522076072
1590,-46.1589197318026
1591,-21.373118709776463
1592,-30.545383500104435
1593,-56.63584544569494
1594,-86.22463588159735
1595,-108.14188612961698
1596,-113.13772749294549
1597,-104.80229125073674
1598,-92.21570865270223
1599,-82.78811091364514
1600,-76.7296292079991
1601,-72.34039466435388
1602,-68.04053835995546
1603,-62.62019131516354
1604,-54.93948448791889
1605,-46.53854876819787
1606,-43.43751497241101
1607,-51.656513837824605
1608,-63.85567601692492
1609,-58.15513207179174
1610,-15.255012468440327
1611,39.82455242885226
1612,50.80343236324552
1613,-26.09850280896535
1614,-138.49138311259594
1615,-191.4253384478452
1616,-119.10049858450657
1617,18.86300684379603
1618,129.49504834545405
1619,154.97549657664968
1620,126.37422234724181
1621,88.3010966266138
1622,64.11599054954968
1623,44.5487754221449
1624,18.389322727718536
1625,-7.70249586724276
1626,-10.036808507133173
1627,31.766256858754787
1628,97.54657248220974
1629,143.54401082213008
1630,135.2584445505454
1631,91.26974655866616
1632,48.36778996295834
1633,33.45244811122757
1634,42.50359458870844
1635,65.47110322421395
1636,89.09484809625792
1637,94.36470353922232
1638,62.79054414953498
1639,5.412244791863486
1640,-35.280319394672915
1641,-19.82727299025464
1642,39.65125971186535
1643,98.57515471165789
1644,119.54428830857978
1645,109.93853710789153
1646,93.14777802699064
1647,86.4318883017313
1648,87.87074549279896
1649,91.79422749209698
1650,92.4822125291139
1651,84.19457917736145
1652,61.88120636080748
1653,37.11197336030273
1654,37.896759820074294
1655,88.17544575419379
1656,165.11791155309402
1657,219.6040379900678
1658,214.92370622783346
1659,176.54679782507446
1660,148.79319474302065
1661,155.74277935203463
1662,169.96543443821975
1663,156.64104321006016
1664,111.34948930504288
1665,71.58065679634274
1666,75.28443019949373
1667,120.03069447907001
1668,172.48933505542482
1669,202.0902378114115
1670,202.5832890991278
1671,177.66837574668716
1672,132.94538506500794
1673,80.16420485460003
1674,32.34472341239416
1675,-0.7831704614218324
1676,-15.11958745656375
1677,-7.4846377457670314
1678,18.06156902210205
1679,50.78892372892733
1680,79.61731779429101
1681,92.98664318239207
1682,79.0767924090087
1683,33.08765854847297
1684,-22.570864759351025
1685,-59.078883302057875
1686,-66.55650228766535
1687,-71.34382633759924
1688,-102.57095947961898
1689,-159.69800514075905
1690,-212.76506614022946
1691,-233.89224468231623
1692,-224.20964234926214
1693,-199.62736009411674
1694,-175.79549823358866
1695,-166.88415644088855
1696,-186.57343373850927
1697,-233.18342849105102
1698,-276.1442383979884
1699,-282.8459604864256
1700,-245.61869110386397
1701,-180.4225259109171
1702,-105.31755987403085
1703,-47.34388725817189
1704,-37.781601619528374
1705,-91.98079579816658
1706,-169.51156191066912
1707,-218.0539913427947
1708,-210.23817474206953
1709,-159.66420201042274
1710,-84.56216229672464
1711,-16.62214398940705
1712,1.625765291008065
1713,-60.53852130063024
1714,-157.8550898266385
1715,-215.78402555898901
1716,-192.04541297182186
1717,-133.17933573390474
1718,-99.73587670110464
1719,-109.69511790883553
1720,-126.43714056446879
1721,-113.87202503977642
1722,-80.93985086330758
1723,-64.2306967127879
1724,-90.08464040748004
1725,-137.85175890054416
1726,-173.97212827136173
1727,-175.59582371787837
1728,-140.43291954890447
1729,-70.10348917640476
1730,3.3523948922229465
1731,20.634661061876614
1732,-63.46676134248446
1733,-193.44194206810062
1734,-272.5709499265886
1735,-242.19385278618574
1736,-148.96071756392303
1737,-56.61161021778935
1738,4.6134042610920005
1739,45.49426185631819
1740,77.36089953409282
1741,92.7132552510866
1742,73.501267962356
1743,14.244877629236726
1744,-43.36597477271607
1745,-47.18134724578522
1746,11.558703237848022
1747,73.27412074408494
1748,76.82485038489722
1749,20.920838326308512
1750,-53.557968203575
1751,-109.86162090655489
1752,-135.33017040629602
1753,-124.48366624025948
1754,-81.65215685166186
1755,-29.915689581377592
1756,6.495689340166791
1757,19.901934801073367
1758,16.493002816114313
1759,2.868850534870944
1760,-14.1105637501405
1761,-27.525280595275035
1762,-32.055339397606076
1763,-25.900778386723687
1764,-8.48163461654076
1765,6.012056042931363
1766,-10.309741086190115
1767,-75.38705948141614
1768,-142.14993141163723
1769,-138.79838792884584
1770,-41.05245885985096
1771,64.06782720199953
1772,78.07244290514427
1773,0.661362148124681
1774,-73.83543991209626
1775,-65.34798685176247
1776,-9.916300971986857
1777,10.97959670963246
1778,-40.42031353260609
1779,-99.39605012413267
1780,-90.00763018165344
1781,-11.215069504762141
1782,67.24161743250079
1783,84.30241749009474
1784,49.2573188704464
1785,-2.2036888730908686
1786,-44.59061482775178
1787,-74.84346671286403
1788,-92.60225087133222
1789,-92.60697226113916
1790,-65.27763444678749
1791,-6.924239590789512
1792,53.82321155491991
1793,77.61471965752389
1794,51.14028681191667
1795,11.479916549285917
1796,-0.9263861542822269
1797,18.661385130802955
1798,47.96323829626999
1799,68.34918270461822
1800,80.81922919775934
