800,84.88731701247616
801,79.23212253140264
802,57.98179562041514
803,29.863505137794164
804,12.018419438445562
805,21.69670637189938
806,67.28353328034973
807,126.53106699671207
808,170.586473842719
809,171.29191962704044
810,124.58056964341995
811,56.580588668868586
812,-4.693859038155097
813,-34.49660973949267
814,-33.52450021904315
815,-14.450367784471382
816,10.000949731101173
817,30.646613967440317
818,47.25778603555864
819,61.00362651611704
820,72.93829545783501
821,81.81495237594117
822,84.262756250645
823,76.83786552564015
824,57.900438106614274
825,35.27463135981725
826,19.855602110621476
827,22.417506642135777
828,43.432500693823386
829,65.68573946015749
830,70.21337758930167
831,40.5865691818035
832,-11.844532210669968
833,-58.517773586583644
834,-70.63000249575362
835,-32.17206704055661
836,31.663184122903658
837,87.4009017836488
838,102.59923617468758
839,72.257336971923
840,21.3193532930718
841,-23.770566303393025
842,-40.6172738192754
843,-31.23462181765899
844,-6.743463423900721
845,21.764347673417433
846,46.68095722153976
847,66.88551040262519
848,81.96415183285171
849,91.68202556154847
850,97.89127507034209
851,103.76204327232881
852,112.49347251127983
853,125.15370456085202
854,136.1168806238211
855,138.43714133135472
856,125.56162674229108
857,100.39247634243566
858,75.4868290439008
859,63.83882318443648
860,75.20159652681377
861,102.18628625820111
862,131.74602898957892
863,150.93496075516668
864,152.876217011888
865,140.29993263881715
866,116.78524193669091
867,86.34327862740793
868,56.770175853573164
869,37.82306617803442
870,39.24908158346443
871,64.1413534719477
872,99.6080126645893
873,130.40518940115453
874,142.17201333970206
875,133.49561355626884
876,112.85211854454337
877,88.96065621558046
878,69.95635389752624
879,61.85133833535565
880,70.1837356906426
881,100.03467154133341
882,144.55327088155173
883,184.03265812140944
884,198.13495708684695
885,171.7522910194848
886,117.11778257648984
887,55.374553830471996
888,7.512726269383165
889,-13.32157920355894
890,-5.4972422699229355
891,31.696856803882838
892,96.82183716659438
893,172.53181738207968
894,234.34591542934868
895,257.88124870257525
896,235.28093401114438
897,190.82708757970613
898,152.50482504825504
899,145.81526147221211
900,170.72151132254385
901,212.20468848587552
902,255.05790626463204
903,286.48927737719805
904,299.7789139580809
905,289.1529275581015
906,249.93842914459128
907,193.03552910161216
908,140.802337230185
909,115.86396274853814
910,132.19151429237354
911,176.44309991513273
912,229.90082708829596
913,274.3948027016859
914,302.24913306378494
915,315.11492390207786
916,314.96328036338946
917,303.8103070142579
918,283.8351078413061
919,257.25478625163123
920,226.41344507321355
921,196.827186555337
922,177.29511236901453
923,176.76932360743558
924,200.56092078642996
925,237.57500384493414
926,272.10867214548216
927,288.78502447469873
928,282.555159043809
929,260.4821734891766
930,230.31116487281997
931,199.18422968298
932,171.1204638346726
933,149.16096267026387
934,136.2628209600607
935,132.2351329029034
936,132.8679921267876
937,133.67949168946961
938,130.6577240791221
939,122.367781214969
940,108.25575444793958
941,87.83573456135127
942,63.39581177157925
943,40.98207572875617
944,26.912615517476297
945,26.194519657503406
946,36.24687610450201
947,51.75177225078096
948,67.39629492602853
949,77.98853039807818
950,78.51656437367728
951,63.98148199926982
952,32.05936786177699
953,-3.8796940105858084
954,-24.76862014751987
955,-11.968327635800051
956,33.347265881541716
957,82.66124220606162
958,105.4426825847604
959,78.6056677109309
960,21.502277725041495
961,-31.49540778439132
962,-46.64030977991115
963,-17.21334977422248
964,27.63955017071021
965,56.27446744459303
966,44.402478889716804
967,7.116660801895705
968,-27.367911068584363
969,-31.45216151602017
970,0.117984121673544
971,44.91959996393507
972,78.80175958853215
973,81.96553603255597
974,55.748001793397634
975,7.8872288297807245
976,-53.79671143725227
977,-119.52174812331214
978,-177.2908108796346
979,-214.98782989204028
980,-223.06473587989603
981,-202.90846009507095
982,-158.81593432086356
983,-95.43009087094924
984,-25.28586258829455
985,31.330817155911063
986,53.790014463351326
987,29.515794909677425
988,-25.080776454389706
989,-87.06463510195772
990,-134.22471702883922
991,-156.96095875242918
992,-156.25029731058203
993,-133.4016702604613
994,-93.04801567741833
995,-49.643272153824
996,-19.45237879792694
997,-17.300275232681088
998,-39.45690159458718
999,-69.32019853251404
1000,-90.0391072065213
1001,-91.18156928666485
1002,-77.45052695182312
1003,-55.735922888477944
1004,-32.93870028953279
1005,-15.255802853083878
1006,-4.208174781224443
1007,0.6172392211901752
1008,-0.4055060522423446
1009,-8.706356308244722
1010,-28.330257752601028
1011,-63.5211570889478
1012,-115.14400151750488
1013,-165.6917387338499
1014,-191.43431692761988
1015,-169.49568478130368
1016,-104.19579146893739
1017,-31.811586654850544
1018,9.529979507604367
1019,-6.348043622661862
1020,-55.08360717319556
1021,-98.96666275670759
1022,-101.87116246979531
1023,-60.00805889163348
1024,0.45069491732465394
1025,52.18614541663737
1026,75.59833858719867
1027,75.414319932539
1028,61.13413448014762
1029,42.125826782783406
1030,25.908440919811255
1031,18.696020498508005
1032,26.662608655409713
1033,49.92424805764131
1034,74.8519809042391
1035,85.9098489275184
1036,70.19889339437759
1037,37.40615510768657
1038,8.664674407600614
1039,4.985491172936236
1040,32.683644822518545
1041,74.57617431652216
1042,111.36611815786273
1043,126.85251439353851
1044,122.1064006160068
1045,104.16081396453228
1046,80.05579112659507
1047,56.69436833922555
1048,40.83158139040643
1049,39.22246562043438
1050,54.591055923312524
1051,75.4623867481223
1052,87.2144921004201
1053,76.45040554360821
1054,46.62816020033824
1055,13.43878875388691
1056,-7.166676550439661
1057,-5.070203903915171
1058,17.10923806700157
1059,55.049680302054185
1060,103.36115330860412
1061,148.57768716302417
1062,173.56631151209513
1063,161.66305557441592
1064,117.45994814179721
1065,74.12901758068074
1066,66.88129183353703
1067,118.44879842028058
1068,198.84956443966985
1069,264.19061657071325
1070,273.07798107410235
1071,225.0826837936056
1072,152.8877501574716
1073,90.09720517987262
1074,57.4720734622897
1075,45.775379194941706
1076,41.49114615819235
1077,32.748397723979
1078,20.199156857215712
1079,10.27144611721269
1080,9.282287659099893
1081,17.84170323523358
1082,29.17271419662029
1083,35.9933414943298
1084,33.437605680926936
1085,25.903526911870358
1086,20.0101249469335
1087,21.872419151635768
1088,30.895428498644833
1089,41.733171569208935
1090,48.94566655455128
1091,49.07793125731587
1092,42.48398309295408
1093,29.960839091163507
1094,12.854515897295641
1095,-4.234970226223595
1096,-15.54460339850084
1097,-15.532368118725572
1098,-3.8632492647921026
1099,14.673767908141599
1100,35.073697769044884
1101,51.11055431243767
1102,53.37735115979558
1103,31.924101560967756
1104,-19.999181604433033
1105,-83.2834858255992
1106,-126.33079895914852
1107,-118.24010922768502
1108,-57.55540521842886
1109,20.122324118203323
1110,76.83008947000417
1111,85.32890116436465
1112,54.89976916968226
1113,2.5657030967540777
1114,-55.35128779982551
1115,-109.87219462026769
1116,-156.32100881820406
1117,-190.07472219928604
1118,-206.30132691979452
1119,-199.86081548525544
1120,-165.5961807490621
1121,-104.21941591106588
1122,-39.63051451621868
1123,-1.4584704531698662
1124,-16.290277952904944
1125,-74.52993158735262
1126,-142.9534262680245
1127,-188.1877572446283
1128,-195.69092010369968
1129,-180.94091076723998
1130,-162.10172549133677
1131,-153.57436086480448
1132,-154.02981380782876
1133,-158.0620815705879
1134,-160.91616173191323
1135,-165.85105219792058
1136,-181.45875120066376
1137,-216.22025729677262
1138,-265.6055693661201
1139,-304.5366866104541
1140,-306.11060855208234
1141,-255.10633503250392
1142,-182.84886621107762
1143,-132.25520256370146
1144,-141.57634488145595
1145,-197.23629426928892
1146,-253.4200521446819
1147,-264.4866202363246
1148,-219.2900005827978
1149,-156.13819553123722
1150,-117.1882077360442
1151,-128.89904015754473
1152,-163.33569606069068
1153,-180.80217901375545
1154,-147.5304928870246
1155,-83.78064185148833
1156,-38.59263037755409
1157,-59.807463233741146
1158,-146.30614548539052
1159,-238.26168249337752
1160,-272.387079912829
1161,-215.9493436918383
1162,-120.20348007016219
1163,-50.729495577992566
1164,-61.51639703464207
1165,-127.70319154728895
1166,-191.66288650971183
1167,-198.25948960102687
1168,-145.16500878442275
1169,-78.84245230590932
1170,-47.40582869307036
1171,-70.74614675379416
1172,-112.00141557505776
1173,-127.49164452165678
1174,-86.05384323498765
1175,-15.11802163179891
1176,40.76881009702811
1177,41.0946414877144
1178,-6.553538195192232
1179,-63.181739957602986
1180,-89.82697507467128
1181,-73.7562550895691
1182,-38.19459181229831
1183,-8.971997318467402
1184,-4.241483948102541
1185,-19.375064304444095
1186,-45.54975125275632
1187,-74.03455791914166
1188,-96.76449768934253
1189,-105.95358420757475
1190,-94.4198313753459
1191,-66.02425335026783
1192,-34.210864544920696
1193,-12.691679625653705
1194,-9.207713511434122
1195,-20.95298137270038
1196,-44.05549863019951
1197,-72.4162809538393
1198,-91.62234426154646
1199,-85.289704718125
1200,-40.48637873411462
1201,26.551617035333038
1202,84.93026569158428
1203,104.76255009365559
1204,82.26345285932621
1205,39.665956366243336
1206,0.2650427530588786
1207,-23.15430607948656
1208,-38.36410846745093
1209,-55.54238298260134
1210,-81.15514843130586
1211,-106.61342385345233
1212,-119.52622852137574
1213,-109.54358193874577
1214,-84.29550383952301
1215,-60.7080141868737
1216,-55.132133172095564
1217,-68.91288121356592
1218,-88.56127895567988
1219,-100.02034726778766
1220,-96.92310724316485
1221,-87.28058019794116
1222,-80.68778767007825
1223,-82.91975141833427
1224,-85.67149342121411
1225,-77.38403587596258
1226,-48.68640119753036
1227,-6.79161201756142
1228,33.50930881663044
1229,57.991338243058635
1230,63.11945298607134
1231,54.41962955736017
1232,37.716844256949116
1233,19.210073174173885
1234,5.6702921886990225
1235,3.9164769714643626
1236,17.667602985684425
1237,41.760645487811416
1238,69.45257952851352
1239,93.9643799536243
1240,108.29202140511552
1241,105.3654783220336
1242,79.64772494147292
1243,42.81273529948885
1244,17.354483232076745
1245,25.11594237607096
1246,65.18208617009986
1247,111.64988785550668
1248,137.4513204772593
1249,131.04235688488188
1250,110.68696973336591
1251,98.02713148407383
1252,107.27181440562526
1253,126.88799057483993
1254,139.76863187758318
1255,132.60871000968655
1256,116.47919647781964
1257,112.05106260036882
1258,137.8522795083245
1259,185.04181814613185
1260,226.15064927257845
1261,234.19974346163872
1262,207.95707110334843
1263,175.4916024046288
1264,166.31430739016469
1265,191.845155903231
1266,229.12211760653008
1267,251.31116198303425
1268,241.30925833680521
1269,213.70637579382492
1270,189.54048330282058
1271,185.7975496360632
1272,196.35154339019573
1273,206.9004329870204
1274,204.49318667433
1275,190.32677252667236
1276,173.91115844615888
1277,164.40131216325608
1278,161.28420123756587
1279,154.9057930585859
1280,135.39905484652445
1281,101.02295365302234
1282,62.19245636195592
1283,30.31552969018412
1284,12.7541401883027
1285,7.167254241392584
1286,9.777838069778227
1287,18.45385772976988
1288,37.531279114382414
1289,72.93306795410899
1290,127.65918981759933
1291,185.62861011242967
1292,223.11529408580645
1293,219.26720682527412
1294,185.6233132594407
1295,154.00857815867857
1296,155.27296613583894
1297,192.5854416469283
1298,242.8019689918292
1299,281.9445123149744
1300,297.69303560604203
1301,294.3805027006274
1302,277.6218772809316
1303,253.28512287643753
1304,227.7742028645589
1305,207.57508047132615
1306,198.2777187720476
1307,202.51508069194642
1308,222.31412900683608
1309,256.85682634375917
1310,290.7621351816251
1311,303.98901785186536
1312,280.01843653906326
1313,230.54235328157483
1314,180.78772997218766
1315,154.60252835870415
1316,156.54871004459892
1317,177.72723648961437
1318,209.0410690103763
1319,243.23716878101004
1320,274.8904968337374
1321,298.6680140594799
1322,310.04268120846245
1323,305.6104588907874
1324,282.09930757704933
1325,241.6951875989089
1326,197.45205914965845
1327,163.72688228483275
1328,150.01561692275936
1329,152.04322284514092
1330,163.09565969760843
1331,176.2908869903058
1332,184.04386409843573
1333,178.58955026280637
1334,155.40690459041434
1335,128.95188605496696
1336,120.56345349743788
1337,147.7525656266098
1338,195.50818101960976
1339,232.48925812245216
1340,230.0817552505614
1341,195.59363058930649
1342,160.7448421945246
1343,156.1173479930476
1344,180.81410578321265
1345,205.43507323538506
1346,200.2662078924659
1347,159.45546717040634
1348,105.61780835870923
1349,62.87318862093525
1350,44.575564995198874
1351,47.21889439467486
1352,65.83913360807855
1353,94.91423930016572
1354,127.8281680122218
1355,157.82287616253961
1356,179.2383200469103
1357,189.35045583909778
1358,185.93223959131865
1359,169.06662723470617
1360,146.98357457979546
1361,129.71003731697965
1362,124.3779710169947
1363,124.78233113135684
1364,120.88107299283183
1365,105.11515181591494
1366,84.85952269725385
1367,73.00914061612457
1368,80.58696043486634
1369,103.98793689934428
1370,132.75602463938594
1371,156.83017816922984
1372,170.6183518879625
1373,171.13250007996066
1374,156.26857691532132
1375,135.38853645031122
1376,126.04233262778871
1377,144.48491927763098
1378,180.35325011717032
1379,200.2682787516187
1380,171.65995867448873
1381,101.09224326803087
1382,35.729085803621274
1383,23.475439442219795
1384,70.73025723476712
1385,132.6634921225923
1386,161.8030969378451
1387,139.02202440390465
1388,86.58122713576631
1389,29.964657640493897
1390,-11.049731682414858
1391,-26.474988540598133
1392,-7.3661607484318665
1393,43.15270377336856
1394,97.80555699816068
1395,126.47435079377465
1396,114.4970369228904
1397,83.17356704346821
1398,58.912892709131484
1399,59.39596536955105
1400,78.86373637086217
1401,107.6561569560381
1402,135.71517826530362
1403,151.78175133650439
1404,144.35982710552162
1405,108.16535640664551
1406,59.79628997296459
1407,20.655578436768337
1408,7.293172329931622
1409,16.923022084294644
1410,41.955078032046
1411,75.0712904061329
1412,110.15760934062746
1413,141.42998487111618
1414,163.61236693508909
1415,173.92370537232637
1416,170.35494992528038
1417,152.14905023945903
1418,125.34095586382318
1419,98.25761625114865
1420,78.83298075843413
1421,72.534998647272
1422,83.95561908424497
1423,115.63479114130314
1424,157.10846379614304
1425,192.77158593261265
1426,210.18510634108497
1427,218.811973718839
1428,237.28313667046677
1429,280.0615437082415
1430,330.92914325251513
1431,360.0968836321008
1432,343.56871308467817
1433,302.2575797571626
1434,277.80343170611195
1435,306.19421689811134
1436,377.2038832101689
1437,458.5293784301066
1438,520.5146502569633
1439,556.546646301379
1440,571.3153140860031
1441,569.4826010458864
1442,554.8504545288879
1443,530.7978217960654
1444,501.4546500220895
1445,477.3488862956392
1446,472.22647761981716
1447,496.72137091254444
1448,534.9425130069849
1449,557.6488506519427
1450,540.3303305122845
1451,498.84789916935006
1452,469.17650312136357
1453,481.1280887838684
1454,512.6566024901322
1455,516.3719904915715
1456,453.29519895818976
1457,352.8511739789883
1458,277.0268615624127
1459,277.5712076367654
1460,326.5021580506618
1461,359.18165857344866
1462,321.04165489566094
1463,231.98409262944733
1464,144.6719173090387
1465,103.99907439116669
1466,100.78250925554403
1467,103.29216720529985
1468,84.96999346743996
1469,52.69993319332298
1470,26.46593145909719
1471,21.481933266192755
1472,24.67988354177578
1473,12.685727139230039
1474,-31.300591161369084
1475,-88.47012665277089
1476,-128.05593470006534
1477,-126.14407074020255
1478,-92.55059028148571
1479,-47.423548903087976
1480,-9.491002254546402
1481,8.864993944737762
1482,-2.999616093988152
1483,-47.7508882283164
1484,-96.54687838416794
1485,-112.74764255526406
1486,-76.08023680261158
1487,-23.584717253957024
1488,-4.844140103266909
1489,-47.33456161018603
1490,-110.45603809948534
1491,-140.5886259605295
1492,-108.42338164669945
1493,-49.98236167485993
1494,-12.081622624779811
1495,-21.195221138573288
1496,-56.381213920109985
1497,-90.01365773445923
1498,-102.88460940729055
1499,-92.75312582428433
1500,-59.51526393053882
1501,-12.733080729974972
1502,21.378366715281118
1503,15.438021285502145
1504,-31.51317419602219
1505,-81.48127696235042
1506,-94.2873443022745
1507,-64.90243355967232
1508,-32.261602132868575
1509,-36.56190747398523
1510,-78.50240708829187
1511,-117.07015853353187
1512,-111.42521941926589
1513,-61.77064740619335
1514,-4.5865002054670185
1515,24.568164421988513
1516,20.860288666181077
1517,1.9908146687412227
1518,-15.139315476358206
1519,-27.827159722088254
1520,-41.91577606764076
1521,-62.476222557703295
1522,-87.27355728170915
1523,-110.50483837310094
1524,-126.9341240085705
1525,-135.13447240730147
1526,-135.1549418302011
1527,-127.2485905791209
1528,-112.67547699607076
1529,-92.9966594624284
1530,-70.58119639813685
1531,-50.85914626090016
1532,-39.98056754535446
1533,-43.10651878225326
1534,-62.478058537627476
1535,-99.77824541194241
1536,-147.94313803924524
1537,-180.42679508630863
1538,-168.3082752517539
1539,-106.69663726517592
1540,-31.957939886260647
1541,15.994758096117948
1542,19.9293978648102
1543,-7.384079424708943
1544,-51.06873264340629
1545,-95.45962068774952
1546,-124.09380247877652
1547,-121.9093369611328
1548,-95.83828310210538
1549,-69.8046998906566
1550,-65.49464633643402
1551,-77.17318146878097
1552,-83.17636433572625
1553,-65.49525400297262
1554,-33.35990955287525
1555,-7.692390083396276
1556,-6.7377547070709625
1557,-35.1320625499402
1558,-93.31837275048383
1559,-172.85874445854552
1560,-234.3022368342463
1561,-231.45190904686933
1562,-147.03682027375908
1563,-35.36102969919284
1564,38.71440348674787
1565,44.1484200893392
1566,9.573960910355709
1567,-30.7500332507434
1568,-60.21762159564332
1569,-84.56386332597049
1570,-110.37481764209679
1571,-132.87054374190666
1572,-136.97510081957898
1573,-109.82454806433543
1574,-68.5869446591887
1575,-49.709349779672266
1576,-82.39982259255703
1577,-140.16642225456144
1578,-171.68220791103886
1579,-137.91023869466608
1580,-59.63857372409802
1581,24.375727897374418
1582,82.18860708317516
1583,103.55100476483221
1584,82.56786189335435
1585,27.28511944063939
1586,-24.90628159912194
1587,-33.57340020800439
1588,7.621704657090049
1589,56.56197406588035
1590,68.8403491161962
1591,31.3807709354478
1592,-38.72081931786761
1593,-122.47648045265032
1594,-193.34427124367267
1595,-219.88625043002685
1596,-178.27847671356994
1597,-98.36000875735499
1598,-32.74790518402733
1599,-20.449224574236723
1600,-41.49602546499955
1601,-60.10936634807331
1602,-54.08130566830641
1603,-37.53390182196108
1604,-30.443213155037483
1605,-39.71229796157422
1606,-50.023214481926516
1607,-44.32802090104542
1608,-17.480775346715745
1609,22.592464112195557
1610,66.97063946753042
1611,102.49869277363268
1612,113.02356614916062
1613,87.18920177892869
1614,49.04254191574364
1615,38.317528882279476
1616,79.55510507295821
1617,132.18621295584853
1618,138.33879507458823
1619,71.99579405031909
1620,-12.312847416364093
1621,-48.212186543433745
1622,-13.130280465446049
1623,48.09081376847189
1624,86.67503919664705
1625,93.07733894689954
1626,95.0816562386135
1627,118.84793438481665
1628,158.67511679428117
1629,190.29514697364357
1630,194.28696852954
1631,179.3585251707682
1632,163.87276071046745
1633,160.4116190683062
1634,163.52004427270822
1635,164.3139804630764
1636,161.06837189206453
1637,164.89416292784063
1638,187.6292980563876
1639,225.0857218838173
1640,256.00237913870114
1641,260.39521467444683
1642,242.2271734716487
1643,220.5232006405049
1644,212.7802414232292
1645,226.15324119649085
1646,264.0931454738802
1647,321.19689990838106
1648,364.5214502948829
1649,356.1577425727037
1650,292.9377228281346
1651,231.74233729700882
1652,232.80453236729318
1653,295.41525458170236
1654,358.5404506403238
1655,365.45006740329336
1656,327.0110518934471
1657,292.0803512990524
1658,297.6969129765075
1659,321.10168445310865
1660,321.38961342980474
1661,276.8076477839995
1662,214.29273557236684
1663,168.06082503368725
1664,155.14986459171632
1665,168.88080285806973
1666,200.33758863512594
1667,233.34917091898114
1668,246.17949890238378
1669,221.8435219777375
1670,176.44418974010023
1671,139.71145199020793
1672,131.96925873755208
1673,141.89556020343753
1674,151.66430682410555
1675,150.99644925385928
1676,142.62893836821695
1677,130.11672526709572
1678,107.58176127802835
1679,60.447997959373424
1680,-21.03261289639795
1681,-104.4161192594429
1682,-136.6525688592219
1683,-86.14200918116148
1684,-4.8494874633024665
1685,35.3639493071023
1686,3.441254396993827
1687,-53.70561866904427
1688,-82.17071610531639
1689,-69.95208386152262
1690,-46.56976761923033
1691,-39.33581278832662
1692,-41.00226450343325
1693,-26.700167620309003
1694,15.240433287790438
1695,44.135493933769794
1696,6.8139703203933095
1697,-105.79518125600771
1698,-219.9530042017832
1699,-255.93954162218506
1700,-202.7268363175781
1701,-114.3909307795875
1702,-42.93586718725146
1703,-3.249687403121243
1704,7.263567030644481
1705,-5.584145103752235
1706,-25.13786469578099
1707,-32.54063230257725
1708,-22.200488144893825
1709,-10.305472103038483
1710,-13.955623712778106
1711,-31.987982161200307
1712,-48.46458628256369
1713,-49.964474554105436
1714,-41.59168509181109
1715,-35.58425564617937
1716,-40.64822359792379
1717,-55.72262595367101
1718,-77.95949934160399
1719,-99.85588000709504
1720,-107.94180380828948
1721,-90.31030621166974
1722,-56.49842228757916
1723,-29.21518670572459
1724,-25.395633730626287
1725,-35.59179721706096
1726,-43.15871060545396
1727,-39.65040691723971
1728,-32.39991875020769
1729,-30.352278273783668
1730,-38.903517224310235
1731,-60.25666690026628
1732,-93.71375815747888
1733,-119.98682140427627
1734,-112.18488659662398
1735,-61.14898323322359
1736,-6.590140350572256
1737,4.582613482010856
1738,-32.76474983261505
1739,-72.57725791436314
1740,-70.80893790085338
1741,-33.353816442291645
1742,6.065080303671493
1743,21.315726677123166
1744,15.895097521106436
1745,0.2521681868720407
1746,-13.641085460833892
1747,-11.409687038444645
1748,19.808340361792943
1749,69.99397417720684
1750,113.01019238014305
1751,127.91397348342798
1752,120.22029654587823
1753,103.20114117785124
1754,81.08448754681558
1755,40.775316382981146
1756,-30.73039101505219
1757,-111.65865277459943
1758,-151.27448644315336
1759,-111.8829089826213
1760,-34.37193676351126
1761,13.047414440908142
1762,-6.310870539495227
1763,-60.144806265809166
1764,-108.03740668410319
1765,-130.78368511943063
1766,-128.75665426978412
1767,-104.92032620002374
1768,-73.68871233574737
1769,-53.84582345713716
1770,-54.6396696927568
1771,-62.98726051331596
1772,-63.00560472538382
1773,-47.82971046507555
1774,-19.28058519168917
1775,18.41176431869826
1776,47.988331979670875
1777,47.11711240095883
1778,9.3911008949608
1779,-34.296706516686754
1780,-48.93031309650087
1781,-26.013721384503697
1782,17.87906680846754
1783,64.84205040749475
1784,95.1502290803619
1785,88.42860324436333
1786,40.35917407317811
1787,-18.153056496240424
1788,-52.89508575670152
1789,-55.90891022379856
1790,-42.14252562887032
1791,-25.077926911922077
1792,-5.979108214502958
1793,17.923937127455247
1794,43.07221659084826
1795,53.71173847266073
1796,34.759511897254924
1797,1.789546823717501
1798,-6.3961459467509485
1799,35.5514452365951
1800,89.91833288152975
