800,100.7697014103469
801,102.0636060928482
802,100.67497243161597
803,95.90106321929306
804,87.68714055539385
805,75.99846584245824
806,61.60229978224925
807,48.10290237201116
808,39.7045329007633
809,40.52944994565041
810,51.7669113683005
811,70.90617431129431
812,95.21549519461769
813,121.73312971218184
814,145.67233282839697
815,161.3883587747805
816,163.24746104660153
817,148.48589239958164
818,121.61490484663955
819,88.2797496546682
820,54.066677341361356
821,23.58493767208165
822,0.5367796567679761
823,-11.413548453088879
824,-9.254799167485544
825,6.624274239160513
826,34.72491772507237
827,73.48037647825186
828,115.57889491362039
829,143.8177166702426
830,140.03508460856392
831,89.01124080768568
832,7.862426562705878
833,-66.26511761792608
834,-95.93615201499051
835,-59.38243770107147
836,14.707263456952205
837,87.50618879541071
838,121.27057485142723
839,106.51565736050179
840,64.62167125417363
841,18.528850657683506
842,-11.883571112293794
843,-25.157361549892812
844,-26.702288962263992
845,-21.914122471751398
846,-13.721632017999582
847,-0.48058836005293415
848,19.961236921586533
849,49.15607142293993
850,81.8241419145852
851,108.34567433969823
852,119.04089381215817
853,109.20002461467448
854,89.87329019695062
855,75.19091317388666
856,78.61311532381478
857,97.3701175867809
858,112.14214006285147
859,102.86940201043035
860,55.88212184469194
861,-8.5494828640567
862,-58.96519539190922
863,-64.29479986286606
864,-17.568081250332398
865,50.09517462143231
866,104.16518107591219
867,114.22215058293477
868,85.41629475733498
869,41.31782435763489
870,5.636949284769798
871,-4.306121419178453
872,13.578820427823302
873,59.11198214655633
874,131.1335701954049
875,213.67379016924497
876,279.47284679834775
877,300.99094394732856
878,261.7882846141074
879,185.27507092893757
880,103.79150415343429
881,48.82778467963908
882,29.504112029120733
883,30.850684852124687
884,36.697700926702964
885,34.27535715793056
886,28.573849577111105
887,30.403373341045153
888,50.34412273129237
889,89.94629115349744
890,137.40007113672254
891,179.8356543328191
892,206.62323151582132
893,223.36299258138752
894,243.02512654624115
895,278.4798215476567
896,331.7972648429877
897,384.0176428091854
898,413.74114094238575
899,402.14794385750065
900,356.57823528783774
901,299.7321980847628
902,254.49001421735738
903,234.41186477215524
904,229.59792995284988
905,226.51838908007812
906,212.64342059117735
907,189.453202040022
908,168.7279100968608
909,162.47772054816596
910,177.17280829654192
911,201.663347360638
912,221.4095108750771
913,222.5214710904511
914,204.82939937328592
915,180.27346620607932
916,161.23384118732793
917,156.67069303161406
918,162.43418956968162
919,171.22449774856796
920,175.93178363171864
921,173.82621239918808
922,166.73794834780892
923,156.7271548913941
924,146.6039945609973
925,142.52862900515902
926,151.6312189901946
927,180.65192440049032
928,224.05090423884758
929,261.9683166268278
930,273.6543188051128
931,244.41906713392927
932,189.86271709345237
933,135.25542328424126
934,105.3773394277141
935,106.15861836662953
936,119.46941206558586
937,125.55987161156008
938,109.39014721445528
939,81.8003882076664
940,62.53074304867005
941,70.93135931964753
942,108.92238372810971
943,154.82396210755178
944,185.2262394181289
945,181.6893597473554
946,154.4034663108032
947,123.86870145285866
948,110.25520664746182
949,117.86312249887669
950,128.97258874250292
951,124.18374424566719
952,89.01672700847303
953,37.44167416464188
954,-6.2112780176212254
955,-18.02199413472954
956,6.659660353192521
957,45.85381912321827
958,75.6506149905872
959,76.43017990965018
960,53.202644974850045
961,19.718140421726275
962,-10.433204372075124
963,-29.861260885772936
964,-39.34590145438233
965,-40.26699926767287
966,-34.804428369066954
967,-29.45806365453973
968,-32.18778087150531
969,-50.683456617685806
970,-84.08496833994286
971,-120.89219433313338
972,-148.9350137389156
973,-158.6733065445278
974,-153.18695358161676
975,-139.41583652495865
976,-124.23983789124395
977,-113.4788410378078
978,-111.7227301613384
979,-123.5313902965936
980,-149.9547073150934
981,-177.36256792380118
982,-188.21485966375803
983,-165.85147090876853
984,-114.34229086400046
985,-58.11720956462159
986,-22.49611787439426
987,-24.608907484267547
988,-52.26547091095017
989,-86.64570149547217
990,-109.59949340174535
991,-114.77674161507093
992,-105.6673419406834
993,-86.08119100224576
994,-60.22818624035426
995,-33.478225910999754
996,-11.451209084058064
997,0.5929643582694553
998,1.8943937230051233
999,-5.1968224920219654
1000,-18.27058659661816
1001,-34.47680170659805
1002,-49.965371742206116
1003,-60.73620142647269
1004,-62.78919628361837
1005,-52.93426263736728
1006,-33.45130760932079
1007,-8.910239117285528
1008,16.099034126391416
1009,34.31660261655088
1010,34.78255605686718
1011,6.196983361602179
1012,-57.500027342688554
1013,-133.92838871543972
1014,-191.13801420030177
1015,-198.0888180234051
1016,-155.01071519159996
1017,-98.76362149067427
1018,-68.36745348356635
1019,-91.32212850858377
1020,-146.54756467757943
1021,-200.13368087415984
1022,-219.45039675183943
1023,-198.18763273222612
1024,-154.37531000316267
1025,-106.98335051688446
1026,-71.0916769881569
1027,-49.520212892402924
1028,-42.648882463814516
1029,-50.2376106934953
1030,-63.23632332751913
1031,-66.46494686505503
1032,-44.67340855645489
1033,7.028363598687065
1034,69.90044085346199
1035,121.94289371556806
1036,143.69579194926882
1037,137.47920457736473
1038,116.69319988312054
1039,94.70784541226567
1040,78.10320797496024
1041,62.57935364777222
1042,42.86634777569088
1043,15.334254974113719
1044,-14.596860869152806
1045,-38.356936591862905
1046,-47.66590975532381
1047,-42.22371864235538
1048,-30.500302255266433
1049,-21.385600313808027
1050,-20.569553253129925
1051,-22.27210222172107
1052,-18.173189079352596
1053,-0.9127563950059994
1054,23.92925255519185
1055,41.372893790046874
1056,36.26822262539281
1057,5.1252936761720775
1058,-30.125839141463075
1059,-44.13512260805874
1060,-16.102504198734096
1061,40.72206791890494
1062,97.59864488690982
1063,126.2672771590951
1064,122.548014503167
1065,114.7309060028656
1066,133.37600006009234
1067,196.9533443970613
1068,272.732986058425
1069,314.48497141345433
1070,279.2593461581837
1071,177.87615531755182
1072,64.57544324759874
1073,-5.22274636239672
1074,-2.9283704877216223
1075,37.3586132339351
1076,72.6282465046661
1077,66.15057036853068
1078,29.57562521373802
1079,-3.226549225159033
1080,1.0540861349381885
1081,47.157569727854934
1082,102.73393934036176
1083,132.96323211436174
1084,114.86548454911463
1085,71.01073250343688
1086,34.85901119792106
1087,36.83035521714555
1088,66.3847985118955
1089,84.04237440138968
1090,49.93311557549714
1091,-44.362945903034415
1092,-146.60577859634395
1093,-197.58535168922936
1094,-152.1416349869196
1095,-46.504598912841175
1096,53.82578549364371
1097,85.58954657944014
1098,38.62671207998574
1099,-44.962690878503054
1100,-120.83863577680677
1101,-158.24109670044527
1102,-162.56004833742008
1103,-145.15546597599496
1104,-117.04732550239714
1105,-86.6456033986251
1106,-61.05027674014309
1107,-47.23132319366232
1108,-46.87872101486391
1109,-55.082449046161855
1110,-66.46248671442663
1111,-76.69881402874671
1112,-84.82141157815568
1113,-90.61026052938178
1114,-94.28534262458561
1115,-100.4666401791037
1116,-116.37413607918643
1117,-149.0878137797281
1118,-195.71765730203333
1119,-238.6336512315229
1120,-258.99578071549513
1121,-244.56403146086632
1122,-209.04838973188816
1123,-172.52884234791782
1124,-153.70537668112775
1125,-154.23798065427764
1126,-164.65664273842776
1127,-175.4013519506916
1128,-182.68209785196996
1129,-191.9388705447127
1130,-209.45166067064383
1131,-238.30045940851232
1132,-268.235258471821
1133,-285.57605010660336
1134,-278.09282708914543
1135,-251.30558272373673
1136,-222.51431084042815
1137,-209.05900579277295
1138,-214.88966245558004
1139,-222.8062762226673
1140,-213.76884300462007
1141,-177.30735922653912
1142,-137.12182182579818
1143,-125.43222824980512
1144,-170.62857645375698
1145,-258.3808648984159
1146,-347.78909254785503
1147,-397.9932588672309
1148,-391.5833638205586
1149,-344.7394078684647
1150,-276.28139196597294
1151,-204.15931756027203
1152,-143.40318658848992
1153,-108.40300147547896
1154,-111.4187651315824
1155,-145.05048095043094
1156,-191.49815280671828
1157,-233.0417850539925
1158,-259.17138252244877
1159,-267.9769505167187
1160,-258.08849481365723
1161,-231.45602166016215
1162,-199.13953777094866
1163,-173.78905032636976
1164,-165.40456697022455
1165,-166.1660958075554
1166,-160.80364540246228
1167,-135.13722477593728
1168,-96.93684340364962
1169,-74.23251121379326
1170,-95.68423858491406
1171,-167.6120363437094
1172,-251.3959157628924
1173,-303.00588855900605
1174,-290.3119668902691
1175,-236.85416335442278
1176,-182.43249098655906
1177,-163.5769632569918
1178,-178.1175940690864
1179,-198.58439775713487
1180,-197.5473890842095
1181,-169.20658324002397
1182,-137.371995838801
1183,-128.01364291714344
1184,-154.77154093191166
1185,-194.7157067581138
1186,-218.17615768676114
1187,-200.42291142278373
1188,-150.35598608291002
1189,-90.95540019355576
1190,-44.54117268873961
1191,-20.563322907973998
1192,-17.241870594187276
1193,-32.40683589161381
1194,-60.57823934373846
1195,-90.386101891203
1196,-109.85044486972583
1197,-111.21129000805558
1198,-102.56865942587865
1199,-95.73257563178595
1200,-100.31306152119396
1201,-107.15014037430592
1202,-97.70383585406671
1203,-54.47417200412019
1204,13.338826753231842
1205,69.92513561905798
1206,78.50472941983207
1207,27.777582609423916
1208,-43.686330728834946
1209,-91.45703688017602
1210,-84.72456249637435
1211,-47.77893459375264
1212,-18.910180551167286
1213,-31.188328108044516
1214,-72.3234053623728
1215,-106.49544076871643
1216,-99.32446313627042
1217,-53.31050162685642
1218,-7.4735857529776695
1219,-2.1237453758458287
1220,-50.17101070343779
1221,-113.28541228854192
1222,-147.48698102680828
1223,-123.07574815482076
1224,-63.121745248156
1225,-2.8750042194624257
1226,26.41444268347368
1227,24.066562879621415
1228,3.3013234566424217
1229,-22.761308827217363
1230,-44.071367541235304
1231,-53.22888658030206
1232,-43.02390016305071
1233,-13.486442829953376
1234,24.213450558529075
1235,57.93574482383701
1236,79.09040447117331
1237,89.20739369135117
1238,91.62667636266451
1239,89.59821605272555
1240,86.06197602029897
1241,83.857919217151
1242,85.65600828987772
1243,92.50620558170522
1244,104.40847313434097
1245,121.20277268976861
1246,138.18906569204046
1247,145.7173132891039
1248,133.947476334577
1249,103.1195153895278
1250,72.77339072427822
1251,64.62906232016212
1252,91.55648987129644
1253,135.69563278634814
1254,172.51645019028183
1255,181.39890092612586
1256,166.47294355669146
1257,141.67853636633117
1258,120.40563736266267
1259,108.96420427829435
1260,108.83419457253876
1261,121.27556543313221
1262,143.39827377793335
1263,167.6622762566385
1264,186.26752925244728
1265,195.88398888377742
1266,201.6216110059304
1267,209.52035121276822
1268,222.30016483837971
1269,231.74100695874586
1270,227.3928323933942
1271,202.04559570703896
1272,166.82925121124026
1273,139.35375296601705
1274,135.6190547815022
1275,154.63511021953855
1276,185.42187259531602
1277,216.89929497897538
1278,238.107330197201
1279,238.29593083483087
1280,206.90504923644949
1281,146.50463750795097
1282,79.29464751813975
1283,29.035030900289712
1284,10.545739053712168
1285,17.106723145308933
1286,38.807934111129725
1287,66.67932265790841
1288,95.44083926461462
1289,120.66243418397244
1290,138.58405744399533
1291,149.59565884949734
1292,155.71718798360598
1293,158.93859420927765
1294,160.34982667078475
1295,160.5408342952196
1296,160.31156579396156
1297,165.25196966418116
1298,185.51199419029763
1299,231.1015874454497
1300,295.21069729294686
1301,347.0492713877502
1302,354.07725717788344
1303,305.67460190589736
1304,238.6512526102979
1305,195.98715612697197
1306,206.90225909061155
1307,254.9765079361241
1308,314.31984890004605
1309,361.89222802194126
1310,389.0535911457937
1311,391.8038839214096
1312,367.9730518057768
1313,330.02104006446643
1314,297.44779377298073
1315,288.08325781813437
1316,297.44737689939393
1317,305.44009553024443
1318,292.4413580395194
1319,256.6311085727575
1320,213.87929109350625
1321,180.69584938467597
1322,165.740727049837
1323,166.6238675145396
1324,180.09521402763312
1325,200.79470966254303
1326,219.10229731857544
1327,224.91791972220744
1328,213.16151942836768
1329,193.13303882170476
1330,176.63242011786133
1331,173.80960536473503
1332,187.84453644374116
1333,220.17715507104367
1334,269.0174027988269
1335,313.7552210165086
1336,326.95055095199314
1337,286.5833336728829
1338,216.4535100876965
1339,163.36102094709895
1340,170.0358068450878
1341,225.68780822021836
1342,283.10696535677926
1343,296.4532183859883
1344,260.93650728718603
1345,208.86677188900467
1346,173.24395187054142
1347,165.73798676251863
1348,172.48881594846898
1349,178.29637866585472
1350,177.39061400724495
1351,178.6914609214491
1352,192.3988582146485
1353,223.00274455153885
1354,263.42305845645024
1355,305.09973831447314
1356,337.2327223725624
1357,342.93194874065557
1358,304.28735539278205
1359,215.4988801681502
1360,113.36646077223668
1361,44.090034777898836
1362,41.779539626424594
1363,84.70491262863106
1364,135.10609096592998
1365,161.09301169138416
1366,166.04561173079128
1367,166.44382788370967
1368,175.80759682453572
1369,184.86685510352436
1370,173.63153914784743
1371,125.55158526263222
1372,59.376929631955136
1373,14.417508319918852
1374,26.443257271626862
1375,79.8341123142236
1376,122.33000915789307
1377,104.1908833968755
1378,36.09667051044016
1379,-19.092694136075806
1380,0.6727247096696374
1381,93.27286218805966
1382,190.01765332846298
1383,220.73703305022718
1384,173.03093616364458
1385,105.85929737092556
1386,81.752051267149
1387,118.32913234122498
1388,167.70047497686573
1389,177.14601345350093
1390,127.71568194725114
1391,58.31941453184663
1392,13.437145179588697
1393,15.158807762250945
1394,40.74433605203376
1395,62.15366372247263
1396,64.85672434935441
1397,65.73345141164828
1398,86.14377829240038
1399,132.39763827965544
1400,170.49496456734232
1401,159.71569025619465
1402,82.12974835462774
1403,-9.922928220363247
1404,-50.55240664230041
1405,0.3412458256316313
1406,92.13796183149134
1407,154.2576739354481
1408,136.76031461065213
1409,71.7258162441176
1410,11.654111137577274
1411,-2.264868491654852
1412,20.928809490187632
1413,58.195077134176245
1414,89.65386640952784
1415,111.06510920447727
1416,123.01873732710919
1417,126.80468250621198
1418,127.66287639210896
1419,132.1532505575069
1420,145.30573649832877
1421,163.20026563453757
1422,178.60676931097987
1423,186.86517879821258
1424,199.9254252933133
1425,236.24743992070944
1426,308.1411537330132
1427,385.3264977118197
1428,419.69340276852563
1429,373.7717997451491
1430,288.40161941512997
1431,239.06279248414103
1432,288.8252495909055
1433,404.7289213079803
1434,509.40373814258237
1435,536.0196305373574
1436,503.8165288712098
1437,473.2243634600727
1438,496.1930645577231
1439,553.1725623565599
1440,589.5127869883981
1441,558.6136685252641
1442,483.61513698017916
1443,422.3871223079459
1444,426.0795544059274
1445,486.4923631148504
1446,565.5954782195604
1447,628.3988294498304
1448,668.0223464811206
1449,691.6359589353633
1450,705.5395963817537
1451,707.4131883374994
1452,690.6966642686348
1453,650.5199535907632
1454,596.3429856698458
1455,544.6556898229883
1456,509.64799531918834
1457,487.0998313801265
1458,463.9811271809431
1459,430.2218118509991
1460,398.66181447465533
1461,392.64106409204214
1462,428.55948969984456
1463,471.9170202520472
1464,465.8235846607349
1465,366.4891117968564
1466,220.2135304909807
1467,110.87676953410119
1468,106.37875767838523
1469,171.74942363795526
1470,231.74869608966583
1471,223.48650367387927
1472,157.5427749952305
1473,71.24743862342075
1474,-1.6295769060106977
1475,-46.75834309091442
1476,-56.34893146174727
1477,-28.521413580796434
1478,9.644138958616168
1479,22.177654532913948
1480,-16.71093851097976
1481,-87.72171185480147
1482,-159.11473720821414
1483,-202.36008630798096
1484,-201.79783091719037
1485,-144.90804282446334
1486,-34.63079384315279
1487,72.10384418944523
1488,106.54579941289558
1489,33.45499994442798
1490,-79.30862612027522
1491,-144.12515070626068
1492,-112.04464575848942
1493,-37.98718324105721
1494,5.947164863651778
1495,-20.05167344423171
1496,-80.72377018125917
1497,-130.16919737982607
1498,-141.5280270873427
1499,-126.05033136543534
1500,-99.55618228907952
1501,-74.45565194580377
1502,-57.34881243482232
1503,-54.13573586621533
1504,-66.11649436008156
1505,-87.72116004568306
1506,-112.78980506059997
1507,-133.81250154988447
1508,-141.54932166518847
1509,-127.1603375639097
1510,-95.06562140832102
1511,-63.72524536470701
1512,-51.13928160248361
1513,-54.237802293318964
1514,-51.31087961025696
1515,-21.8885857268142
1516,28.599007183891445
1517,75.65182695006115
1518,96.0698014021018
1519,85.23285837353069
1520,49.680925701906745
1521,-2.3260687702750147
1522,-49.988197194637905
1523,-66.35553171601714
1524,-33.21814447151519
1525,12.103892410443223
1526,10.620506811041196
1527,-77.63837337796576
1528,-199.01282025330875
1529,-271.1629058992203
1530,-238.98870238649397
1531,-150.46028177147855
1532,-77.93771609512623
1533,-66.67107738199047
1534,-82.98043763922578
1535,-79.08586885559816
1536,-32.82744300048216
1537,20.724767977171723
1538,39.06069214984382
1539,8.400257612478526
1540,-35.746607516479344
1541,-53.879975094056135
1542,-43.349916951663545
1543,-50.23650489408283
1544,-121.17981069837697
1545,-236.12990611281748
1546,-307.3768628558082
1547,-251.64075261479593
1548,-99.63164704517294
1549,29.870382230830728
1550,29.195263625246298
1551,-72.21707441448962
1552,-165.23670340441276
1553,-156.2536948229008
1554,-68.4081201095214
1555,25.019949336132413
1556,62.19044215559916
1557,38.983287032730004
1558,-30.83158730514151
1559,-130.03425208598128
1560,-229.29477849187242
1561,-296.67323765779656
1562,-313.82970067040515
1563,-296.12423856680107
1564,-264.01692233328686
1565,-233.5278229041105
1566,-212.8470111602146
1567,-209.20455792794382
1568,-223.21053397778633
1569,-247.14501002306133
1570,-272.48805671863556
1571,-286.1097446595686
1572,-270.7401443798335
1573,-211.719326350958
1574,-127.03736098066292
1575,-55.564318611530325
1576,-31.850269519607536
1577,-55.54528391305212
1578,-110.77943193069768
1579,-180.06278364069294
1580,-238.5354090390465
1581,-259.1073780482202
1582,-227.29876051567408
1583,-168.65962621241488
1584,-116.59004483154058
1585,-96.2600859867398
1586,-115.4598192108042
1587,-179.1793139541387
1588,-265.38863958323054
1589,-313.65786537911845
1590,-264.2370605358501
1591,-136.75629415891672
1592,-27.33563526369835
1593,-26.165152773861337
1594,-116.50491551976666
1595,-212.38499223685722
1596,-237.89545156402528
1597,-195.35636204198454
1598,-120.28779211159963
1599,-47.53981011221549
1600,-8.362484279990895
1601,-33.035882746180505
1602,-127.1000735354246
1603,-230.0051245640334
1604,-270.7611036382168
1605,-224.0380784523495
1606,-142.09611658717586
1607,-83.20528550804374
1608,-62.335652563066105
1609,-47.05728498132885
1610,-5.820249871025226
1611,48.31538578236541
1612,70.92955511799119
1613,26.91219140147041
1614,-45.50677197316509
1615,-75.67740148158555
1616,-15.399763467190496
1617,87.0760758608103
1618,157.85005042940247
1619,153.16209430372692
1620,105.52214168910723
1621,58.97012693305987
1622,35.79598452733808
1623,24.8196491100025
1624,12.621055467478072
1625,-0.6098614633247053
1626,-1.7531665929218434
1627,21.051075322891847
1628,61.34279968520059
1629,101.99194205411004
1630,128.07843815097112
1631,137.6522238605503
1632,133.2032352332917
1633,121.61140848754985
1634,123.32668001183629
1635,161.1989863671388
1636,231.87826428920562
1637,285.0044506908762
1638,267.7774826644254
1639,191.4072974839255
1640,135.32383260764254
1641,173.2770256804397
1642,277.2568145361947
1643,355.1931372002691
1644,333.9359318919469
1645,255.7951370269584
1646,204.4506912199704
1647,235.1425332871313
1648,314.2206022486225
1649,391.04483733122834
1650,435.065177970946
1651,450.5815638156073
1652,445.5139347275144
1653,431.33223078611263
1654,423.05639229066946
1655,433.1263597630041
1656,447.47207395020814
1657,437.113475827402
1658,381.6705066005288
1659,303.55310770914366
1660,238.20122082925627
1661,209.9947878761741
1662,215.2837510073805
1663,245.85805262543363
1664,286.1976353808932
1665,310.7324421752728
1666,295.7524161639958
1667,256.7775007594264
1668,239.39763963386213
1669,280.7127767225884
1670,355.4428562269677
1671,412.6078226175232
1672,413.7076206370675
1673,362.3421953038578
1674,270.9814919147666
1675,156.9154560484858
1676,45.72403356876384
1677,-36.740829372363805
1678,-77.46218633125318
1679,-75.21209056938096
1680,-31.79159504998097
1681,30.07424756529872
1682,77.40938491979796
1683,87.36876496526565
1684,76.50233596528597
1685,70.76004649877905
1686,80.85184546347955
1687,88.30768207948131
1688,72.30750589278796
1689,33.33326677889454
1690,-6.976085053576753
1691,-29.45559905925984
1692,-44.0343243523439
1693,-75.48230970289842
1694,-138.620603533107
1695,-208.70025391354648
1696,-251.42630855936295
1697,-252.6648148264576
1698,-236.17981970764413
1699,-228.41436982875712
1700,-223.76051144474877
1701,-186.22229043573316
1702,-87.96575230301823
1703,25.173057834897918
1704,72.54509524635978
1705,8.550315590639002
1706,-89.14632507798706
1707,-116.89787030608204
1708,-43.01536323691107
1709,46.043153393778994
1710,58.1816372619669
1711,-10.434953540361676
1712,-92.26166050094434
1713,-127.52052468289185
1714,-118.32358672034206
1715,-90.6288868140673
1716,-66.77546472704307
1717,-58.93035977999534
1718,-77.10561084689107
1719,-114.22125635042903
1720,-141.2993342574664
1721,-131.589882074426
1722,-98.7079368426621
1723,-81.03953513379383
1724,-105.2197130450113
1725,-144.4005061943335
1726,-157.17994971582812
1727,-125.89007825482258
1728,-78.51192596305373
1729,-47.27752649377544
1730,-45.67391299685369
1731,-70.38811811382766
1732,-115.19017397289645
1733,-158.51311218391675
1734,-172.49896383331907
1735,-142.47775947902664
1736,-90.21552914530548
1737,-43.385302317608875
1738,-17.791107937337074
1739,-14.675974396612219
1740,-33.32192953298909
1741,-62.65800062410017
1742,-85.834214382332
1743,-91.27759694939232
1744,-87.45817389086915
1745,-87.35597019077068
1746,-93.09101024598021
1747,-89.63931786070316
1748,-62.54591624087334
1749,-24.874827988502147
1750,-9.081075096006316
1751,-38.21867894048046
1752,-88.63566027793786
1753,-122.98303923750973
1754,-123.4988353156059
1755,-109.94106737000948
1756,-105.06675361398266
1757,-110.01591161027682
1758,-107.95355826512787
1759,-85.8327098221962
1760,-55.039381856504406
1761,-35.46058926825572
1762,-37.329346276696015
1763,-49.73466641387131
1764,-59.47256251835461
1765,-63.77004672896874
1766,-69.46813047839896
1767,-81.39882448682874
1768,-89.56213875547292
1769,-78.33408256012444
1770,-45.61366444459236
1771,-20.919892214167703
1772,-36.59077292896836
1773,-87.16731289730706
1774,-130.76551766897137
1775,-132.0433920284704
1776,-107.12393998823609
1777,-92.2601647817919
1778,-104.24306885684564
1779,-114.20165386836561
1780,-88.42592067158512
1781,-29.552869314991767
1782,25.407500966770385
1783,42.592191760006244
1784,15.92420547914844
1785,-50.21245462602201
1786,-136.85178446311147
1787,-193.18577908980114
1788,-167.60043270649112
1789,-72.88073864886792
1790,22.001310619536525
1791,58.174723514848665
1792,42.11050934042942
1793,2.2336782944748848
1794,-31.967758522341683
1795,-29.05878909913372
1796,38.30859949292062
1797,133.55442110840886
1798,171.64069053553612
1799,93.42842350402861
1800,-38.41136330690642
