800,78.83770292292866
801,83.04668097865397
802,84.94886586746816
803,84.70840605992726
804,82.13344965542001
805,77.02514437985246
806,69.46863758335985
807,60.52307623804336
808,51.453606935724565
809,43.52137588574715
810,37.69052891277079
811,34.555211454618075
812,34.684568560130174
813,38.50474488705731
814,45.29688469996381
815,53.80913186816451
816,62.78362986368302
817,70.93252175923226
818,76.87695022622665
819,79.22605753280641
820,76.64098554189513
821,68.78387570927589
822,56.23986908169536
823,39.63210629498917
824,20.3357275722301
825,3.6948727218950808
826,-3.6563188639329383
827,4.834291788650262
828,29.246843233612708
829,58.54047360324512
830,80.58032060645564
831,84.30452152707221
832,70.4372132221788
833,47.00153212046462
834,22.129614220608346
835,2.4235950896709255
836,-10.424390138481613
837,-15.709206764735427
838,-12.82372052626306
839,-3.762797598040379
840,6.639695405669954
841,13.410891429839467
842,12.469922977228634
843,5.15292210696316
844,-5.187979566878312
845,-15.206650876641106
846,-22.018961102468893
847,-23.617779973633333
848,-18.090977669865424
849,-3.931424822653753
850,15.672007483475682
851,34.53844770969954
852,46.44902386166177
853,47.35686348824129
854,40.1020936803734
855,28.872841069854985
856,17.762231828191943
857,8.475391665462666
858,0.28244582919705863
859,-7.6614808967242425
860,-15.43626419314296
861,-19.11478020668892
862,-13.44590555081868
863,6.714482693165337
864,39.71650697511632
865,73.16528927505078
866,93.71895110219702
867,90.22861349404047
868,70.76339701540564
869,53.33742175754924
870,56.006807337264945
871,86.79067289602608
872,129.59613709911537
873,164.79431813481915
874,173.96633371358985
875,156.58230106726023
876,125.76833694826564
877,94.99455762888192
878,74.15807890048563
879,60.33001607282131
880,47.694483973310525
881,30.72559694634947
882,11.262468852642996
883,-0.9137869314463387
884,4.3689424854565
885,34.07676950912628
886,78.42380605913604
887,122.17616356826693
888,150.26895298194722
889,156.98728475768985
890,150.32626886457092
891,139.37501478270497
892,132.39563150273898
893,131.5372275253776
894,136.2119108609113
895,145.81278902875874
896,159.42696905703906
897,175.5255574821449
898,192.51466034834812
899,208.80738320739965
900,222.90883111816765
901,233.37910864627702
902,238.77931986377098
903,238.02556834878578
904,230.93595718523738
905,217.47258896253243
906,197.6625657752902
907,172.54898922307348
908,143.92596041014622
909,113.60357994523747
910,84.75894794132091
911,64.88016401541881
912,62.30932728840344
913,84.69453638482901
914,126.69788943277763
915,171.43448406370044
916,201.60941741229726
917,204.5777861164015
918,185.53668631687378
919,153.96321365751373
920,119.27946328499092
921,89.55152984877986
922,71.43250750112202
923,71.5104898969812
924,93.22257019404606
925,125.8148410526992
926,154.54439463604922
927,165.03532260994052
928,154.42571614299413
929,133.3546659066551
930,113.22626207525627
931,103.59159432609522
932,104.55775183951573
933,113.24182329902033
934,126.72689689137769
935,140.8720603067486
936,149.96540073883443
937,148.19100488502136
938,131.2659589465502
939,103.3643486286901
940,71.56925914093517
941,42.91477519720229
942,22.097981016046106
943,10.635960320884806
944,9.823796340244371
945,19.824571808004293
946,34.24236896366165
947,44.32326955260487
948,41.464354826404815
949,24.20870554310568
950,1.041401967540878
951,-18.8174761283517
952,-27.77784946519205
953,-27.790639255813403
954,-24.27576720491834
955,-22.56015550869415
956,-23.69672685445039
957,-22.833404420224724
958,-14.686111874384551
959,4.04622662478414
960,25.342686429498826
961,37.18034240290763
962,27.833268919539478
963,-1.6434601342552924
964,-33.22677135982394
965,-47.71759184575603
966,-30.762849167384047
967,6.020528613699753
968,42.358612950155475
969,58.38147480940734
970,48.7941846741669
971,26.354812542972468
972,4.9504279307248
973,-4.478900130745387
974,-5.282103092124089
975,-5.1401128860397876
976,-11.568861926471982
977,-27.230283108166986
978,-49.34730980603399
979,-74.85787587452705
980,-100.37491564703305
981,-121.15236393523719
982,-132.08415602848345
983,-128.3312276931274
984,-111.1455151718792
985,-87.76595518313752
986,-65.69148492031582
987,-50.90704205115162
988,-43.92856471702726
989,-44.05199153225294
990,-50.3552615833687
991,-58.32231442842749
992,-60.40709009625698
993,-48.975529085734706
994,-21.554572365042986
995,9.086838629085833
996,27.365761992125044
997,19.252255352522297
998,-9.277624127525087
999,-38.37181975128806
1000,-47.9252752867078
1001,-28.172934965605236
1002,6.24325651712752
1003,37.1523540043454
1004,46.37241187747077
1005,19.942484057320144
1006,-27.698375995057177
1007,-70.40611527752935
1008,-82.38268124604292
1009,-57.32602181374932
1010,-16.92308535015127
1011,14.963179319775918
1012,18.834822916466692
1013,-1.0521042933505669
1014,-32.397552495761374
1015,-63.03147232876199
1016,-85.04681488134975
1017,-95.56553169261133
1018,-91.98557475080361
1019,-73.69589649242153
1020,-48.45344980126811
1021,-26.234188007509147
1022,-16.555064886736545
1023,-19.55503465899801
1024,-26.686051987855535
1025,-29.070071979409477
1026,-20.64205018132725
1027,-4.207942581870157
1028,15.684294391093317
1029,34.62670387108119
1030,50.085328553985164
1031,60.838210699077536
1032,65.69339213001876
1033,63.397914235865755
1034,52.56981797209755
1035,31.806143861632336
1036,0.7589319958624401
1037,-31.907777964315756
1038,-52.96094678745794
1039,-49.32453567052562
1040,-20.848506237837682
1041,11.957179459986037
1042,26.712558947090656
1043,6.8996693234430495
1044,-31.403452734087296
1045,-60.86777097065442
1046,-55.01624955235911
1047,-11.576853065157593
1048,45.18445348622481
1049,89.63370467939694
1050,103.3879346753929
1051,93.69417721978152
1052,73.45446564377289
1053,54.97783286534013
1054,42.30131139032801
1055,33.462933313580834
1056,26.3767303200666
1057,20.858733686009145
1058,20.896974280031827
1059,31.028482564282967
1060,54.30928859558571
1061,82.64542202658868
1062,102.86991210691576
1063,102.06578768432064
1064,79.25907720584746
1065,49.548808718991495
1066,29.177009872871167
1067,30.268707919397457
1068,47.57292971443894
1069,71.24670171901835
1070,91.62005000047702
1071,101.90100023366722
1072,97.61857770214283
1073,74.3928072993458
1074,34.20071352980267
1075,-6.137679489673246
1076,-27.677348028782944
1077,-14.412268742534252
1078,27.204581329953726
1079,80.36922476668406
1080,128.39568376397438
1081,161.58298013768945
1082,179.29413532445142
1083,181.49717038286417
1084,169.65410599474853
1085,150.94596246634865
1086,133.92875972959155
1087,126.42951734329472
1088,126.56425449442395
1089,125.56498999931318
1090,114.55274230492068
1091,89.38052949006487
1092,55.01336926667136
1093,17.46727898102381
1094,-17.848724384983143
1095,-49.01362421260001
1096,-75.36040424495877
1097,-96.23304858581469
1098,-111.22554169829073
1099,-120.17286840362158
1100,-122.92001387987148
1101,-119.44696366069093
1102,-110.06870363403414
1103,-95.16022004089155
1104,-75.29549947402666
1105,-52.64352887669065
1106,-30.15029554136072
1107,-10.791787108452809
1108,1.4850084349491226
1109,1.5031027563800308
1110,-15.983492820731044
1111,-52.19376731577631
1112,-94.64371008968556
1113,-127.93531084363804
1114,-138.17555961777816
1115,-126.98244678992342
1116,-105.10096307428194
1117,-83.33309952015225
1118,-69.01684751063658
1119,-64.38219876135008
1120,-71.24414531912043
1121,-89.67167956069352
1122,-112.84479419144282
1123,-132.24548224406226
1124,-139.8917370772815
1125,-134.2445523745473
1126,-117.96792214274137
1127,-93.81684071087238
1128,-65.30430272876947
1129,-37.162303165792764
1130,-14.230837309512026
1131,-0.7999007644193625
1132,1.1605105493836163
1133,-9.720599602509537
1134,-34.38322776750738
1135,-68.5063708047137
1136,-104.26702588361877
1137,-133.8131904827951
1138,-152.07686238858787
1139,-158.37203969381335
1140,-152.39472079643747
1141,-135.56590439828597
1142,-116.13558950371862
1143,-104.06377541833444
1144,-108.37746174765653
1145,-127.72564839581901
1146,-154.30633556427074
1147,-180.22552375045143
1148,-198.177213746495
1149,-201.69940663791476
1150,-184.39310380229472
1151,-144.5933069079847
1152,-97.01001791278668
1153,-59.908239062649045
1154,-49.022972890360506
1155,-57.04322221424263
1156,-64.38699013683527
1157,-51.91328004359457
1158,-19.240095601592657
1159,11.534559241803436
1160,16.98368026022581
1161,-15.261737050384909
1162,-67.19069747047615
1163,-115.60420605557647
1164,-140.309268134989
1165,-141.54688931049895
1166,-128.04707545506062
1167,-108.46483271149737
1168,-89.15116749120716
1169,-74.33808647285059
1170,-68.16159660106223
1171,-71.54570508514826
1172,-78.95541939778286
1173,-84.0857472737207
1174,-82.5866967084894
1175,-79.28227595710632
1176,-81.67649353277375
1177,-96.21435820559418
1178,-116.71387900126865
1179,-128.76306519981335
1180,-118.06192633426963
1181,-82.43447218940582
1182,-36.29971280043901
1183,4.722341548256736
1184,29.259680324433248
1185,38.59229274925656
1186,36.32616779858563
1187,25.99429420425713
1188,10.621660455362871
1189,-6.974745200465804
1190,-23.83193475578628
1191,-34.3329204420661
1192,-30.5527147284065
1193,-4.607330320264737
1194,40.45621984180161
1195,82.32092258342618
1196,96.68876449768686
1197,67.82473194638351
1198,12.222811061295033
1199,-46.03901225454774
1200,-84.93775232560893
1201,-100.01042370257801
1202,-95.59704116111425
1203,-76.27461970059176
1204,-50.32617454284082
1205,-29.72772113089286
1206,-26.56427512772916
1207,-45.34285241503676
1208,-75.7204690919516
1209,-105.6231414738113
1210,-124.44688609091736
1211,-127.56371968729218
1212,-111.85065921942805
1213,-75.66772185506397
1214,-30.326924971929657
1215,6.163713843471669
1216,16.479176797107357
1217,0.41444588863942045
1218,-25.324497087342934
1219,-43.37567054009742
1220,-44.066093081500185
1221,-32.11378352483189
1222,-13.815760883553594
1223,5.418955629919765
1224,23.473346605417646
1225,38.988392436243885
1226,50.39007332038091
1227,54.48936926169881
1228,47.3602600711647
1229,25.769725368046238
1230,-1.3572554188895083
1231,-14.782703050170312
1232,4.736361525575376
1233,56.81791717281703
1234,110.9209425703084
1235,133.924416212285
1236,107.12731640964557
1237,53.07862129114346
1238,1.6603088045694676
1239,-22.477643282076315
1240,-23.650257379394134
1241,-16.115556075415043
1242,-13.021562134431406
1243,-14.808298495819145
1244,-13.953788272871861
1245,-3.103054751642958
1246,16.98087861022941
1247,36.6209881846753
1248,45.72625017434984
1249,40.10064061378853
1250,26.86513537056453
1251,14.424710146432517
1252,9.649340478477825
1253,14.100001740259358
1254,28.19466914295208
1255,51.69631773648598
1256,80.1879224106815
1257,107.60845789638279
1258,127.98489876659005
1259,136.5672194375793
1260,129.44139417003953
1261,103.02339707018473
1262,63.25820209087942
1263,26.92678303274988
1264,11.326113545300359
1265,24.257167128023866
1266,55.47191713151369
1267,92.69633675855857
1268,124.52239906525028
1269,142.38807696208914
1270,138.30234321506668
1271,107.6041704467707
1272,64.58353113747125
1273,30.239397626205573
1274,23.594742111867163
1275,43.07953665428158
1276,75.01075317529558
1277,105.75136345983537
1278,126.04433915699792
1279,130.76865178110984
1280,115.10027271279341
1281,81.89617320003435
1282,45.491324359238206
1283,21.1556971762966
1284,18.124262507629282
1285,31.147991081244072
1286,52.84085349777979
1287,75.35382023156035
1288,89.02386163162464
1289,83.73094792277425
1290,52.67404920661011
1291,10.647135462559163
1292,-18.90682345109326
1293,-14.49885779617125
1294,23.07700204640605
1295,79.08372557765233
1296,138.6702821815279
1297,189.4636411259571
1298,221.44377156383598
1299,224.8876425340386
1300,200.32622296243062
1301,162.95148166286344
1302,129.06238733817463
1303,108.7029085811846
1304,98.41001387568758
1305,92.97067159743801
1306,90.10985001515019
1307,97.3115172914604
1308,124.0886414839224
1309,174.79419054597838
1310,227.35513232793255
1311,251.2464345779199
1312,221.2070649428797
1313,154.2489909695105
1314,87.66018010523749
1315,56.40659969916578
1316,63.360217003040816
1317,88.99399917219034
1318,113.62891326648514
1319,124.89092625126887
1320,117.6630049983105
1321,87.37011628674372
1322,39.90622680399247
1323,-4.095696853286427
1324,-22.967688178279786
1325,-6.9267807530923164
1326,30.160991752180962
1327,71.6265955803683
1328,105.01899688814137
1329,129.90416174692564
1330,147.96105614381486
1331,160.23064598247402
1332,165.149897084043
1333,160.49477518804179
1334,145.50824595326594
1335,128.0622749586737
1336,119.15582770428773
1337,128.29086961208122
1338,152.26136602685438
1339,181.46828221712803
1340,206.37558337601422
1341,218.88023462209458
1342,211.85020100029396
1343,178.8894474827457
1344,127.65793896966443
1345,78.53164029020081
1346,51.83051620331207
1347,50.711531398606894
1348,57.853650497212584
1349,54.94283805261239
1350,37.28405855150686
1351,21.470276414643195
1352,25.884455997675104
1353,57.41556159198717
1354,99.44055742553246
1355,132.4544076636721
1356,142.8060764100028
1357,132.57252770717423
1358,106.44272553772316
1359,70.37963382489488
1360,34.827216433447575
1361,11.222437170485136
1362,7.909259786251823
1363,19.007647974953215
1364,34.53956537555587
1365,46.46797557259288
1366,58.38684209696112
1367,78.19412842672045
1368,111.43379798788737
1369,145.26281415522408
1370,158.23114025302948
1371,131.78073955592663
1372,77.35557528963818
1373,23.861610631770418
1374,-1.3251912874065965
1375,5.483132615810064
1376,31.06354537932657
1377,62.04800999602594
1378,89.07648941452953
1379,106.2619465399639
1380,108.03634423471249
1381,93.9736453191872
1382,68.97981257256743
1383,38.336808733562066
1384,11.351596501156564
1385,2.3031385353560836
1386,25.433397457937645
1387,76.47533585317888
1388,124.16191626860746
1389,135.3411012157303
1390,98.98485317077302
1391,42.01613457540407
1392,-4.994092162532979
1393,-23.862864668295515
1394,-21.24022059951585
1395,-6.7361976454885735
1396,11.547166473553261
1397,29.017834007157944
1398,41.586767175360364
1399,48.45292816939218
1400,57.65527915239545
1401,78.69978226012518
1402,114.23839960165242
1403,145.7530932600639
1404,150.65282529316391
1405,116.0155577341693
1406,62.9502525923981
1407,20.05087185396951
1408,8.718377482484357
1409,21.74573141971723
1410,44.814895586302555
1411,64.8508318824097
1412,74.35450218842925
1413,67.3658683656513
1414,41.26289225693472
1415,9.903535687385556
1416,-7.76723953497094
1417,1.8725283814783324
1418,23.482801212596314
1419,31.92954071917029
1420,8.816708647564155
1421,-24.255733269609664
1422,-31.00582331283931
1423,16.800400224944497
1424,95.57989903903126
1425,161.32863481357072
1426,177.50556922223404
1427,159.27566392886092
1428,143.47788058810693
1429,160.85018084608419
1430,197.00252634101162
1431,217.59587870385621
1432,194.58319955896877
1433,148.8914505247276
1434,124.07059321417
1435,156.65758923562862
1436,226.1834001933712
1437,284.92998768822326
1438,292.05031331820464
1439,264.6883386791478
1440,248.42602536534196
1441,282.0443349701445
1442,345.4692290866078
1443,389.2966693081007
1444,371.2296172289398
1445,311.1380344449908
1446,260.14388255430094
1447,262.6731231577087
1448,304.33071785946504
1449,341.16662826783795
1450,334.39681599573487
1451,290.49224266131023
1452,238.4548698885701
1453,204.54165930799445
1454,191.02757255712731
1455,188.47257128120236
1456,187.83461713373254
1457,183.9516717771221
1458,173.5106968832706
1459,154.65265413417183
1460,136.54850522251763
1461,133.44221185229708
1462,155.61673573939333
1463,184.4890386121906
1464,188.77208221216097
1465,144.3288282944668
1466,76.20223862856164
1467,29.952274998773646
1468,41.96989920490978
1469,89.75607306284292
1470,127.75175840511383
1471,118.64591708151147
1472,74.14951095967535
1473,23.83150192568064
1474,-7.37614811536605
1475,-19.78947723874444
1476,-22.19452349952371
1477,-21.986324931973286
1478,-19.678919548981867
1479,-13.672345341457003
1480,-3.8656402777496623
1481,3.2861576969426096
1482,-0.4999893388421697
1483,-19.63411928223468
1484,-43.23427000546053
1485,-56.63547935524184
1486,-51.199785152215554
1487,-39.387225190349454
1488,-38.27683723634527
1489,-56.76765902906391
1490,-78.59172827893144
1491,-82.66208266735612
1492,-59.3387598461386
1493,-29.71579743689017
1494,-19.956233030433395
1495,-42.54010418623511
1496,-78.06544843179836
1497,-102.66430326208774
1498,-103.81970613893463
1499,-91.81869449045462
1500,-79.63730571044835
1501,-75.76257715782685
1502,-80.92054615600591
1503,-94.99124999233027
1504,-113.77972591747039
1505,-127.0890111448407
1506,-124.48414284999762
1507,-104.71915817005993
1508,-78.04609420310044
1509,-55.205988007562155
1510,-40.68987660165931
1511,-32.38379696277934
1512,-28.00678602689186
1513,-28.008880687946657
1514,-35.24911779727154
1515,-52.19053416298266
1516,-74.57616654937374
1517,-93.21105167631686
1518,-99.98022621866403
1519,-99.46072680563702
1520,-103.8835900202248
1521,-122.61785239857363
1522,-140.8105504293835
1523,-131.77772055329842
1524,-76.44039916228849
1525,-4.437622599044516
1526,35.59157284363664
1527,7.795150923469009
1528,-60.70292455070194
1529,-123.49068971829092
1530,-145.48318066634147
1531,-134.5314334289069
1532,-108.64348398643506
1533,-84.00236826512628
1534,-71.48012213632228
1535,-80.94978141586762
1536,-112.73238186347953
1537,-145.83895918211692
1538,-156.5715490173434
1539,-137.00718695668456
1540,-106.32790852900052
1541,-86.03574920383198
1542,-82.84274439076489
1543,-83.89192943877606
1544,-75.45033963559035
1545,-55.17001020702719
1546,-32.252976316350214
1547,-15.96727306360117
1548,-8.757935484954032
1549,-7.789998552048019
1550,-9.947497171317991
1551,-10.724466183341065
1552,-4.805940362152796
1553,11.848045585413274
1554,34.13845702040544
1555,53.05425937243854
1556,59.619418140357084
1557,45.201898892937606
1558,1.2566672695702437
1559,-72.01231101906433
1560,-143.79507019028097
1561,-176.60864438870885
1562,-151.52806768558548
1563,-95.56737407805122
1564,-42.587597488457504
1565,-11.859771763633944
1566,3.0910693258028914
1567,11.240892086183521
1568,16.919662901490483
1569,18.580348234093435
1570,14.30491462547434
1571,2.3643286969545443
1572,-18.797442849566323
1573,-50.02343323086825
1574,-83.9676755816754
1575,-108.02420295390675
1576,-111.38404831591743
1577,-97.1572445517595
1578,-74.65382446040257
1579,-52.28582075499253
1580,-33.95126606206486
1581,-22.20119292077925
1582,-18.07063378215389
1583,-17.781621008266484
1584,-16.625186871483493
1585,-12.430363553662573
1586,-8.388183145362746
1587,-8.289677645041593
1588,-12.053878958255154
1589,-14.113818896848898
1590,-8.789529178141493
1591,2.7339585758936664
1592,12.655612839438618
1593,13.38440218368305
1594,2.9162952776323436
1595,-17.129739111035633
1596,-43.65573211513765
1597,-63.74271476713329
1598,-60.30171799826894
1599,-23.478772637719885
1600,25.420090588273524
1601,56.729841057273006
1602,54.03044825152756
1603,36.34288175884467
1604,28.397111273488008
1605,41.24510659705447
1606,62.69383763939368
1607,78.59527441949285
1608,83.39038706639803
1609,80.93814582013056
1610,75.58352103260586
1611,71.6214831685611
1612,73.3180028064935
1613,84.1140506396041
1614,101.44059747673236
1615,120.06461424332429
1616,135.42707198238713
1617,145.90894185544676
1618,150.67819514354323
1619,148.1568032481855
1620,134.9067376923531
1621,107.32997012148462
1622,69.9224723044772
1623,39.61421613469793
1624,33.60717363099138
1625,51.94131693870622
1626,78.32361833071627
1627,97.42705020846643
1628,110.54858510300164
1629,128.6561956760288
1630,158.94385472096383
1631,186.99653516400485
1632,190.98721006519736
1633,161.1968526195169
1634,125.5894361579567
1635,119.20393414861974
1636,153.1883201978235
1637,195.80356805120937
1638,211.92465159486528
1639,195.439544856441
1640,171.1202220062969
1641,163.0246573586346
1642,170.02482537265496
1643,175.13770065371227
1644,164.81525795448215
1645,146.82447217614117
1646,136.5683183695519
1647,145.6307717364416
1648,173.62780763062165
1649,217.7544015591875
1650,267.0835291837393
1651,296.6561663216089
1652,281.6012889470967
1653,231.2718731927198
1654,188.9078953504595
1655,194.01833187303055
1656,235.28915937515558
1657,272.8513546348386
1658,274.1118945946637
1659,243.69575636309492
1660,197.53891721578475
1661,151.49635459689307
1662,121.1730461204179
1663,121.78196957153341
1664,151.3861029079426
1665,184.37842426123098
1666,194.86391193823601
1667,178.98254442243342
1668,149.74630037531097
1669,120.2571586377826
1670,101.24409823158567
1671,102.46009836071426
1672,127.92613841282855
1673,162.5241979607199
1674,187.20925676373736
1675,189.72629476926977
1676,169.5122921142065
1677,127.68522912641765
1678,75.91508632625937
1679,35.610844428072596
1680,24.90248434169007
1681,31.96198717398329
1682,30.337334230377564
1683,2.035507016421434
1684,-37.789512760666184
1685,-66.056743190421
1686,-70.19720215754478
1687,-57.75190734031548
1688,-38.54687620898039
1689,-22.675126024134443
1690,-20.49267383509232
1691,-39.720536478248505
1692,-65.24373057541652
1693,-70.2952725321702
1694,-38.96617853616317
1695,1.5965354445634148
1696,13.864853663282702
1697,-17.526239403700856
1698,-66.29675905532804
1699,-102.35672036404503
1700,-112.99813817404356
1701,-101.98602709950501
1702,-74.11440152281284
1703,-37.083275592770406
1704,0.02333677720889682
1705,29.138421910919533
1706,45.82296637118725
1707,46.50495696171947
1708,33.65938072896188
1709,19.68322496395922
1710,16.941477204251896
1711,22.036125235764302
1712,18.823157094718226
1713,-5.458438930444572
1714,-40.02267429711719
1715,-65.00456020658748
1716,-68.48510760206045
1717,-60.406327166682786
1718,-54.21622932155242
1719,-55.0548242237046
1720,-57.420121764086616
1721,-56.00213156553127
1722,-55.260862980690035
1723,-65.65632508998533
1724,-93.0255266995091
1725,-122.43647633894307
1726,-133.3131822594396
1727,-115.11365243150067
1728,-76.6138945428338
1729,-29.086915996197604
1730,10.805276092771237
1731,21.56167489773634
1732,-12.240726116127917
1733,-64.20093318992167
1734,-90.80995226878713
1735,-66.99978899966754
1736,-18.71044872902712
1737,19.84506349941057
1738,30.82874294697558
1739,16.474585182347255
1740,-18.87441391610355
1741,-62.41525815798286
1742,-96.61995103850313
1743,-107.84549573611366
1744,-97.24889511009951
1745,-69.50515169818118
1746,-33.24826771408061
1747,-3.3362450450804317
1748,6.229914750433636
1749,0.28921044545404584
1750,-3.04835885315606
1751,8.994206297846176
1752,22.50090568061478
1753,15.762739418761157
1754,-17.723292020086774
1755,-55.3551878217022
1756,-72.3359468226572
1757,-62.96856750771258
1758,-37.455048007181176
1759,-7.087386094274734
1760,13.582420817561797
1761,8.901375677338365
1762,-24.086518200770115
1763,-60.60625713470108
1764,-73.34683707176555
1765,-58.49525358588289
1766,-33.93950187480732
1767,-16.664576757319082
1768,-12.744472670417053
1769,-24.07218366647794
1770,-45.85070341040591
1771,-57.685025176755516
1772,-38.35414184683668
1773,2.466954094189532
1774,25.328270560255078
1775,-1.6931841326786525
1776,-54.50140126363749
1777,-87.09837170365608
1778,-77.00408591275482
1779,-56.93753393692259
1780,-65.31470540506052
1781,-93.53458952590972
1782,-88.55217508496753
1783,-10.289450441378904
1784,91.53959647520514
1785,133.67597816776652
1786,79.40870757509765
1787,-5.624201925007583
1788,-45.375736512538424
1789,-24.283881922044202
1790,20.434376560639066
1791,54.04005410164609
1792,65.05716632238818
1793,49.853729302872125
1794,12.52975958503339
1795,-27.917725823892397
1796,-51.729709447999085
1797,-53.44717333929657
1798,-38.439099074292244
1799,-13.530467750532807
1800,9.242740016853531
