800,111.84185473650905
801,102.11771754231813
802,83.65657098032352
803,60.14854342810395
804,38.03376359880167
805,23.80236054229863
806,22.11446364641961
807,31.25020263805527
808,48.13970758423602
809,69.74310889317348
810,94.04053731523709
811,120.3321239439174
812,148.00800021670148
813,175.8982979159573
814,198.60314916969764
815,208.74268645238953
816,198.90704258563528
817,167.69635073887002
818,128.84074442999008
819,98.41035752592506
820,91.69532424319914
821,108.56577914842819
822,134.67185715876622
823,155.13369354232418
824,157.9214239185585
825,145.80518425857736
826,126.3751108854376
827,107.20134047440297
828,92.11401005313019
829,78.52325700184156
830,63.22921905344447
831,43.68203429361347
832,24.491841160835975
833,14.678778446401338
834,23.362985294374084
835,54.714601201501864
836,97.07376601710712
837,135.550619942911
838,155.6653035328709
839,152.56795769288692
840,131.93872368058328
841,99.9977431049665
842,62.92515792606355
843,26.751110454546506
844,-2.524256648690425
845,-18.970800373012025
846,-18.958377358552752
847,-3.2068438967216935
848,27.07394406917956
849,69.88413094336283
850,113.97386147690486
851,142.1732807670469
852,137.25253425648225
853,91.97176773259525
854,30.611127326665155
855,-16.30924048696579
856,-19.46918889174958
857,22.441429270154913
858,82.06276149695805
859,130.7549556262784
860,146.0081598341094
861,137.752522633813
862,126.59819287503888
863,132.925319742606
864,160.65405275538615
865,187.73454176512496
866,189.7969369552302
867,146.68138883954634
868,74.86804826107073
869,9.75706639067539
870,-13.111405274245044
871,23.812785088863166
872,95.01978962631983
873,168.6397608067964
874,214.43285141982233
875,225.59921457432574
876,213.29900369711322
877,189.11237253128638
878,163.1694751346986
879,140.28046587831886
880,124.0754994445997
881,118.03473082580058
882,121.73831532229451
883,130.5864085408357
884,139.74916639278308
885,145.23674509235934
886,147.47930115476993
887,148.31699139441662
888,149.59997292299158
889,153.19840314757857
890,161.06243976874975
891,175.09224077857107
892,196.58796445865664
893,221.90976937812957
894,245.25781439159982
895,260.8322586370996
896,265.5832615339841
897,261.85098278082114
898,252.56558235325792
899,240.7072205018285
900,229.44605774977936
901,222.09225489084565
902,221.9459729870032
903,228.79737336619473
904,233.64661762004653
905,226.13386760154026
906,197.15928542266738
907,154.93303345206368
908,120.50527431263254
909,115.17617087909821
910,149.59588627558696
911,200.72458387317056
912,238.87242728735146
913,235.97958037559147
914,194.7062072347453
915,145.04247219852914
916,117.87853983493187
917,133.70457494361835
918,172.85074255332074
919,206.0172079191725
920,204.98413652005547
921,168.16169405592518
922,121.59004644508968
923,92.55935982147093
924,101.71980053189327
925,139.63153513326688
926,188.4147303898426
927,230.47955327036107
928,257.5761709452581
929,272.4347507837847
930,278.38546035115905
931,278.5384674056677
932,274.7039398957568
933,268.2920459571087
934,260.71295390969317
935,252.54683225480403
936,243.37384967206344
937,232.6841750164458
938,220.15797731524071
939,206.32542576500782
940,192.01668972853622
941,178.08193873176424
942,166.51134246069705
943,160.78507075829293
944,164.52329362132696
945,179.34618119727202
946,195.50390378113116
947,199.13663181225456
948,176.65453587116463
949,127.98778667633815
950,71.83655508099218
951,28.281012069839562
952,13.941328755834547
953,25.017676376905
954,50.33022629268271
955,78.73914998118016
956,102.6346190355016
957,119.22680516048786
958,126.05588016940419
959,121.02201598055399
960,103.78538461393873
961,74.62615818784798
962,33.99450891546803
963,-12.649390898515776
964,-53.095368861369934
965,-74.66325249571128
966,-68.41286924300402
967,-45.294046466997315
968,-22.906611457190593
969,-18.41039143234775
970,-32.7352135439869
971,-46.760904879889495
972,-40.11729246762661
973,0.4457967219022976
974,53.57853577092828
975,87.46109781124505
976,71.28365602063968
977,3.916383619316548
978,-82.56054613368724
979,-154.2369599441281
980,-184.762684486137
981,-179.66754640587715
982,-152.9813723251482
983,-118.56398884504233
984,-86.33522254959098
985,-62.36490000945196
986,-52.54284778553665
987,-60.22889243273312
988,-79.61286050356648
989,-102.84457855191613
990,-122.32387313672189
991,-135.40057082569183
992,-143.49449819902838
993,-148.18548185317013
994,-149.1833484045237
995,-140.69792449321722
996,-115.9490367868566
997,-69.33651198428197
998,-10.990176819348562
999,38.110141935285355
1000,56.77461746440713
1001,35.183422906417036
1002,-9.72326865044488
1003,-57.115284171915846
1004,-86.1424506815165
1005,-79.45459526437662
1006,-43.29154507105159
1007,6.426872678643122
1008,53.750830691787996
1009,84.64050159854378
1010,87.75605794826879
1011,51.93767220569316
1012,-27.874483252950085
1013,-123.74023614378711
1014,-196.55941427916332
1015,-208.29184557150984
1016,-155.74735803725707
1017,-76.65577980066155
1018,-11.096939097729773
1019,10.279335719911614
1020,-3.1267838188814494
1021,-31.38512630866353
1022,-55.04552047131074
1023,-64.93779515991082
1024,-61.41177936267013
1025,-45.187302206826644
1026,-18.964192962559537
1027,8.377718953090152
1028,26.70860397231081
1029,27.028632372597713
1030,15.207974272829233
1031,7.50679962934737
1032,20.395278232026612
1033,57.8435797003458
1034,95.53187347946732
1035,105.170328836306
1036,63.719114855573935
1037,-7.371599564121425
1038,-64.10164571421956
1039,-62.730855080162655
1040,6.860940654692968
1041,101.15390960513287
1042,171.77821968013996
1043,180.04403857896432
1044,141.1515337871915
1045,88.89087257279243
1046,56.2422219821874
1047,52.8657488363242
1048,62.87161972672766
1049,69.05000101156838
1050,59.741058811719995
1051,42.88495900684029
1052,30.76186723142382
1053,34.53194887088466
1054,49.73536905760375
1055,60.652292667024085
1056,51.31288431370376
1057,18.14730834740294
1058,-15.394271150849818
1059,-22.29169037266729
1060,19.055214213762156
1061,89.13660585976322
1062,149.72264753226955
1063,163.2635019098925
1064,124.27933137902255
1065,70.52029802992001
1066,42.756563652812474
1067,69.55828973399366
1068,127.81563745192761
1069,180.7587676733492
1070,193.7878409493769
1071,167.44301751163584
1072,130.66445726835445
1073,113.17231980050565
1074,129.12676435792127
1075,156.37794985542132
1076,167.56603486896165
1077,139.99117763175127
1078,86.50353603041003
1079,36.3132676011046
1080,18.1305295257298
1081,36.63547862802443
1082,65.32827136977176
1083,75.59906384693932
1084,48.78801178588037
1085,4.345270539484773
1086,-29.139004916611157
1087,-25.424659987851555
1088,10.228459535450384
1089,50.32050747430185
1090,66.94163725725593
1091,48.682001916611625
1092,15.781754084637214
1093,-7.858954010180241
1094,-3.7499705469290348
1095,15.19885588399302
1096,24.817676277110877
1097,1.9266412081506132
1098,-52.98409916972378
1099,-116.17439512961755
1100,-162.8740973746353
1101,-177.10305704159146
1102,-166.17112570472273
1103,-141.2581553793807
1104,-113.04399852571623
1105,-87.91850805237846
1106,-70.25153732016042
1107,-64.32294014569925
1108,-72.13257080510266
1109,-92.80028403761207
1110,-125.23593504923338
1111,-166.45937951638916
1112,-206.88047358950098
1113,-235.5490738966455
1114,-242.69503754711877
1115,-230.9682221350613
1116,-210.34848574302123
1117,-190.76568694553316
1118,-176.70968481269665
1119,-164.4903389137162
1120,-149.80750932045157
1121,-130.6710566109523
1122,-114.25084187298307
1123,-110.02672670754146
1124,-126.23857323235461
1125,-156.78624408539144
1126,-186.22960242831505
1127,-199.08851194998533
1128,-191.5628368698981
1129,-178.38244194165782
1130,-175.9371924563984
1131,-195.86695424621394
1132,-229.80159368758905
1133,-264.2409777047851
1134,-286.3649737732594
1135,-291.9934499230185
1136,-282.7462747420068
1137,-260.34331737947286
1138,-228.6444475492881
1139,-194.7795355333128
1140,-166.22845218469774
1141,-149.91106893120377
1142,-150.7172577784895
1143,-173.0168913134221
1144,-219.67984270731722
1145,-276.8159857192186
1146,-320.1251946991397
1147,-325.5173445912951
1148,-288.2723109373401
1149,-231.39996987954692
1150,-180.0901981640236
1151,-152.33287314388872
1152,-141.27787278243704
1153,-134.68507565629625
1154,-121.99436095856618
1155,-107.90560850194925
1156,-105.248698721849
1157,-126.42351267949925
1158,-166.8699320650103
1159,-201.69783920047485
1160,-204.8371170429964
1161,-164.87764918775247
1162,-110.75931987100921
1163,-78.31201397313816
1164,-96.47561702161147
1165,-147.18001519399695
1166,-192.87509532090917
1167,-197.76074488897575
1168,-163.30685204376823
1169,-125.4133055927341
1170,-121.16999500808924
1171,-164.656810429733
1172,-223.85364266810393
1173,-261.1603832070523
1174,-248.43692420668594
1175,-201.68315850619
1176,-149.84897962666219
1177,-119.65428177388821
1178,-111.8289598411302
1179,-110.12290941191168
1180,-98.25602676273593
1181,-73.04820886584275
1182,-49.239353391920304
1183,-42.87935871279842
1184,-62.87812390414183
1185,-97.0455487481122
1186,-129.24153373602167
1187,-145.67598007095694
1188,-148.10878967041754
1189,-144.84986516888603
1190,-143.87910992043726
1191,-146.53642800129273
1192,-148.42172421236137
1193,-144.96490408178397
1194,-131.25587386742882
1195,-101.89454055940769
1196,-51.39081188254204
1197,19.185403701181713
1198,84.25419699015401
1199,112.42565804074002
1200,78.37987616484861
1201,8.166939927559724
1202,-46.383062855240496
1203,-35.44004511922685
1204,39.316079446034564
1205,124.92539639478491
1206,166.38799052276227
1207,137.53394586492504
1208,68.73334569320104
1209,-3.063727485765412
1210,-47.73719193281613
1211,-62.84696667850767
1212,-52.94297152526815
1213,-23.455127049583098
1214,12.816645395869273
1215,39.21242368009189
1216,39.79228489165871
1217,15.67630533663214
1218,-15.17543946351725
1219,-34.14287477394646
1220,-32.84592664846605
1221,-21.984521931564814
1222,-14.358588260394754
1223,-18.68805406672618
1224,-28.552848578912744
1225,-34.09290182382574
1226,-26.768144628731534
1227,-8.36850862323081
1228,14.57607375891348
1229,35.83566927791617
1230,54.390343886125265
1231,73.65016272623325
1232,97.12519012948724
1233,125.39548961390938
1234,154.5511238825584
1235,180.3121548218096
1236,197.92864349963384
1237,201.3306501639363
1238,184.21823424087415
1239,143.93145433321843
1240,97.80036821874273
1241,70.04503284860766
1242,82.2455043458067
1243,126.12183800356797
1244,174.684088283866
1245,201.2623088158707
1246,196.71655239447136
1247,171.1068709788069
1248,135.54331569080023
1249,100.84593681374645
1250,77.39478379089633
1251,75.53990522408094
1252,99.32134887233224
1253,131.10916165056005
1254,148.55338962822316
1255,134.40407802803202
1256,104.2012712246833
1257,86.37501274359056
1258,106.61534525966817
1259,155.78231059612517
1260,200.9759497232535
1261,209.7563027573051
1262,176.9734089593112
1263,128.51730673400016
1264,91.90803362866973
1265,83.58562633213478
1266,99.0201206736674
1267,131.3115516219732
1268,172.27995328418
1269,209.54535890487205
1270,229.86780086511135
1271,223.54731068151523
1272,201.01391900533054
1273,179.80765562156557
1274,176.0385494480961
1275,190.42662853484217
1276,214.6819200629452
1277,240.35445034395525
1278,258.69424481908027
1279,260.61132805842135
1280,237.22572376025164
1281,191.37745475030897
1282,143.44654298112619
1283,115.20300953135484
1284,119.34687460516034
1285,146.65815753159768
1286,184.7468767640221
1287,221.30304987954332
1288,244.56669357847568
1289,242.86782368382956
1290,207.6764551408287
1291,150.91260201644218
1292,92.66627749892905
1293,52.11749389744364
1294,38.02626264163155
1295,52.59259428126643
1296,97.40649848589601
1297,162.9479840445365
1298,229.10705886536016
1299,275.603729975448
1300,293.46800352052014
1301,289.96988476472507
1302,273.6593780904386
1303,253.78648699810037
1304,241.2012141060477
1305,247.00356115041905
1306,276.0335289850136
1307,312.53111758126215
1308,336.4763260281561
1309,333.3191525322145
1310,316.69959441750143
1311,309.2176481256447
1312,329.3533092158832
1313,361.93657236515355
1314,375.71743136815894
1315,342.28587913754745
1316,271.79190770400965
1317,201.29550821648263
1318,167.25667094234996
1319,179.3053852676585
1320,220.3216396973694
1321,272.0854218556469
1322,318.48671848614504
1323,346.32551545234674
1324,342.71179773790936
1325,306.3055494470427
1326,258.6867538049173
1327,224.1653931580895
1328,219.24144897495353
1329,238.1749018462342
1330,271.3057314854723
1331,309.1539167295741
1332,342.85943553935795
1333,363.7322650001406
1334,365.4023813223466
1335,355.0797598421341
1336,344.90437502206987
1337,345.60620045180076
1338,356.00520884876823
1339,368.93137205895255
1340,377.7646610576321
1341,383.4550459501679
1342,392.1124959728186
1343,409.4869794936003
1344,432.7384640131222
1345,451.2169161655074
1346,454.1723017192926
1347,437.2745855783887
1348,403.81373178303875
1349,357.6297035108255
1350,308.6624630776914
1351,276.371971938981
1352,280.9881906905357
1353,328.13107906977166
1354,393.630595956829
1355,449.626699375709
1356,474.8193464954784
1357,465.4784936314463
1358,420.80409624642743
1359,347.25610895197315
1360,276.9644855096867
1361,247.6891788325156
1362,285.5401409860988
1363,362.8373231901296
1364,436.4306758197472
1365,470.13014840695723
1366,469.64568964207683
1367,456.18724737521006
1368,447.94476861773
1369,439.43819954381615
1370,414.1074854920171
1371,358.7225709667946
1372,294.59339964015635
1373,263.17991435328076
1374,301.6720571181686
1375,386.65976911932376
1376,451.4629907154758
1377,432.30166144130817
1378,335.57572000922664
1379,228.32510431114315
1380,177.46975142030715
1381,196.71959759312995
1382,244.54457827107035
1383,277.61462808252327
1384,279.6296808447569
1385,267.719669565844
1386,260.81452644665114
1387,265.48418288284665
1388,270.15856946692475
1389,261.98761599025966
1390,238.9412514452015
1391,217.51940402718355
1392,216.0120011368508
1393,241.51896938223763
1394,278.78023458095595
1395,309.86572176241134
1396,323.5353551700482
1397,324.03905826362643
1398,317.8567537215131
1399,310.08836344301744
1400,302.20380855073563
1401,295.07300939293964
1402,289.1258855459673
1403,283.5223558166781
1404,277.1623382448888
1405,270.19575010588596
1406,267.2225079129166
1407,273.8125274197373
1408,292.0657236231982
1409,310.37201076579913
1410,313.6613023383579
1411,292.323511082619
1412,260.93854899394864
1413,240.82632732403
1414,248.63675658359716
1415,278.0197465451838
1416,315.5352062459151
1417,348.75304399029665
1418,370.93316735308326
1419,377.2554831821035
1420,364.1498976011844
1421,335.64631601304245
1422,298.56464310224146
1423,260.46478283815304
1424,233.69663847796073
1425,232.48011256967766
1426,267.1751069552138
1427,321.41152277341826
1428,367.6292604632199
1429,383.1682197667433
1430,381.488299732453
1431,392.0393987183634
1432,438.96141439523126
1433,505.16424374980306
1434,554.5477830880736
1435,556.5719280385765
1436,526.1665735557144
1437,499.9916139230827
1438,509.5569427568571
1439,542.7024530091894
1440,565.8480369716235
1441,549.6535862785586
1442,501.5589919107224
1443,447.29414419866407
1444,411.5289328263061
1445,408.46324683448256
1446,447.006974624539
1447,531.5900039619373
1448,628.9022219798844
1449,686.6335151830062
1450,660.0437694510474
1451,569.0028700425592
1452,465.5807015986684
1453,397.0971481468405
1454,370.18209310466773
1455,371.55541928370985
1456,387.8170088933166
1457,405.9567435445242
1458,413.1045042539572
1459,399.22017144774327
1460,375.75362496547496
1461,364.0147440642013
1462,380.42340742239867
1463,405.49949314405967
1464,403.99287876269955
1465,348.0334412454795
1466,260.9310569972895
1467,187.26560186491042
1468,163.7469511411673
1469,176.194979569118
1470,190.53956134627697
1471,178.2205701288458
1472,143.82787903599638
1473,103.99136065415587
1474,73.8208870413273
1475,60.22632973144209
1476,67.33755973872212
1477,94.53444756210047
1478,117.96686318960747
1479,106.60467610286469
1480,42.69775528152422
1481,-32.814030792203994
1482,-62.74081412904343
1483,-10.14272722807982
1484,81.98009692779851
1485,150.82752487652397
1486,153.26942268146558
1487,114.95565593608626
1488,76.60608976863841
1489,66.25058884685859
1490,72.78901738269997
1491,77.64123913708681
1492,69.9771174247071
1493,59.7765151188305
1494,60.449294656113125
1495,74.53531804148588
1496,79.30444685301336
1497,48.59654224683618
1498,-20.028535037919937
1499,-81.330924674181
1500,-84.76076674192518
1501,-15.958201723182356
1502,76.8966295030059
1503,140.01358566564159
1504,150.96252510686827
1505,133.5933057870625
1506,115.0457852899981
1507,107.95982082797855
1508,106.77526924703488
1509,104.84198703213588
1510,96.51983031244163
1511,77.26865486652241
1512,43.308316127673606
1513,3.8386691892264935
1514,-20.42043119013215
1515,-10.279130581000572
1516,26.60242512214245
1517,62.85408970631033
1518,72.48571664547126
1519,49.267159105989776
1520,-1.1017300478833931
1521,-70.5610982485232
1522,-133.09109321938377
1523,-153.8818629694506
1524,-107.46355578766816
1525,-28.136320237321343
1526,26.579694849562657
1527,13.32434037789426
1528,-41.22253300482771
1529,-88.92107490280614
1530,-94.90143516622993
1531,-74.43376388551769
1532,-54.658211385565664
1533,-54.5949282199399
1534,-69.6340651650662
1535,-90.92577321439421
1536,-109.86020357251618
1537,-118.4575076493038
1538,-108.90783705397553
1539,-81.13134358918069
1540,-48.34817924502386
1541,-24.948496193101164
1542,-18.42244678048337
1543,-27.120183523693413
1544,-48.4818591026542
1545,-73.40762635462306
1546,-86.16763826807255
1547,-72.22204797660743
1548,-39.79100875278709
1549,-14.694674001975727
1550,-20.373197256158164
1551,-51.166732167712325
1552,-84.50543250320152
1553,-100.15945213708255
1554,-95.92894504546894
1555,-77.39406529979533
1556,-51.08496706050755
1557,-28.251804570707463
1558,-21.62473214980855
1559,-39.443904187108274
1560,-74.42947513541367
1561,-115.8415995045707
1562,-153.54043185502633
1563,-178.8061267913563
1564,-183.23883895573817
1565,-167.37872302145115
1566,-147.47593368632624
1567,-141.0706256661615
1568,-154.19295368816347
1569,-178.18307248431483
1570,-203.56113678474503
1571,-222.59730131108154
1572,-229.14172076977593
1573,-217.83454984541095
1574,-191.51594319396645
1575,-158.33605543609883
1576,-126.70504115037147
1577,-106.3330548664726
1578,-107.49025105842702
1579,-135.30678413775058
1580,-170.11280844662724
1581,-184.7484782510237
1582,-161.91394773382854
1583,-115.55937098791946
1584,-65.81490200925509
1585,-31.400694689922602
1586,-28.086902811159234
1587,-70.62368003638949
1588,-142.9411799041809
1589,-185.19955582124203
1590,-137.88896105536878
1591,-21.489548728362934
1592,66.39852819104453
1593,35.0451168943091
1594,-88.46993525979451
1595,-200.85678073803865
1596,-213.09557182555363
1597,-145.16646061864958
1598,-63.309599017615255
1599,-20.965138719469905
1600,-15.823231210733866
1601,-30.62402776016097
1602,-52.12767941144739
1603,-77.8943369759163
1604,-107.22415102522064
1605,-134.90727188397432
1606,-148.14384962240547
1607,-133.8640340489601
1608,-92.25797470293037
1609,-38.025820846993156
1610,13.37227854017874
1611,46.476174771411024
1612,45.89571945848729
1613,0.940764519635195
1614,-64.30883781295233
1615,-110.44323498559243
1616,-108.2125741155578
1617,-72.28700198352817
1618,-29.016665025983457
1619,1.6482906723776978
1620,15.947719386267636
1621,12.7514757574354
1622,-2.3305851976565464
1623,-13.308608080182239
1624,-4.032737101251769
1625,25.766883925782167
1626,61.27011159307585
1627,87.67680290600401
1628,96.65681529094763
1629,83.66000660304417
1630,48.78623513399543
1631,17.695359619867304
1632,24.79723924893551
1633,84.26173366950025
1634,147.2987029977594
1635,153.28800782569488
1636,83.23950922894619
1637,-7.146931225273875
1638,-55.99145147024683
1639,-44.494188931821554
1640,0.2747194795465475
1641,50.01513737678397
1642,88.03692890416642
1643,104.87995874533226
1644,94.25409213130115
1645,67.17919484850972
1646,40.90513324686617
1647,28.631774247818612
1648,30.808985352410673
1649,45.386634649423286
1650,70.64459082344729
1651,105.282723163029
1652,147.71090156881291
1653,188.0789965616823
1654,208.34687929094434
1655,193.3644215425229
1656,159.50149574713032
1657,140.84797498851367
1658,160.77373301166335
1659,189.3286442310564
1660,180.37258373892837
1661,113.885427313533
1662,36.17705142741943
1663,3.0873332557493995
1664,28.88615068459876
1665,70.37338231927788
1666,83.15890749268146
1667,67.43260627363452
1668,57.61435947526661
1669,82.25404866336976
1670,124.65155616482116
1671,149.36676507596167
1672,132.65955927102732
1673,89.97982341056377
1674,44.84744294990196
1675,14.362304147576651
1676,4.454294073808342
1677,19.23330061899469
1678,47.269212502191294
1679,62.80191927960914
1680,42.93131135314434
1681,-7.3527200210937735
1682,-69.44028272426294
1683,-125.25148376620746
1684,-159.27642927691886
1685,-156.7152244979461
1686,-119.28797377382216
1687,-80.16478054346044
1688,-74.67574733154652
1689,-104.96097573992301
1690,-140.28056643896343
1691,-151.63461915891457
1692,-137.68323268127278
1693,-111.12650483010111
1694,-85.87453246336008
1695,-79.85741146424334
1696,-111.88523673245982
1697,-177.71810217554594
1698,-229.99610070016934
1699,-218.97932420336656
1700,-147.02786356384968
1701,-65.87180863325193
1702,-23.531248227365722
1703,-22.70627011740362
1704,-44.766961021219686
1705,-72.82340659452711
1706,-96.54569142211403
1707,-107.0838990090524
1708,-101.3681117718952
1709,-85.74841102985556
1710,-67.7948769959894
1711,-60.39758876835913
1712,-80.77662432121178
1713,-139.27206049611232
1714,-202.3939729931153
1715,-219.76243636187064
1716,-167.57752399277706
1717,-95.10930810810896
1718,-62.977859753103985
1719,-89.63324878710227
1720,-139.5555438746287
1721,-175.51481247648917
1722,-181.03112084086752
1723,-152.33453399438986
1724,-94.2751157332059
1725,-48.752928614056145
1726,-67.5380339453277
1727,-158.15049177812216
1728,-242.98036089727248
1729,-239.20769881242632
1730,-151.02256174903596
1731,-60.59500463943186
1732,-39.49508111381692
1733,-69.32284349128713
1734,-94.91834277086673
1735,-80.84162862248922
1736,-46.372749378015214
1737,-19.731752022229557
1738,-14.63868218382595
1739,-27.063584126406568
1740,-51.13650073945246
1741,-74.21747352931197
1742,-79.88654261017655
1743,-58.973746695037335
1744,-29.64912308667226
1745,-16.292707668588264
1746,-28.67453489599029
1747,-53.52463778674064
1748,-76.39304791230097
1749,-94.47979538867548
1750,-113.12490886737942
1751,-134.7084155263492
1752,-146.7403410609095
1753,-132.4107096746884
1754,-87.42954407055731
1755,-31.426865441570044
1756,13.79730653812112
1757,35.84295372233646
1758,30.16005950194085
1759,-3.9513911860685766
1760,-47.001411849498254
1761,-72.520014431866
1762,-67.41720930330848
1763,-48.043005251509385
1764,-33.74740947262217
1765,-26.64042756215349
1766,-12.862063505906917
1767,17.607680329132563
1768,46.97880320386503
1769,46.94130601619145
1770,6.675191310077935
1771,-43.509536715335344
1772,-68.45287219664897
1773,-55.07480759711325
1774,-11.655333697533933
1775,49.35556041280688
1776,94.5878873452657
1777,82.5516614208882
1778,4.906898679544611
1779,-69.09638311102208
1780,-62.848164446097144
1781,19.441575925109646
1782,97.06286100852594
1783,100.38571557429532
1784,45.84016616588815
1785,-17.923758890852696
1786,-53.93602947861655
1787,-51.17661367954861
1788,-3.905477766196782
1789,60.43741380758729
1790,85.38209841569005
1791,31.138615268817375
1792,-46.58299457644898
1793,-60.41268820860205
1794,17.41957914786326
1795,99.55385414149532
1796,93.28018530291956
1797,22.238623053917763
1798,-1.7507802835734765
1799,97.70202952161162
1800,227.93710861887484
