800,209.08154112778175
801,203.3189833143515
802,187.3611397900786
803,163.86813780484954
804,137.09010485105136
805,111.28716866555078
806,90.31945723162607
807,76.61709878085094
808,72.29022179491585
809,79.35895500740298
810,96.15342740553024
811,116.43376823180733
812,133.63010698567632
813,142.1325734250786
814,143.5612975679851
815,142.94640969388638
816,145.32804034520086
817,152.666320328668
818,159.13138071667527
819,157.66335284854176
820,141.63236833176052
821,112.8285590431733
822,80.83205713012103
823,55.47299501153793
824,44.421505378984875
825,44.04772119766494
826,47.04177570735919
827,46.12380242335894
828,38.353935137294684
829,28.162307917980797
830,20.729055112165952
831,20.71431134526574
832,27.228211522047786
833,35.94089082724531
834,42.48248472618616
835,44.9131289652978
836,49.232959572649634
837,63.04211285837664
838,93.44072541511741
839,134.8489341183904
840,167.76687612690876
841,172.04468888287738
842,132.76251011223394
843,66.81047782485803
844,2.908730314731656
845,-30.362593839943656
846,-20.34335577667298
847,15.96658365138319
848,58.35736387539146
849,88.0091246108168
850,101.71200585732004
851,106.26614789865198
852,108.611691302478
853,112.92877692017282
854,114.67754588659227
855,107.62813961976826
856,85.88069982061279
857,51.83536847254436
858,16.392287841088546
859,-9.19839952654911
860,-15.756550801963385
861,-5.382022876065093
862,16.16532764038857
863,43.13564441618473
864,70.65907139905175
865,95.36575281498517
866,113.96583316755641
867,123.45945723719342
868,122.97677008038954
869,112.79791702891453
870,93.20304368898178
871,67.99229594035023
872,49.425819935438994
873,51.00376209837668
874,84.67626912401101
875,139.7834879769107
876,188.38556589031214
877,202.1126503650412
878,163.63488916839742
879,95.33243033300096
880,28.455422155628185
881,-6.585986804024287
882,-2.1316477245654823
883,24.98858847579868
884,56.72487113796524
885,77.75734986057432
886,86.97617449865538
887,87.90149516221027
888,84.07346221477565
889,80.33222627195755
890,83.42793819993676
891,100.24074911392745
892,135.97081037663338
893,183.1482735966456
894,228.69329062682664
895,259.50601356266634
896,268.81659474059416
897,262.1451867362812
898,246.41194236289084
899,228.45701466933133
900,214.24055693844093
901,209.20272268518784
902,218.74366565479613
903,243.1735398208839
904,269.86249938356195
905,284.2206987674799
906,272.94829261988343
907,240.8854358086228
908,206.28228342013972
909,187.65899075741618
910,196.31571333793
911,220.58260689153576
912,244.29982735837075
913,252.0775308866905
914,243.10587383071652
915,229.53501274842165
916,223.9851043993367
917,233.51630574227602
918,243.93877393309413
919,235.9326663223801
920,191.2981404531347
921,118.70535405844566
922,54.75446505910986
923,37.36563156124976
924,92.36901185388888
925,191.47476440655373
926,291.1130478667674
927,348.6840210576029
928,350.6178429751744
929,317.4346727861066
930,271.5846698249861
931,232.35799359180965
932,202.81480374936655
933,180.90526012066402
934,164.58952268625762
935,152.5277515816215
936,144.2801070944697
937,139.49674966205748
938,137.66783986846895
939,137.66353844188598
940,138.08400625182003
941,137.58940430636176
942,135.57989374936915
943,132.4856358576526
944,128.82679203815496
945,125.11352382509176
946,122.00599287708792
947,120.1543609742821
948,120.1787900154286
949,120.16944201496517
950,114.67647910008054
951,97.99006350774835
952,66.65035758174417
953,30.337523769665495
954,3.5217246199081274
955,0.4131227786474483
956,24.081880986786928
957,62.1581620768884
958,101.13212897012454
959,128.52394467314662
960,137.6737722750113
961,123.96177494402036
962,83.03811592460988
963,22.46295853418451
964,-34.48353384006077
965,-63.39119774431856
966,-46.12986966137032
967,2.0406139862006967
968,54.68041683277079
969,85.8497025664492
970,86.60863492580938
971,69.13737769661384
972,46.92609470854768
973,30.754949831907652
974,18.384106974290262
975,3.6137300772752496
976,-19.596016886909638
977,-52.034969918746356
978,-88.69296499477969
979,-124.19983807098288
980,-153.4854250861772
981,-172.46956196538122
982,-177.4120846232563
983,-164.8328289675028
984,-138.08163090231392
985,-107.24832633179722
986,-82.67275116343626
987,-71.85474131156661
988,-71.92413270082034
989,-77.69076126963591
990,-84.07446297375827
991,-88.00507378971088
992,-88.07242971833875
993,-82.92636678832787
994,-72.08672105973164
995,-57.66332862751551
996,-42.25602562511085
997,-28.354648227972575
998,-17.489032657147618
999,-10.499015182864241
1000,-8.184432128102344
1001,-10.565119872189825
1002,-15.710914854418661
1003,-21.451653577631077
1004,-25.58717261187121
1005,-26.53730859796815
1006,-26.77189825120695
1007,-30.420778364928992
1008,-41.57378581422017
1009,-60.13075755953105
1010,-80.03153065035258
1011,-94.78594222887114
1012,-98.87382953365159
1013,-92.2350299033078
1014,-76.65938078018735
1015,-54.04671971406242
1016,-29.626884365819933
1017,-12.599712511175312
1018,-12.38504204435958
1019,-34.36271098183897
1020,-66.88255746603681
1021,-93.81441976903989
1022,-99.77813629633238
1023,-85.3135455905176
1024,-65.68048633505532
1025,-56.698797357999865
1026,-68.05831763573588
1027,-90.11888629673194
1028,-109.42034262527159
1029,-113.34252606521659
1030,-99.89527622376045
1031,-74.62843287519354
1032,-43.201835964633574
1033,-11.845325611820954
1034,11.961257885128362
1035,20.578074045968606
1036,8.135282204524628
1037,-16.00695849505064
1038,-34.82848910206303
1039,-31.409150863048126
1040,-0.938785225554966
1041,41.932766158079176
1042,80.84566142696167
1043,102.39005850784451
1044,109.85611511135357
1045,112.24398872821257
1046,118.25383662544664
1047,127.78581584261156
1048,131.04008318800152
1049,117.75679523487452
1050,83.42610831766797
1051,43.948178528200515
1052,19.713161711917564
1053,29.121213464088214
1054,62.81248912602496
1055,91.32714378131459
1056,84.80533225202998
1057,33.067209094953796
1058,-30.997071402196525
1059,-68.78735522455099
1060,-48.053488633850066
1061,15.634681827776149
1062,84.92730933403254
1063,122.9545467707103
1064,118.08654673189449
1065,92.64346151621794
1066,71.37544312309728
1067,72.12264324897296
1068,83.53521328355055
1069,86.61330430604903
1070,63.84706708146041
1071,22.45665205678597
1072,-10.337790642686741
1073,-6.8061112171435525
1074,41.96183980403839
1075,100.93621155853907
1076,128.80715284739563
1077,91.70481213124549
1078,12.56933752662917
1079,-59.489123197728986
1080,-76.2104226246338
1081,-28.75441369213695
1082,40.52905030278998
1083,85.84011570053008
1084,74.75892847514115
1085,26.11563423068219
1086,-28.959621802488982
1087,-61.056694771379625
1088,-63.63544020402878
1089,-46.325714013180914
1090,-19.12737249993188
1091,10.099727642615107
1092,37.52572932569274
1093,59.81077506125439
1094,74.01500695831601
1095,79.58856671935064
1096,76.85159563665366
1097,66.11423458873833
1098,47.40662403672832
1099,20.43890402076977
1100,-15.038785843580627
1101,-55.93630636892158
1102,-90.17351879959097
1103,-104.18028481523288
1104,-87.2964665343552
1105,-52.49192651788144
1106,-24.166527772702466
1107,-26.230133755210773
1108,-62.852608374816555
1109,-113.30381599748398
1110,-155.24362144922816
1111,-172.2218900196258
1112,-167.66848746531286
1113,-149.24328001345202
1114,-124.72613436521533
1115,-102.98691769926882
1116,-93.55549767519369
1117,-105.79174243696434
1118,-139.83552061636874
1119,-182.18670133644082
1120,-218.21515421488948
1121,-236.7307493674798
1122,-240.0733574114547
1123,-233.9028494689228
1124,-223.50909717021023
1125,-209.51197265725932
1126,-189.50134858696765
1127,-161.09709813453264
1128,-128.2590949967871
1129,-104.96721339553915
1130,-106.13132808086084
1131,-140.72131433439426
1132,-193.00704797266553
1133,-240.84840535032708
1134,-263.67526336346236
1135,-260.4974994528002
1136,-243.34499160700034
1137,-224.3576183658588
1138,-207.64525882352973
1139,-184.67779263174634
1140,-145.79510000300616
1141,-88.48706171374761
1142,-38.62355910754377
1143,-29.164474098235587
1144,-88.61968917309059
1145,-196.15908739593215
1146,-300.2625524102623
1147,-349.61996844236273
1148,-327.2212203043964
1149,-265.2461933974737
1150,-199.72477371473724
1151,-158.5268478444068
1152,-141.37230297280803
1153,-141.87102688742743
1154,-153.6929079798847
1155,-171.3678352489751
1156,-189.82569830361717
1157,-204.00638736584915
1158,-209.69979327376313
1159,-203.67580748446926
1160,-182.76432207700236
1161,-147.00522975524655
1162,-105.29842385083975
1163,-68.0537983260383
1164,-44.941247776596356
1165,-40.62066743462492
1166,-57.671953171417044
1167,-98.18500150029104
1168,-154.49970957936966
1169,-209.965975214398
1170,-247.64369686151804
1171,-257.512773630011
1172,-243.49310528506976
1173,-211.1745922505106
1174,-166.73713561149088
1175,-119.16063711720926
1176,-78.21499918360678
1177,-53.05012489598994
1178,-45.09591801172064
1179,-50.79228296283145
1180,-66.45912485865301
1181,-87.52634948839659
1182,-108.21386332376096
1183,-122.67157352148206
1184,-126.19938792588982
1185,-117.6372150714451
1186,-96.48496418525065
1187,-63.34254518956186
1188,-26.479868704242108
1189,2.6031539507439447
1190,13.156610752890629
1191,7.530588974726925
1192,-0.47482481859515246
1193,3.2004552282996883
1194,22.376514258632596
1195,42.82343670111004
1196,48.441306267592154
1197,28.190205950757445
1198,-9.959781978188403
1199,-53.618575971820974
1200,-90.45609520874314
1201,-109.12225959584794
1202,-98.736989770543
1203,-49.47020710297693
1204,24.738166301784076
1205,86.25820760156057
1206,96.58999321492047
1207,42.59359881903765
1208,-39.24090065244309
1209,-106.61343101148668
1210,-128.07391881776311
1211,-116.07229138069488
1212,-94.17847676152269
1213,-83.15240377529517
1214,-79.13400199290481
1215,-65.48320174305991
1216,-26.46993411424046
1217,31.37586904334603
1218,79.42427511583628
1219,88.32535072382052
1220,49.64916172044286
1221,-5.924226810457185
1222,-43.36475055619485
1223,-38.302345977055666
1224,-5.606950308110754
1225,30.80149843900108
1226,49.30306147431838
1227,45.93779922779686
1228,24.815771347595728
1229,-9.492963301623604
1230,-44.84834664038135
1231,-62.68032137603586
1232,-44.5088310044448
1233,11.296180188452126
1234,80.4847671249936
1235,136.56698393425359
1236,161.53288395046366
1237,161.61251971148704
1238,147.35594295730698
1239,129.13320462851516
1240,116.51435486487571
1241,118.75944300383708
1242,143.53851757913617
1243,180.6216263193637
1244,208.56881614660415
1245,206.4801331750532
1246,174.51562270969225
1247,135.92532924495026
1248,115.02929646342272
1249,121.80756723460036
1250,138.69018361359122
1251,145.0071868399009
1252,127.28861733624217
1253,97.0945147073162
1254,71.35491773867034
1255,64.6898643955501
1256,76.65939182176953
1257,100.86353633863109
1258,130.75233344383923
1259,157.4058178104442
1260,170.39402328582582
1261,159.65698289067768
1262,128.57472881802641
1263,95.79729243226757
1264,80.71470426822452
1265,92.11699403024613
1266,118.67419059129861
1267,146.78632199210733
1268,164.97341544029587
1269,168.62549730959472
1270,154.55259313900206
1271,122.07472763203441
1272,84.9019246559601
1273,61.854207241081895
1274,69.6515975800121
1275,103.73411702701742
1276,146.96178609732306
1277,182.42462446651916
1278,200.8726509699154
1279,200.35588360196016
1280,179.29433951569627
1281,141.50803502219424
1282,98.9269855900493
1283,64.10120584488686
1284,44.9607095688898
1285,38.195509700357434
1286,38.845618333290986
1287,43.42104671697962
1288,54.201805255643194
1289,74.877903508077
1290,106.99935018733777
1291,138.31615316042553
1292,151.01831944802143
1293,129.82585522423688
1294,88.04876581638018
1295,56.85705570476421
1296,66.39072852251775
1297,118.55978705543748
1298,188.4642332418607
1299,250.23406817256
1300,286.3292920906679
1301,291.04990439160974
1302,259.65590362309376
1303,197.20728748508736
1304,129.95405282985303
1305,86.93619566197412
1306,87.44371113845045
1307,118.52659356876393
1308,160.58483641502607
1309,195.77843229209793
1310,215.43737296777908
1311,213.85164936299043
1312,187.20125155200185
1313,147.00616876267122
1314,112.17638937671836
1315,100.32190093002282
1316,111.77269011293902
1317,134.7487427706419
1318,157.5300439035109
1319,175.09657766751297
1320,189.04832737462675
1321,201.31527549329985
1322,215.2574036489168
1323,236.21469262428582
1324,269.6271223601834
1325,312.42467195589415
1326,344.6673196697848
1327,344.37504291990626
1328,303.22781828462394
1329,251.59562150326383
1330,226.70842747680035
1331,254.7562102685497
1332,316.90894310489784
1333,382.8765983760768
1334,426.11914763691493
1335,442.3465616076719
1336,435.30881017484535
1337,410.0158623920597
1338,381.89768648092286
1339,371.62424983194796
1340,397.3255190055006
1341,444.99145973273517
1342,478.7020369166148
1343,464.2772146328989
1344,409.066956131197
1345,358.06122383603724
1346,356.29997934794665
1347,405.0731834445887
1348,453.5207960818825
1349,448.3827763952031
1350,381.62908270055595
1351,315.8596724958061
1352,319.59450246193956
1353,416.84352846431466
1354,540.596705553995
1355,612.7039879690437
1356,585.625329135908
1357,494.03068167078163
1358,386.21999738101476
1359,301.9532272665565
1360,250.74032152139807
1361,235.44122953507213
1362,254.70589989416658
1363,287.78428038384845
1364,308.2963179894341
1365,296.60195889799616
1366,273.2311484999609
1367,273.59383139076454
1368,325.6099513725112
1369,398.64945145568163
1370,434.6322738608578
1371,383.07836002046315
1372,271.9976505805407
1373,175.12008540255738
1374,161.1656035652377
1375,223.39414336641312
1376,301.20564232490506
1377,335.72003718243286
1378,320.81726390555013
1379,295.9472576876087
1380,300.74995295073677
1381,341.5052833478676
1382,389.8331817647668
1383,416.33358032210526
1384,412.0064103775603
1385,393.0916025279166
1386,377.12908661123583
1387,370.1487917090126
1388,361.37064614838346
1389,338.7845775043497
1390,301.0305126020303
1391,265.08837751894134
1392,249.57809758730946
1393,259.1495973963829
1394,270.31280079481803
1395,256.32763089304353
1396,208.78401006567947
1397,162.04185995398075
1398,156.49110146828934
1399,211.0616547905429
1400,286.97343937677397
1401,335.8663739596632
1402,326.89037655111315
1403,283.30536444483914
1404,238.81125421900288
1405,217.7279617388449
1406,211.40540215936744
1407,203.9434899280568
1408,184.7621387875879
1409,164.47126177858445
1410,158.8907712424134
1411,178.5205788239764
1412,209.88059547456214
1413,232.8607314546971
1414,232.57089633703617
1415,220.12099900926296
1416,214.6409476770623
1417,229.7806498670525
1418,249.34001242980048
1419,247.01894154283036
1420,203.57734271367008
1421,141.6251207829264
1422,99.1321799273901
1423,107.41842366313722
1424,155.09375484869997
1425,213.9380756882456
1426,258.40128773475226
1427,281.8132918932806
1428,285.363988424182
1429,271.97327694642445
1430,256.72105644085786
1431,260.0572252535894
1432,297.7216810992977
1433,349.11432106467146
1434,376.86504161176526
1435,349.25373858148123
1436,280.6503071970146
1437,207.45464206734323
1438,163.2466371907376
1439,157.13618595831758
1440,186.22318115761664
1441,245.4175149761577
1442,311.8990790050975
1443,354.02776424285366
1444,345.2734610987827
1445,303.12605939687273
1446,267.1854483794723
1447,272.3315167110359
1448,311.7441524818896
1449,357.64324321204367
1450,384.4786758550108
1451,386.40033680165834
1452,367.4381118840829
1453,332.74188637951556
1454,296.24154501424164
1455,276.1569719675663
1456,287.3280508757798
1457,317.2646648361788
1458,340.50669641107015
1459,335.23402763185186
1460,308.24654000306873
1461,279.4941145065495
1462,265.5266316054949
1463,257.8839712486788
1464,237.04601287458718
1465,188.74263541566143
1466,134.57371730250088
1467,111.12913646814195
1468,145.8887703523178
1469,208.05249590578933
1470,244.00018959464796
1471,210.6717274047005
1472,127.73698484583292
1473,37.6758369564177
1474,-21.311841692238886
1475,-34.50617699146278
1476,4.892704709280224
1477,95.08467660689348
1478,191.91961144916604
1479,238.287381539345
1480,195.88785874070163
1481,109.71091448114203
1482,47.78641975782557
1483,57.44424514183811
1484,104.0142607828493
1485,132.56633641382177
1486,106.39034135574366
1487,52.57614452236885
1488,12.173614424989864
1489,13.122619177256638
1490,43.10302649996993
1491,82.04470372595824
1492,114.19751780492697
1493,135.41133530836305
1494,143.47602243445544
1495,136.56144501303606
1496,113.85746851053773
1497,74.70395803500651
1498,25.110778341093464
1499,-15.53220616489125
1500,-26.435131419922982
1501,-3.0081336991770513
1502,31.268650389083632
1503,50.47508390863368
1504,45.481029600459806
1505,31.936349887906545
1506,27.1509068819214
1507,35.634562386250764
1508,45.93717790269693
1509,46.0086146363974
1510,35.25873350110851
1511,25.12739512454209
1512,27.124459853686858
1513,42.46978776019387
1514,63.33323864574231
1515,81.88467204747212
1516,94.60394724341131
1517,101.16092325790487
1518,101.07545886714433
1519,91.4774126046268
1520,68.04664276670155
1521,28.193007418101843
1522,-16.38363560246944
1523,-47.00342867676409
1524,-48.676514401369786
1525,-30.15303558206142
1526,-9.42313522816221
1527,-2.69695654685529
1528,-17.31464293748104
1529,-57.87633798580828
1530,-120.44218545829608
1531,-168.58232929631777
1532,-158.21691361038393
1533,-72.23608267431337
1534,28.190019080586353
1535,67.86124707138879
1536,13.677456569403148
1537,-73.58149729390607
1538,-120.84575952101477
1539,-94.22547524238689
1540,-27.120789710519603
1541,40.77815170604299
1542,83.93120352870392
1543,95.55822017486207
1544,70.75905596393932
1545,18.093565123437656
1546,-40.218398204930054
1547,-82.21697995918475
1548,-99.89232615090987
1549,-96.03458285911984
1550,-74.30389622408984
1551,-44.33041244116066
1552,-19.234277754523646
1553,-10.765638450997358
1554,-20.71464085376465
1555,-46.61143131611061
1556,-83.59615621512603
1557,-115.20896194539455
1558,-121.38999491265349
1559,-92.82940152746232
1560,-57.88732819879988
1561,-53.15392132770103
1562,-96.7593273008315
1563,-161.1836924840536
1564,-212.10716321599102
1565,-231.9698858015381
1566,-232.70200650538936
1567,-229.06367154551845
1568,-227.63502708666056
1569,-224.59621923375562
1570,-215.84739402539708
1571,-204.13869742723
1572,-198.40027532535896
1573,-206.15227351973044
1574,-215.30483771746913
1575,-201.2881135262578
1576,-145.7322464476165
1577,-78.06738187023984
1578,-48.92366506326289
1579,-93.27124116954474
1580,-169.91025519889627
1581,-214.74085202133756
1582,-187.63317636029024
1583,-124.32737278578134
1584,-75.4835857076232
1585,-69.56195936857148
1586,-88.24263783746028
1587,-107.49576500234252
1588,-112.63148456358977
1589,-102.34994002697204
1590,-76.92127469675324
1591,-49.56563166872911
1592,-45.923153823268876
1593,-88.5439838183429
1594,-157.33826408252753
1595,-204.65613680799106
1596,-191.01774394346103
1597,-137.5032271871878
1598,-90.85272797988364
1599,-86.05638749762875
1600,-107.10434664480454
1601,-124.2867460469588
1602,-120.0637260436888
1603,-109.52542668151182
1604,-112.98198770667841
1605,-136.91354855802456
1606,-164.27024835977318
1607,-175.95222591432866
1608,-159.8696196950532
1609,-111.55256783903496
1610,-29.4212081398382
1611,55.67432195976471
1612,90.02388537507977
1613,31.407345386778616
1614,-74.61543435178464
1615,-143.664589807242
1616,-114.3602565588917
1617,-24.482569791311107
1618,61.82833571298397
1619,98.6023255809414
1620,85.96926585636174
1621,31.439023007313153
1622,-43.29853606644065
1623,-94.88354402599543
1624,-80.22613308586733
1625,-3.106435006509855
1626,88.1154189131612
1627,146.8792978432666
1628,163.5450714304643
1629,149.94260980548097
1630,118.7017835906372
1631,85.17246390740002
1632,65.65452238394573
1633,68.16783116273291
1634,74.98226290808634
1635,63.51769081378916
1636,27.533988610715824
1637,-9.958969425573741
1638,-23.56130846716769
1639,-5.713153126183897
1640,32.13537255291703
1641,77.26414510098402
1642,113.12304163187218
1643,120.7219398501311
1644,87.41071805871616
1645,37.139255166697694
1646,7.007430697007294
1647,17.865124794161602
1648,39.87221823203254
1649,33.648592421594
1650,-11.955870581297859
1651,-59.291288068119684
1652,-67.4077766698847
1653,-31.725452349337502
1654,16.33556960686292
1655,46.63517459596369
1656,56.62324870696284
1657,59.23967872845242
1658,64.61435215646816
1659,68.35715720237386
1660,61.65798280071249
1661,44.716718617115475
1662,40.703255056176204
1663,75.71748326936722
1664,145.9492951629527
1665,206.3085834059093
1666,211.59524143784256
1667,161.34916347695435
1668,89.31024452796191
1669,27.888380390078964
1670,-5.836532335029915
1671,-1.0745962352848437
1672,40.87408691980636
1673,78.43941618712961
1674,62.1212914579628
1675,-16.010386534018835
1676,-92.29571620473143
1677,-99.21479511166581
1678,-35.28771994584713
1679,39.95541347618382
1680,71.30451022041598
1681,57.999476243427125
1682,25.820218400423983
1683,-3.5733555466904363
1684,-25.211336921240218
1685,-38.22381612371464
1686,-44.440882623684956
1687,-50.952624951711186
1688,-65.0091306912509
1689,-83.69048647056297
1690,-94.03677795460862
1691,-85.2380898369247
1692,-68.95450583153252
1693,-68.26610866479314
1694,-99.05298006729572
1695,-148.48520076572822
1696,-196.70285047473226
1697,-228.68600788876756
1698,-238.50475067397383
1699,-221.73915546000717
1700,-184.9092978319004
1701,-144.83525232190186
1702,-116.79709240130614
1703,-100.23489047229486
1704,-87.1487178597763
1705,-72.04864480319338
1706,-58.54474044836206
1707,-52.15707283928714
1708,-55.695708909985115
1709,-67.44071447628266
1710,-85.2821542276597
1711,-107.27009171901773
1712,-131.6045893625178
1713,-155.47570841937704
1714,-169.92350899166377
1715,-163.60805001410336
1716,-135.1193892458723
1717,-110.21758326239797
1718,-118.50268744715504
1719,-159.55475598345402
1720,-194.47384184622933
1721,-185.61999679384462
1722,-137.34327135986496
1723,-79.71371484485644
1724,-39.24137530817461
1725,-24.706299559742547
1726,-39.98853315185079
1727,-79.38812037093521
1728,-118.7751042293603
1729,-133.08952645722275
1730,-120.09142749412058
1731,-98.01084648094547
1732,-83.437821251684
1733,-77.26238832517811
1734,-73.89458289694812
1735,-68.96443883095708
1736,-61.50198865141829
1737,-51.24726353457845
1738,-43.10029330051657
1739,-48.25110640494313
1740,-75.52972993098774
1741,-107.26618958101608
1742,-111.03050966841147
1743,-68.79271310939839
1744,-17.15282141483658
1745,-4.950854682036152
1746,-44.58683158656822
1747,-91.01076937408106
1748,-97.4326838521174
1749,-62.142589381937796
1750,-15.090498870345982
1751,16.933576238492606
1752,25.719625971190908
1753,8.597641833341186
1754,-27.78238318235526
1755,-58.96045458791923
1756,-60.25657639194287
1757,-38.530751091459024
1758,-26.86297966377424
1759,-51.513261558353406
1760,-95.54159468867874
1761,-126.98797542412831
1762,-122.21239858185072
1763,-75.9348574186588
1764,12.97465637708774
1765,110.51615269357899
1766,150.2696430036558
1767,81.29514037290392
1768,-42.977340532277594
1769,-129.26778343658043
1770,-124.27617044773433
1771,-68.50248204842501
1772,-14.466697088251749
1773,15.671207224322643
1774,29.031255330017302
1775,33.553473326766834
1776,34.69788897773833
1777,36.91453171936155
1778,43.10343266932796
1779,52.38462463459473
1780,63.60814211937759
1781,81.12402133313299
1782,114.47230019852577
1783,167.71301835941267
1784,210.57621718877817
1785,199.99193979668416
1786,125.12023103822139
1787,45.94113752141857
1788,28.08470761515855
1789,67.11099145709522
1790,97.40004096154917
1791,67.64190982738546
1792,15.266653545882946
1793,7.124329408617996
1794,65.55499651528407
1795,126.75871578157057
1796,122.03554994695332
1797,55.74556358255177
1798,-12.321176901110448
1799,-33.13460324626794
1800,-12.294645340169154
