800,138.12436854609405
801,129.47568141091415
802,145.06691712457814
803,176.3772156227751
804,202.03771662143936
805,200.5135596195123
806,159.35988390167313
807,97.57382854103435
808,40.92853240182376
809,14.65913414201168
810,25.284772215924022
811,55.88058487683793
812,88.05371017951711
813,105.58428598275077
814,109.23344995183288
815,107.74133956105015
816,109.88209209609886
817,120.62184465650444
818,135.29073415800121
819,147.71389733488195
820,151.94747074232873
821,146.57859075869692
822,134.38039358780043
823,118.27601526112994
824,101.94059164008831
825,93.01725841816005
826,100.42915112306764
827,132.95140511891623
828,187.03415560827852
829,237.9365376342812
830,258.8396860826497
831,226.20073568372482
832,152.55182101446553
833,72.75807650041043
834,22.00663641762094
835,23.18463489459191
836,59.575205914145954
837,106.50048331528615
838,139.81260079504227
839,149.36569191026592
840,140.28489007943062
841,118.46232858437088
842,89.37814057202831
843,55.99645905615125
844,20.35341691897065
845,-15.494853087137017
846,-46.75521833802304
847,-63.541546336165084
848,-55.41370470908623
849,-13.437561207801082
850,54.14101629471588
851,128.11715980502504
852,189.12100121071944
853,222.45567228185246
854,228.1813046724028
855,209.26302992164983
856,168.84497945556814
857,114.46528458819193
858,58.14907652293641
859,12.124486353912289
860,-13.24735493278422
861,-17.474316457816713
862,-3.315267447360384
863,26.397922768099306
864,64.44638475497322
865,96.68024897772557
866,108.32964580002499
867,87.34670548586473
868,45.4055582006622
869,6.455334012332969
870,-5.487837107649284
871,21.76917471676643
872,72.04949926723111
873,125.00626623196786
874,161.31760520674743
875,176.76464569581185
876,178.65051711281922
877,174.57234878171676
878,170.28926993763253
879,164.96240972771375
880,156.2698972119715
881,141.98486136408428
882,122.43143107218384
883,100.67173513963371
884,79.90190228576012
885,63.02806114658597
886,51.44434027553052
887,46.047868144095446
888,47.77777314251671
889,59.58218358042177
890,87.36222768743573
891,137.25403361378176
892,212.43172943086938
893,294.14844313184585
894,353.8353026321347
895,363.043435769956
896,313.6689703068241
897,237.22003392802344
898,169.75475424306842
899,144.18525878614946
900,161.01367501653658
901,201.72913031899134
902,247.5837520041414
903,284.35766730884006
904,309.21800339651145
905,321.0808873574715
906,319.11844620923057
907,306.0368068967746
908,287.1430962928371
909,267.80444119813546
910,252.54796834161243
911,243.23180438063537
912,241.19507590118883
913,247.57390941804897
914,259.791431374937
915,271.9617681446616
916,278.0880460292201
917,273.60639125991656
918,259.51192999744126
919,238.12478833192108
920,211.90809228298804
921,186.8939677997878
922,172.81654076100858
923,179.57793697486431
924,213.08728217908174
925,261.27970204084704
926,307.0323221567651
927,333.52226805277405
928,333.2086651840573
929,309.4316389349451
930,266.1553146187698
931,209.0608174777526
932,152.5262726828223
933,113.68780533345307
934,109.27454045747982
935,140.4476030108799
936,188.41011787755633
937,233.0582098691084
938,256.95700372456304
939,257.4566241101111
940,236.98319561883181
941,198.11884277037825
942,149.70869001066785
943,109.08786171154497
944,94.19848217044637
945,117.9126756100195
946,163.63356617776662
947,204.1722779456395
948,212.77293490962984
949,183.25166098935733
950,138.05458002762498
951,101.73781578996932
952,94.26049196419808
953,108.59873215989865
954,127.93365990796883
955,135.66439866007022
956,125.57007178814092
957,105.77780258382882
958,85.46071425796617
959,72.7259299399866
960,69.59857267735242
961,75.94476543496057
962,91.53263109453292
963,111.95129245401586
964,127.25787222691724
965,127.12449304168331
966,104.11527744102023
967,66.3293478812484
968,27.032826731585374
969,-0.7381637265298195
970,-12.310501300158649
971,-13.388063885588053
972,-10.314729469064332
973,-8.7343761275406
974,-10.866882029438784
975,-17.894125435430396
976,-30.973984699227003
977,-50.649338268360225
978,-76.76606468501086
979,-109.12704258682243
980,-145.11915070773648
981,-171.82926787884935
982,-173.60427302926473
983,-135.8020451869579
984,-66.46946347965604
985,3.99659286424685
986,44.252244514815175
987,33.60361203962202
988,-10.252184097138525
989,-60.98302353561485
990,-93.4827860212572
991,-103.97635140574857
992,-106.58659964799517
993,-115.98541081509939
994,-139.66866508336534
995,-163.89124273928792
996,-171.0100241805667
997,-145.2558899171454
998,-95.08872057222652
999,-45.780396883334106
1000,-22.902799703346318
1001,-39.12381000158712
1002,-76.62730886487225
1003,-113.19117749862562
1004,-126.58329722793678
1005,-99.61054949869867
1006,-49.07081587870198
1007,-5.7549780587596615
1008,-0.06391785385130788
1009,-39.716517204245974
1010,-99.90165817667366
1011,-153.2712229654644
1012,-176.6340938937392
1013,-169.43815341457776
1014,-138.79328411219285
1015,-91.93536870315256
1016,-40.057290037573694
1017,1.0170688996840909
1018,15.181824987761502
1019,-7.275905031407092
1020,-49.052004554338055
1021,-85.7073571172441
1022,-93.9048463973013
1023,-72.7783562138884
1024,-42.27677052988474
1025,-23.151973452931998
1026,-28.04584923672519
1027,-44.06828228232007
1028,-53.305157139413495
1029,-39.33935850767557
1030,-5.492771238046771
1031,31.082719665915647
1032,52.96622904671494
1033,51.40487159158147
1034,37.35576183111698
1035,24.49801413793284
1036,25.129742725313918
1037,39.71206164582145
1038,62.70308478993684
1039,88.52592588467269
1040,112.65069849218526
1041,132.23951600837609
1042,144.5874916615012
1043,147.31273851075275
1044,139.81136944484206
1045,122.09049718058668
1046,94.32323426147741
1047,61.349693056265096
1048,33.09398575748128
1049,19.770224380030413
1050,27.45752075972632
1051,47.71998655182688
1052,68.89573322958677
1053,79.99887208277505
1054,79.15551421621967
1055,71.12577054830217
1056,60.80575180950473
1057,51.14456854089076
1058,40.792331092632594
1059,27.84414962250048
1060,10.995134094353489
1061,-6.438605723347791
1062,-19.055960259096537
1063,-21.517820139806645
1064,-12.004076192395587
1065,6.580380554742078
1066,30.98865887015745
1067,57.56886731783197
1068,80.92711425564266
1069,95.20750783377844
1070,95.106155993235
1071,84.2311664642275
1072,73.39464676464922
1073,73.60370419848732
1074,89.3364458542801
1075,109.85697860353139
1076,122.25140909913716
1077,115.79284377381555
1078,96.4583888385132
1079,77.92515028082016
1080,73.64723386339028
1081,86.71874512234535
1082,106.79278936567061
1083,122.61547167162644
1084,125.62689688714272
1085,117.60916962620468
1086,102.82839426826831
1087,85.22367495661638
1088,64.5641155967678
1089,37.65681985486299
1090,1.2928911560229608
1091,-40.89056731724668
1092,-72.08945262671295
1093,-73.97366207999949
1094,-34.188093232256506
1095,25.01035611223415
1096,68.90678789840422
1097,64.21530381878802
1098,10.746005311861154
1099,-59.10100643959413
1100,-111.52763051011243
1101,-125.6597662332224
1102,-115.05231320305938
1103,-98.93317127603586
1104,-94.67624057248213
1105,-104.5434214782963
1106,-123.49761464658877
1107,-146.3797209993627
1108,-165.33064172912964
1109,-169.101278300599
1110,-146.21653245231755
1111,-92.84330619833781
1112,-31.081501829861736
1113,11.450978083077644
1114,9.944230689980031
1115,-31.425647141817535
1116,-91.44155882876657
1117,-148.84740807279377
1118,-192.4130988629604
1119,-225.7375354771193
1120,-253.6196224835967
1121,-279.1962647428354
1122,-299.085367409074
1123,-308.2888359320077
1124,-302.28757605846477
1125,-282.2314938340551
1126,-252.97049560485357
1127,-219.45348801904402
1128,-188.84937802861168
1129,-171.83807289098877
1130,-179.42348017072982
1131,-217.3045077411698
1132,-269.1060637860901
1133,-312.70405680139265
1134,-327.7083955967464
1135,-314.880989297264
1136,-289.0527473451566
1137,-265.2095795013938
1138,-251.14439584737556
1139,-243.29510678657243
1140,-237.08762304620723
1141,-229.31885567889003
1142,-222.18971606428386
1143,-219.25411591077318
1144,-223.6449672570925
1145,-233.84318247399824
1146,-245.44667426590968
1147,-254.07735567256168
1148,-259.22114007065466
1149,-265.87894117549877
1150,-279.499673042661
1151,-301.2922500695986
1152,-317.82558699732
1153,-312.496598912001
1154,-272.01620124663714
1155,-213.17730978267355
1156,-168.79984065163808
1157,-170.9267103367838
1158,-220.44683567469292
1159,-280.89513385692226
1160,-313.6015224316234
1161,-296.65991930516793
1162,-254.24224274375592
1163,-218.37641137504215
1164,-215.40534418974312
1165,-232.9889605432545
1166,-242.7101801572553
1167,-217.63892312131975
1168,-161.94710989450323
1169,-108.53666130696911
1170,-91.24949856155399
1171,-121.65054323539334
1172,-166.51371728148115
1173,-187.22594303028382
1174,-156.47414319129894
1175,-99.81824085465996
1176,-58.261159492698425
1177,-68.8328229615181
1178,-121.21115550256945
1179,-174.16208174421445
1180,-186.6385267032856
1181,-150.8284157866583
1182,-104.44967479278239
1183,-88.5252299132535
1184,-125.64100773434984
1185,-183.70893523858285
1186,-220.5479398062289
1187,-201.83794921686967
1188,-146.99889165091554
1189,-97.8586956911422
1190,-94.16429032420638
1191,-135.95660494215917
1192,-188.776569343976
1193,-217.22411373704563
1194,-206.42016873868124
1195,-177.65866537762304
1196,-155.93653509553587
1197,-158.635709748487
1198,-174.4381216084421
1199,-185.2807033647441
1200,-175.4373881255815
1201,-149.09610941946266
1202,-120.43980119668595
1203,-103.42339783079115
1204,-104.46283412001867
1205,-122.51804528876346
1206,-156.15896698899996
1207,-197.85253530175032
1208,-228.06768673849183
1209,-225.86635824259793
1210,-179.20848719075548
1211,-112.01701139438592
1212,-57.39086910104561
1213,-44.42999899584902
1214,-67.5043402028441
1215,-103.00383228642568
1216,-127.87841525271506
1217,-135.88802955093524
1218,-137.3426160748022
1219,-143.23211616386834
1220,-155.66647160491993
1221,-160.21562463329792
1222,-140.6395179342726
1223,-89.06809464438265
1224,-28.431298352761587
1225,11.180926897515747
1226,4.638636608120578
1227,-35.56811417585777
1228,-79.78927086720432
1229,-99.69477933791677
1230,-91.60458592046598
1231,-72.76863740910449
1232,-60.906881061158856
1233,-61.109264598286245
1234,-59.08573620776406
1235,-38.89624454373734
1236,6.899261271511932
1237,61.42083164633186
1238,103.43851651844307
1239,116.23236535372052
1240,107.80242714495034
1241,94.69875041062187
1242,92.23138319370992
1243,102.12037306048114
1244,117.5557670992821
1245,131.59761191936377
1246,138.53595364969078
1247,133.99083793776845
1248,113.6923099484884
1249,80.37041436295112
1250,50.22519537733751
1251,40.946696701748806
1252,63.70496155908586
1253,106.92003268391636
1254,154.13195232135513
1255,189.94076222596414
1256,205.88650366063302
1257,196.23921739551588
1258,156.97894370691938
1259,105.29572237623142
1260,72.8895926888672
1261,90.64059343319605
1262,157.4387628994973
1263,235.79413887892042
1264,286.3567586624431
1265,289.736659039856
1266,264.4138762987368
1267,233.07844622346238
1268,212.37040409418478
1269,198.9897846858603
1270,185.59662226726687
1271,166.52095060003376
1272,145.64280293766933
1273,130.18221202462155
1274,126.67921009532984
1275,134.1438288732861
1276,147.176099570117
1277,160.31605288466926
1278,167.75371900209393
1279,163.38912759296363
1280,141.2023078123657
1281,102.67328829905637
1282,60.422097174558075
1283,27.97876204232307
1284,13.97330998687903
1285,15.205767572995683
1286,26.796160844842234
1287,43.664515325184766
1288,60.21085601457344
1289,70.64520739053114
1290,71.05759340678378
1291,69.55803749246661
1292,79.04656255136615
1293,110.81319096115112
1294,157.6679445726386
1295,200.87084470903756
1296,222.46191216524312
1297,224.97116720710437
1298,230.44862957071746
1299,261.26431846174273
1300,316.12825255469943
1301,360.01044999231453
1302,355.4009283848354
1303,289.32970480939366
1304,201.8867958093506
1305,140.07221739367378
1306,136.44598503630914
1307,175.61811367557493
1308,232.28861771355878
1309,282.77751101553804
1310,311.77480690938864
1311,306.6705181850248
1312,258.73465709385346
1313,190.41723534821358
1314,139.11826412085975
1315,139.16775404442342
1316,183.5857152109238
1317,236.52215717124636
1318,262.8170889346711
1319,256.79051896839155
1320,242.1124551970497
1321,243.30290500228693
1322,265.0218752222954
1323,283.93937215139704
1324,274.75540153962174
1325,229.9599685922949
1326,177.45307796965608
1327,149.35473378646748
1328,164.82493961164437
1329,206.29369846789086
1330,249.7210128313709
1331,275.5968846313499
1332,283.051315249897
1333,275.92430552154656
1334,258.22585573302604
1335,234.7359656229455
1336,210.474634381555
1337,191.0718606504397
1338,186.61764252231296
1339,209.4719775407466
1340,269.7548626999742
1341,348.9162944446507
1342,408.9062686696725
1343,413.464780719989
1344,368.36182539040965
1345,317.44739692546864
1346,304.711489019257
1347,334.39409481528673
1348,363.2252069063761
1349,345.7548173345331
1350,275.22291759085783
1351,205.30949861545196
1352,194.78455079735795
1353,265.5480639744892
1354,364.1800274335874
1355,428.0204299101897
1356,418.5192595886019
1357,361.906504101913
1358,295.1621505319599
1359,248.42618540939293
1360,227.76859471368152
1361,233.93936387315625
1362,265.1184777650906
1363,307.6959207157506
1364,344.6316765004958
1365,361.59572834386563
1366,360.37805891970675
1367,348.73865035129165
1368,333.577484211457
1369,315.2745415227546
1370,291.06980275763453
1371,259.08324783860553
1372,225.9548561384472
1373,203.31460648040775
1374,201.57247713842844
1375,213.83844583737846
1376,220.87248975331386
1377,204.64458551373173
1378,173.70470919784566
1379,159.60283633689505
1380,193.14894191443636
1381,267.3830003666608
1382,336.1549855827416
1383,352.6348709051763
1384,309.69262913014427
1385,249.2682325078913
1386,215.78165274311505
1387,225.64286099538003
1388,254.25182787953054
1389,273.9585234661172
1390,270.31291728186443
1391,251.5449783101194
1392,228.1346749913355
1393,208.43197522355877
1394,196.63684636294965
1395,196.37925522428304
1396,207.75916808150032
1397,222.496550668262
1398,231.1513681785018
1399,228.63358526700722
1400,221.55316605003463
1401,218.46007410589118
1402,225.68427247557884
1403,242.64572366343054
1404,267.4543896377618
1405,294.42023183154197
1406,304.41321114308266
1407,275.3932879367276
1408,198.8604220435791
1409,120.21457276222645
1410,98.26569885948084
1411,172.24375857114683
1412,294.0987096027966
1413,391.5305091305545
1414,408.27911380190926
1415,367.6144797365396
1416,317.336562527129
1417,295.99531724025474
1418,291.7906984172223
1419,275.93266007497004
1420,227.12115570694914
1421,168.58613828405396
1422,139.90756025555493
1423,172.90537355001834
1424,249.6795295762986
1425,332.66997922449445
1426,388.82667286694596
1427,416.38956035925366
1428,426.6885910412857
1429,431.17371373822243
1430,441.7348767616295
1431,470.4220279104957
1432,525.5351144723518
1433,586.654083224359
1434,620.0388804344275
1435,598.0294518623577
1436,541.6757427609846
1437,495.4076978773537
1438,497.5752614538942
1439,535.4883772296253
1440,571.4569884413722
1441,572.1710378249918
1442,542.6004676166322
1443,506.8052195539767
1444,486.91523487754785
1445,487.27045433198873
1446,503.29081816737744
1447,530.496266140568
1448,565.9967375165179
1449,607.6221710696682
1450,651.6025050853059
1451,680.3476773609764
1452,669.4076252078758
1453,599.8222854522992
1454,498.18159443706645
1455,413.32548802300516
1456,387.68390159039154
1457,411.3167700405029
1458,449.38402779706666
1459,470.75560880782905
1460,474.3014465460874
1461,472.6214740122541
1462,475.67562373542205
1463,473.5638277749804
1464,447.6760177222186
1465,384.59212470194143
1466,306.5920793741316
1467,250.85581193560574
1468,246.2432521216997
1469,268.2543292079572
1470,271.4789720118406
1471,219.50710889447146
1472,129.42866776238225
1473,37.793576069252595
1474,-22.78823918226408
1475,-41.17685143878771
1476,-13.452334594370768
1477,57.96523701134538
1478,139.77578859495225
1479,189.1392449311661
1480,175.12553035469318
1481,119.39456876214717
1482,58.13628361397241
1483,20.8305979363613
1484,10.277434323219495
1485,22.696714938150762
1486,50.31836151641073
1487,71.38229536696053
1488,61.088437374448404
1489,8.94670800127642
1490,-51.5629727103551
1491,-78.51068513635073
1492,-50.08651006864966
1493,1.4994712868938223
1494,35.077177312654385
1495,26.466525981357336
1496,-9.002565141734522
1497,-50.430178896645884
1498,-81.87639852650136
1499,-97.431307675286
1500,-92.46499038562979
1501,-67.52753109653713
1502,-32.24901464113282
1503,2.910473755640851
1504,29.470848479326378
1505,41.9120235282644
1506,35.18391251596768
1507,13.346428673434275
1508,-8.090515148433042
1509,-13.407006476449169
1510,0.1668667872709193
1511,21.711016367744378
1512,39.98535361956601
1513,50.199789529388
1514,53.21423471839444
1515,49.86859944480602
1516,37.652793606419436
1517,11.646726743125328
1518,-31.769691960524142
1519,-81.34655367272899
1520,-116.93394991186506
1521,-121.35197254385093
1522,-103.25071377952918
1523,-83.88026617202013
1524,-81.19072261403562
1525,-91.83217633521417
1526,-104.13472089940115
1527,-109.12845020192981
1528,-111.16345846689
1529,-118.70984024435347
1530,-134.86769040760373
1531,-142.66710415033958
1532,-120.3181769838593
1533,-60.2110047342303
1534,4.214316460571354
1535,32.17769015351769
1536,6.789019591427859
1537,-35.51179228212641
1538,-51.444842823902945
1539,-29.64022968802965
1540,-13.598050823064114
1541,-51.11840446898532
1542,-144.08138915422205
1543,-233.58710369260734
1544,-258.8556471803604
1545,-213.91711899302572
1546,-148.5416187824012
1547,-112.4892464734312
1548,-118.29010226111495
1549,-149.65428660736143
1550,-189.17190023784315
1551,-215.9630441388381
1552,-207.07781955402788
1553,-145.61632798129904
1554,-57.5786711695273
1555,12.675048884682838
1556,28.54472994024036
1557,-7.299730485121472
1558,-80.03843511158811
1559,-170.55148689390808
1560,-244.61798901807742
1561,-264.7390448979713
1562,-216.7977581719715
1563,-144.50923269958002
1564,-100.095572557997
1565,-107.56688203869089
1566,-141.21326564395167
1567,-170.61482808341862
1568,-181.24167427058637
1569,-178.60390931930488
1570,-169.5416385402459
1571,-161.494967437362
1572,-162.45400170432185
1573,-178.42884722091367
1574,-191.99261004946675
1575,-170.68639643120514
1576,-91.0293127826153
1577,2.701534308211194
1578,35.99603808526081
1579,-42.585908371705955
1580,-172.6474121434294
1581,-260.19658046742006
1582,-245.31752073420284
1583,-176.2183404835414
1584,-122.31614740063196
1585,-121.139049312309
1586,-142.99915418320415
1587,-150.15457011187573
1588,-127.58640532697791
1589,-92.58376818332181
1590,-64.5437671580039
1591,-54.45151084645113
1592,-65.24710795848841
1593,-98.44066731436578
1594,-142.58429784076543
1595,-177.87810856680335
1596,-187.41920862000188
1597,-175.57570722222954
1598,-155.7507136856657
1599,-138.58833740868613
1600,-122.74868787178275
1601,-103.67087463342068
1602,-81.06900732591566
1603,-66.04219565126004
1604,-71.43354937694494
1605,-97.09817833175657
1606,-120.85619240156848
1607,-119.01870152508127
1608,-85.88381568958357
1609,-35.467644926664434
1610,16.78470069208197
1611,50.31911105937979
1612,40.91347603659051
1613,-27.39431454190526
1614,-110.11837086434934
1615,-135.95780313721298
1616,-57.8417215807749
1617,67.40076357532052
1618,155.29254209649844
1619,157.46350374774192
1620,116.77353829806998
1621,89.70253552507347
1622,96.06038521941628
1623,99.17697718941963
1624,59.98220126560409
1625,-9.218052694703147
1626,-47.213894802765935
1627,0.6915648662088643
1628,102.62721627768406
1629,176.27394944250045
1630,156.93865442153765
1631,81.13122133043544
1632,20.10254034432728
1633,20.677501702566587
1634,53.49699571351084
1635,74.64691275931
1636,62.71714330070063
1637,36.6745778818422
1638,19.27410713514473
1639,21.362621786169257
1640,41.141012658481486
1641,75.2571706785584
1642,109.89198688072793
1643,124.62935241211198
1644,105.89315853757398
1645,80.22429664470837
1646,88.55265824885828
1647,153.14213499811558
1648,238.00161867838142
1649,296.17700121842245
1650,310.24817469493973
1651,313.8850313376988
1652,343.88746353461283
1653,392.0553638369238
1654,405.6986249643305
1655,338.41713981018984
1656,224.36080144670086
1657,142.97350313013885
1658,152.91713830608205
1659,209.01160061468
1660,234.5447838959317
1661,190.74858219497582
1662,135.14188976741934
1663,139.10360108466557
1664,215.02661083927887
1665,293.84781395036225
1666,305.1571055689601
1667,248.75038108344233
1668,178.16353612499188
1669,141.4024665730267
1670,139.78706856068493
1671,155.3972384803128
1672,170.9598729889949
1673,171.65086901408176
1674,143.2831237587452
1675,84.40953470755085
1676,15.511999632051811
1677,-40.98258340358552
1678,-67.72931603696452
1679,-52.08129960179758
1680,13.357364877783766
1681,94.41957669288422
1682,136.65223545559456
1683,102.81224110470976
1684,22.90549391146851
1685,-56.90510551464831
1686,-105.24165622014334
1687,-119.01625690170113
1688,-99.20100590032052
1689,-66.89900119550293
1690,-63.13934039936794
1691,-122.07812075075344
1692,-210.9544391093077
1693,-262.8703919495838
1694,-234.06507535505443
1695,-172.84958501216897
1696,-149.7550162043499
1697,-190.89546380599495
1698,-238.963022276439
1699,-230.19478565392092
1700,-160.65584754949123
1701,-83.10930114095754
1702,-46.242239166742365
1703,-48.61275391978961
1704,-65.13493724139335
1705,-76.06488051504311
1706,-80.91967466024107
1707,-83.41441012628457
1708,-87.29117688605766
1709,-96.34206442976938
1710,-113.89616175871197
1711,-135.75155737894602
1712,-151.60833929502223
1713,-152.63559500365227
1714,-140.33841148736428
1715,-120.22587520813431
1716,-102.65907210101614
1717,-111.23008756773197
1718,-170.59300647025339
1719,-258.8919131243583
1720,-294.7178912931795
1721,-204.92102418070863
1722,-49.85239442531565
1723,28.156915906787617
1724,-68.43017467193204
1725,-234.0477470637452
1726,-307.89288157911324
1727,-220.9776579300651
1728,-80.95315522360033
1729,-10.685451955032477
1730,-37.11362600134635
1731,-101.20375461453114
1732,-148.35891441486456
1733,-174.46118138420934
1734,-196.00363085928075
1735,-220.76933752489094
1736,-232.33937540718034
1737,-210.74381786680897
1738,-156.5357375921758
1739,-95.3902065925522
1740,-53.14529619125642
1741,-41.89107701877583
1742,-66.07661900586754
1743,-120.71399137667504
1744,-165.92026264177002
1745,-154.35150059121952
1746,-87.05177228762113
1747,-41.32314405911711
1748,-92.92968149237458
1749,-207.31044942557855
1750,-272.21551194137464
1751,-204.1839323598051
1752,-64.7137732312458
1753,42.07990367072853
1754,57.66603735644276
1755,10.8705676272657
1756,-60.30756491721877
1757,-130.3204188720465
1758,-183.96705201965779
1759,-207.76852132270324
1760,-196.3648829167705
1761,-147.2801921031696
1762,-71.03450334162517
1763,-6.462870242990903
1764,5.693654438055091
1765,-36.96698118963832
1766,-101.43682814636668
1767,-154.12193657416537
1768,-166.4683557294502
1769,-111.92813397559621
1770,1.5696812245005276
1771,85.62504331586206
1772,45.62590665889729
1773,-95.83177346312004
1774,-203.1970408365214
1775,-164.20893830975365
1776,-45.452507785796115
1777,16.569209785368002
1778,-47.00682558565131
1779,-146.18365292005
1780,-172.3663102632163
1781,-106.20183467708193
1782,-12.712262232478679
1783,47.89937199855376
1784,65.52103395045015
1785,48.82569057183173
1786,10.71930983326638
1787,-26.72313926501738
1788,-41.18568668533953
1789,-29.02836134476638
1790,-2.902191107330509
1791,25.2567972238121
1792,50.47757791424374
1793,70.10112630611184
1794,80.2174188260451
1795,74.51043299305093
1796,47.53914742641973
1797,10.805541853689647
1798,-11.346402881417816
1799,-1.93470481100303
1800,21.50761916499505
