800,99.50784957715223
801,98.70109927192425
802,120.79648166748848
803,156.4601495551342
804,184.41825568976492
805,183.2379527902831
806,141.13539353991837
807,79.64773058655192
808,27.500116543016702
809,12.770703987369416
810,41.09764546316728
811,90.0070934796986
812,135.26820051221875
813,155.64011900212972
814,153.20600135719906
815,141.01599995170363
816,132.16726712658237
817,134.27595518956696
818,141.08521641529478
819,144.17620304540287
820,135.49506728859342
821,114.16396132069349
822,85.91503728470161
823,56.73544729079367
824,32.04134341634199
825,14.36087770587801
826,5.266202171073019
827,6.315468790691739
828,17.090829510510957
829,33.80243624324066
830,52.327440868422855
831,68.64899523230088
832,79.94925114769467
833,84.14236039384014
834,79.16147471622025
835,65.38774582637052
836,51.11532540168628
837,46.21536508518875
838,60.14801648529465
839,91.1444311755622
840,125.18076069441668
841,147.62615654486763
842,146.29977019419857
843,123.80175307366517
844,88.24825657814108
845,47.761432065781264
846,11.189430857644766
847,-11.301595762675788
848,-9.39349654945363
849,25.542879704746156
850,82.8996841686585
851,139.79906797186777
852,173.18118220434008
853,169.01017791596132
854,141.7382061160497
855,111.42541777284714
856,97.4909638129975
857,104.05699512103092
858,119.61566253879937
859,131.95111686491873
860,131.12950885420832
861,119.27198921708259
862,102.48470861895476
863,86.84981767961654
864,76.91446697261381
865,74.81680702459198
866,82.47998831463883
867,101.19516127360839
868,126.71847628344767
869,151.947083676474
870,169.76713373468556
871,176.38777668901275
872,176.01116271859246
873,174.01144195001143
874,175.41376445653623
875,180.12128025733
876,184.12413931668016
877,183.316491543168
878,174.91548678887193
879,160.91527484852122
880,144.37500545866715
881,128.3448282968202
882,115.59589298058563
883,108.59834906678407
884,109.80334605055214
885,120.52803336446232
886,136.15756037757637
887,150.13407639454272
888,156.02873065464883
889,153.46867233086596
890,151.0050505288982
891,157.88601428619768
892,181.43271257098604
893,214.6592942812622
894,244.15890824378766
895,256.56970321306835
896,246.91982787032975
897,226.56443082247642
898,208.73766060103662
899,205.10066566111163
900,211.08959438028432
901,212.62059505755315
902,195.51081591223192
903,154.9894050828443
904,109.93151062602192
905,82.87728051535487
906,94.48086264028825
907,139.13040480495147
908,191.85005472702323
909,227.2269600365562
910,228.9032682748002
911,209.1371268930434
912,185.8266832513782
913,176.14608461753232
914,183.7564781656456
915,200.30701097505153
916,217.01383002902912
917,225.97908221359467
918,222.65091431622932
919,203.2834730246268
920,164.59290492543187
921,114.75435650295549
922,73.82597413790427
923,62.41890410607084
924,94.11929257705197
925,150.89928561292254
926,205.8440291669176
927,232.6566690821237
928,224.55535109012817
929,197.63222080967353
930,169.28142374532217
931,154.12910528609063
932,152.67141070406979
933,160.9364851530754
934,174.97047366725565
935,191.5255211596741
936,208.26077242096835
937,222.88937211789744
938,233.12946479195125
939,236.7041948579281
940,231.34170660249947
941,214.8391441827971
942,188.43865162494876
943,158.02237282265014
944,129.81145153569196
945,108.96303138851908
946,94.46625586874325
947,83.10226832568515
948,71.71121196888271
949,60.293229866603724
950,53.24246494436193
951,55.276059983401865
952,69.47215761920961
953,89.25690033998399
954,104.56843048512928
955,105.50589024372857
956,89.93042165300903
957,66.41616659680403
958,44.32626680402973
959,31.32886384710764
960,25.412099140436112
961,21.149113938823575
962,13.210049335921212
963,0.8070462626546941
964,-10.821754514341592
965,-16.019212394321585
966,-10.911186943993016
967,-1.1965378991208127
968,4.245874833881317
969,-3.2278088236453186
970,-23.597449124206832
971,-46.11890649578163
972,-59.37504154340968
973,-55.42471505083449
974,-43.211787982108945
975,-36.7831214832313
976,-49.68957688377304
977,-80.66901569851507
978,-111.89129962908737
979,-124.63629056561513
980,-106.39985058836828
981,-71.11884196940446
982,-39.76912717423147
983,-32.5715688634682
984,-52.9910298945033
985,-87.99037332316948
986,-123.83146240540009
987,-149.70516059891452
988,-165.4113315648974
989,-173.12383916966064
990,-174.82954748635893
991,-169.29032079664285
992,-152.56502359237493
993,-120.62652057730156
994,-73.9796766687723
995,-26.51135699941733
996,5.4195730811443354
997,6.64524800459003
998,-22.729198017803355
999,-72.00163099686688
1000,-130.2479171672585
1001,-186.25792298918168
1002,-228.11951515008332
1003,-243.82456056639603
1004,-221.35592638524213
1005,-153.23747998616818
1006,-62.5400889828652
1007,15.068378775100427
1008,44.40005520056184
1009,16.836071967009048
1010,-38.118439493116966
1011,-87.9993479902023
1012,-106.13252257914792
1013,-97.43883256114896
1014,-77.52714748541439
1015,-61.812337150910025
1016,-59.2952716080963
1017,-71.44382116068664
1018,-99.29985636737729
1019,-140.36224804360427
1020,-177.21886726328194
1021,-188.51758536055422
1022,-154.26427393155063
1023,-82.26380483611501
1024,-6.07405019959333
1025,39.76311758545671
1026,33.66682585749004
1027,-5.153798315781387
1028,-49.43462813912629
1029,-73.47353709156232
1030,-72.04139892809326
1031,-54.26608768148617
1032,-29.576477664008053
1033,-4.667443469183127
1034,19.919140026451714
1035,44.525397661584066
1036,69.07145398837929
1037,90.19743327072683
1038,102.86345948247981
1039,102.05965630570608
1040,85.60614712893221
1041,55.90305504538628
1042,15.76050285124802
1043,-30.611386956095885
1044,-71.21249217981858
1045,-91.29269092539471
1046,-76.76186160236102
1047,-30.329882926043865
1048,26.843366080658598
1049,72.63800608555903
1050,91.82415744540958
1051,93.521940204173
1052,92.20147409127276
1053,101.33287851984096
1054,119.77627258498615
1055,135.8717750620417
1056,137.72950440484237
1057,120.2795787439627
1058,93.34211588499966
1059,68.71723330682289
1060,56.755048159857324
1061,56.685677264322294
1062,62.72923710853502
1063,69.10584384716276
1064,72.5856132994868
1065,73.35866094770608
1066,71.83510193518669
1067,69.31505106474833
1068,70.77862279696274
1069,82.2259312484075
1070,109.08709018996888
1071,148.19221304513667
1072,189.37141288827843
1073,222.27480244294202
1074,238.7624940801361
1075,235.82459981665488
1076,211.19123131335255
1077,164.45249987346142
1078,109.20851644088725
1079,65.51939159852554
1080,53.01523556657412
1081,72.07615820083447
1082,98.11226899104076
1083,104.86367705918019
1084,75.65049115781221
1085,30.552819668395387
1086,-1.5292294003847928
1087,6.044451585723436
1088,49.42396988486507
1089,103.22943237742948
1090,141.67094556438133
1091,150.7286155656202
1092,138.99254811831815
1093,117.68284857528306
1094,96.81962190330341
1095,79.7329726815351
1096,67.31300509984067
1097,60.36982295716007
1098,57.60352965990205
1099,55.65422822030996
1100,51.05202125483447
1101,40.47701098253674
1102,21.03929922345924
1103,-10.121012602972769
1104,-54.29382347954197
1105,-100.39903279286045
1106,-131.346540334951
1107,-130.4962463048323
1108,-99.52805131010791
1109,-63.17185636855356
1110,-47.607562909674016
1111,-69.33507277630088
1112,-111.85428822613721
1113,-151.65511193332168
1114,-167.5774469900025
1115,-162.77119690786094
1116,-154.65626561968384
1117,-160.6325574808925
1118,-186.00997727108188
1119,-218.2084301955565
1120,-243.21782188684847
1121,-250.16805840624147
1122,-240.73904624530405
1123,-219.6606923273648
1124,-191.762904009056
1125,-162.59558908178406
1126,-138.23865577324796
1127,-124.71201274890518
1128,-124.81556911347252
1129,-136.20923441240302
1130,-156.06291863333718
1131,-181.50653220760432
1132,-209.44998601165025
1133,-236.7431913685141
1134,-260.14606004926645
1135,-275.4685042744495
1136,-277.8304367155324
1137,-262.4817704963134
1138,-231.27241919437074
1139,-196.51229684246755
1140,-171.4613179299704
1141,-166.19939740424525
1142,-178.33645067207362
1143,-202.36239360103355
1144,-232.4471425208867
1145,-259.4106142249657
1146,-271.99272597154595
1147,-259.15339548520933
1148,-222.502540958214
1149,-181.85008105183624
1150,-158.39593489773324
1151,-164.89002209926366
1152,-184.63226273284272
1153,-194.59257734925632
1154,-174.97088697498293
1155,-135.5171131135212
1156,-101.70117774666141
1157,-98.44300333583305
1158,-126.98251282335332
1159,-160.18962963373633
1160,-169.23427767497014
1161,-139.0663813397714
1162,-92.4558655068704
1163,-58.6626555422481
1164,-61.816677300394076
1165,-91.48785712554854
1166,-122.83612185293714
1167,-132.1813988099857
1168,-119.40361581755496
1169,-106.24270119113316
1170,-115.13858374205847
1171,-152.0711927787088
1172,-189.9504581076726
1173,-197.70631003495873
1174,-153.9986793671378
1175,-83.02749741253865
1176,-22.302695982374644
1177,-6.1242073919056566
1178,-30.47196446158523
1179,-66.35590051818144
1180,-84.79594939590606
1181,-77.42204543752268
1182,-64.15412349547296
1183,-66.95211893295527
1184,-98.20596762502828
1185,-141.94560595969597
1186,-176.96097083896893
1187,-185.2119996799429
1188,-170.29863041585122
1189,-144.85080149711212
1190,-121.09845189237785
1191,-103.32152108955597
1192,-88.86994909683926
1193,-74.90367644371509
1194,-59.28264418197978
1195,-41.18679388672899
1196,-19.91606765734832
1197,3.56959188151086
1198,22.120241578961213
1199,27.15593775690286
1200,12.136736209089577
1201,-12.037307799815608
1202,-25.74613953519838
1203,-10.23970479338459
1204,30.162050097414976
1205,68.17917827621932
1206,75.67173234835354
1207,42.84976438459853
1208,-4.136674079738441
1209,-34.93753204564382
1210,-28.292759051293615
1211,0.23769482711031742
1212,25.773878974499894
1213,26.51584223610189
1214,7.853632916616334
1215,-10.772701220590534
1216,-10.563112954292592
1217,10.122444393797196
1218,35.89401695824381
1219,50.751650329131735
1220,47.335389551270055
1221,34.54527912347294
1222,23.061362997781544
1223,20.673684578754546
1224,24.56228672272664
1225,29.467211737102843
1226,30.628501379655063
1227,27.286196857810864
1228,20.480338827988817
1229,11.490967394918698
1230,5.568122110955301
1231,11.34184197545801
1232,37.34216543412549
1233,81.66913037836457
1234,126.37277414466735
1235,152.10313351400328
1236,147.23024471120698
1237,122.16414340438678
1238,91.22486470435615
1239,67.44244316404183
1240,56.606912777941034
1241,62.05830698154932
1242,86.14665865085226
1243,120.40200010175795
1244,149.57436308961223
1245,158.77377880866698
1246,146.5302778915975
1247,126.07389040899761
1248,111.37464586893657
1249,113.41257321645935
1250,137.41770083314623
1251,187.98005653667497
1252,261.9296675803871
1253,329.36656065285206
1254,354.5707618774759
1255,310.9922968120936
1256,230.8111904485777
1257,169.3474672124612
1258,176.8911509625832
1259,239.32226499071658
1260,298.69083202123875
1261,297.9768742107881
1262,233.27041314795315
1263,161.09146985294865
1264,141.00006477733587
1265,196.46621780371242
1266,282.4299482454626
1267,346.131274846457
1268,351.7802157808492
1269,318.95678865277296
1270,278.481010496178
1271,256.632897774547
1272,253.76246638074008
1273,261.0397316367671
1274,269.9747082936228
1275,275.4574105310985
1276,274.35785195763674
1277,263.8360456101673
1278,246.2120039539859
1279,228.67573888261177
1280,218.51726171769042
1281,218.31658320887982
1282,223.57371353376584
1283,229.21866229777697
1284,231.74143853413807
1285,231.5020507037898
1286,229.36050669536235
1287,226.01681382513743
1288,221.33097883703522
1289,214.96300790261193
1290,206.56290662105675
1291,195.78068001920838
1292,182.26633255159504
1293,166.26986810046583
1294,154.8012899758578
1295,159.0806009156513
1296,189.8278030856527
1297,244.70289807967856
1298,309.0158869196748
1299,367.6467700558205
1300,408.57554736665406
1301,424.24221815922283
1302,407.4767811692236
1303,359.39923456118777
1304,298.999575928623
1305,247.58780229425247
1306,221.42391011016662
1307,219.817895258082
1308,238.5997530495315
1309,272.8094782261305
1310,313.48706495982333
1311,350.38250685313506
1312,373.77579693947155
1313,378.28692768338806
1314,360.5958909809142
1315,318.62267815984524
1316,266.18727998009126
1317,228.20968663400708
1318,228.67988774675723
1319,264.8178723766632
1320,307.19362901560817
1321,325.65714558940635
1322,310.89840945823016
1323,282.93740741700094
1324,263.9541256958528
1325,264.32854996055175
1326,271.04066531295575
1327,268.32045629150707
1328,248.87790687167762
1329,229.5330004664993
1330,231.3957199270535
1331,267.6260475430008
1332,318.8839650431146
1333,357.57945359581936
1334,361.44249380977453
1335,339.68306573442715
1336,312.8411488606089
1337,299.7467221211409
1338,304.1297638914384
1339,322.1602519901335
1340,349.67816367974046
1341,379.0434756672803
1342,400.296164104966
1343,403.80620459087004
1344,387.38357216963595
1345,355.638241333163
1346,313.530186021344
1347,270.32937962278083
1348,240.3957949755586
1349,238.22940436797217
1350,266.420179539331
1351,308.96809168072105
1352,348.28311143582505
1353,372.42520890172636
1354,381.13435362972814
1355,375.5705146262171
1356,357.4736603534966
1357,330.19375873066383
1358,297.34077713449733
1359,263.884682400334
1360,239.59544082299908
1361,235.3130181577053
1362,257.91737962101615
1363,296.0384898917746
1364,333.0763131120657
1365,355.05081288821384
1366,363.6719522917465
1367,366.4196938604182
1368,369.3539995992196
1369,366.89483098140954
1370,348.0521489495677
1371,304.29591391664144
1372,252.1560857670229
1373,222.82262385764443
1374,244.42548701906526
1375,302.194633556599
1376,350.71002125142695
1377,346.3116073617566
1378,289.4093486239617
1379,218.5332012537565
1380,172.59312094738925
1381,167.33906288282742
1382,194.59098172097038
1383,244.84883160687605
1384,301.90256617100204
1385,341.3321385304662
1386,338.6475012902847
1387,293.218606544684
1388,239.27540587838666
1389,213.56785036790825
1390,230.50589058289552
1391,266.3194765874505
1392,293.51855794149196
1393,296.6530837021128
1394,284.33300242495716
1395,268.04826216562833
1396,257.20881048107003
1397,256.4245944310169
1398,269.57556057939473
1399,294.93165499580755
1400,315.5928232569695
1401,312.1490104482
1402,275.8201611649074
1403,230.66621951409797
1404,207.08712911589646
1405,224.7928331050698
1406,266.01327413258696
1407,304.70839436717506
1408,319.25813549689883
1409,305.6624387307511
1410,264.2512448002508
1411,200.96449396106254
1412,146.5421259946379
1413,138.65408020985706
1414,203.1702954446955
1415,307.700710067882
1416,401.8752619806164
1417,443.1338886182384
1418,431.3865269519829
1419,380.91311349068565
1420,308.25358428254367
1421,243.2578749168697
1422,220.70592052586653
1423,267.2576557864195
1424,357.69301492190425
1425,446.3319317039968
1426,493.1743394545174
1427,497.8201710472531
1428,476.46935890984605
1429,445.30183502565706
1430,420.0475309356534
1431,416.256377740312
1432,445.6983061015453
1433,491.44324624462024
1434,523.2911279601267
1435,516.1518806059084
1436,486.5354331090675
1437,470.78171396794096
1438,499.6206512540957
1439,556.4121726143694
1440,601.2962052728799
1441,599.3126760330906
1442,558.1615112798645
1443,506.8326369815277
1444,472.15597869199337
1445,461.7014615528278
1446,473.32901029539426
1447,503.92854924297353
1448,542.9900023129176
1449,576.2632930188138
1450,591.3183444726528
1451,591.3350793870322
1452,587.2334200773475
1453,588.2932884640177
1454,589.4446060747177
1455,578.6672940466397
1456,545.8212731287331
1457,496.36646368399306
1458,443.15278569175825
1459,398.1501587500097
1460,366.0785020776839
1461,348.33773451701927
1462,345.1577745359027
1463,348.5985402302267
1464,347.09994932627524
1465,331.13191918310986
1466,305.29436679497303
1467,280.0372087937194
1468,263.85036145124286
1469,252.41374068193545
1470,236.39726204512954
1471,209.0308407476041
1472,178.544391646059
1473,158.67782924962376
1474,159.84106772239284
1475,174.4440208859396
1476,188.86660222188584
1477,190.65872487444904
1478,173.22030165304204
1479,131.72124503484156
1480,67.03146716741867
1481,5.190879871341167
1482,-20.790605357171444
1483,10.566922656391398
1484,75.16337476748959
1485,137.61866151522554
1486,168.86269312503646
1487,161.9753795113902
1488,114.83663028051706
1489,34.48635473314607
1490,-44.00553813275292
1491,-80.23913961918515
1492,-53.54454132537467
1493,3.578164855045543
1494,49.858886736830755
1495,58.12753184595931
1496,34.03400742245503
1497,-12.041779576748013
1498,-65.59992247495575
1499,-103.8605148728202
1500,-103.25365064545076
1501,-59.54942393952115
1502,-1.8679291703138006
1503,37.70073898118062
1504,46.1364855712327
1505,38.60921539633637
1506,32.20883299619163
1507,32.845242656683695
1508,32.44834841291049
1509,22.37805405218569
1510,2.674263117078226
1511,-17.473121091521534
1512,-28.614195511350772
1513,-24.829057315713726
1514,-3.2778039103486662
1515,37.65946706964132
1516,84.49265776293578
1517,112.63167008511118
1518,100.07640573180106
1519,55.13676618185127
1520,4.412652700517356
1521,-27.386033657372536
1522,-33.40939204420101
1523,-15.477521816326771
1524,21.7094774691177
1525,55.65150605750205
1526,56.92846399995324
1527,5.510251156611048
1528,-72.39323280005738
1529,-136.4020883819685
1530,-157.1164162820951
1531,-146.82631737114207
1532,-127.6418926942024
1533,-114.69324346739813
1534,-102.71047107448976
1535,-82.80367706351535
1536,-55.71296314336905
1537,-43.59843118040226
1538,-71.26018319497962
1539,-138.6283213580391
1540,-202.94294798764895
1541,-218.16416554551688
1542,-177.10207663352594
1543,-123.9767839902197
1544,-104.9083904872914
1545,-126.51699912607546
1546,-155.34271303398418
1547,-158.27563546097554
1548,-135.13586977596424
1549,-111.19351946326606
1550,-109.18868811897664
1551,-119.21147944738368
1552,-112.4019972573351
1553,-65.7703454586026
1554,0.7933719417560496
1555,48.9490508430863
1556,49.80658705477981
1557,21.835876299996016
1558,-1.8331857806606422
1559,-0.2907036254000559
1560,4.593218252468432
1561,-18.38152473171067
1562,-82.04503723017842
1563,-153.69742395900175
1564,-193.95878969427577
1565,-186.72923926832664
1566,-156.95887756591037
1567,-133.39780952036745
1568,-128.536140109798
1569,-134.3739743532078
1570,-141.92141730663934
1571,-149.35857405928982
1572,-161.34554972961814
1573,-181.76244946144834
1574,-202.2693784200328
1575,-206.75644178814036
1576,-182.81374476208475
1577,-146.4513925477877
1578,-126.30949035679805
1579,-142.58814340229583
1580,-174.317456895109
1581,-188.17753603969322
1582,-164.29848603009668
1583,-125.36041204594221
1584,-102.41341924835615
1585,-110.39761277590878
1586,-130.37309774054302
1587,-139.39997922347175
1588,-128.95836227107793
1589,-111.12835189080943
1590,-99.36005304701393
1591,-103.71357065683878
1592,-130.9490095860383
1593,-185.38647464482892
1594,-244.61607058369555
1595,-268.93790208918836
1596,-225.9920737797238
1597,-136.83869020137354
1598,-45.1978558236151
1599,12.330324964927058
1600,30.14574786070625
1601,10.97830864955904
1602,-37.02209678903273
1603,-91.26557247762685
1604,-126.94222233651635
1605,-134.53215017940056
1606,-130.5554597090686
1607,-133.35225451301994
1608,-141.99263805913142
1609,-134.44671369125354
1610,-90.17458462485592
1611,-22.586353942602727
1612,30.92787541004509
1613,39.028000629272356
1614,18.423919057317107
1615,7.035528186945157
1616,32.43272566590349
1617,77.41540930139672
1618,112.86347706456763
1619,118.05682709500434
1620,93.56535770525261
1621,43.408967385319556
1622,-19.67244519275846
1623,-69.45898117038269
1624,-79.71074149784909
1625,-48.21782692974011
1626,4.379661979628509
1627,57.41162488082955
1628,99.47796163390922
1629,124.54857231303504
1630,127.9533572111086
1631,112.0222168444161
1632,81.53505195729667
1633,43.90176352679737
1634,14.742252767362515
1635,11.146421135528726
1636,36.57417033461388
1637,69.99540231947321
1638,88.51001930117854
1639,87.72792375179779
1640,82.87901840912855
1641,88.64320628146925
1642,102.28039065239864
1643,110.11047508554839
1644,102.90336342942646
1645,98.21895982221031
1646,123.24716869657095
1647,187.9678947845241
1648,248.88104312225187
1649,252.5465190549803
1650,190.0642282418412
1651,129.484076660754
1652,143.11597061331304
1653,225.1398167296993
1654,292.3955219735835
1655,268.95299364707716
1656,182.60213939563255
1657,119.39286721303324
1658,144.06508544631288
1659,213.99870280076357
1660,254.0036283448917
1661,222.69977151543753
1662,164.76704212234472
1663,137.47535035381225
1664,157.01460678129843
1665,182.77472236457288
1666,172.74560845675114
1667,126.30717680936868
1668,74.51933957745314
1669,45.78200932458276
1670,44.62509902801321
1671,65.79852208375632
1672,99.66219231169998
1673,122.00602396074282
1674,105.92993171392482
1675,51.511830693558295
1676,5.403636466420721
1677,16.165265048888614
1678,77.7946329121296
1679,133.91765698729432
1680,133.61025467071886
1681,86.52234382911593
1682,31.847842804823813
1683,-1.4993295789845433
1684,-25.151254013055222
1685,-60.38301069679437
1686,-108.62267933301337
1687,-133.4083391226486
1688,-96.35906875948604
1689,-13.340946424872527
1690,46.04295021760481
1691,20.174544027411685
1692,-63.23024160759269
1693,-130.9004827658373
1694,-130.1642549866865
1695,-90.80263326508975
1696,-62.63769204620985
1697,-72.06050522006808
1698,-101.4171461161477
1699,-128.6646874979997
1700,-142.23820155784415
1701,-140.5007599111632
1702,-123.58143359126734
1703,-102.46329304386927
1704,-93.25240812164157
1705,-105.65284807877288
1706,-126.83068156549598
1707,-139.147976622613
1708,-132.99880067604136
1709,-111.99822053129355
1710,-81.43330236800466
1711,-53.74111173439633
1712,-47.133713541787074
1713,-74.01717205905516
1714,-109.32755090709179
1715,-113.56991305327574
1716,-70.63532080590448
1717,-28.638835808633303
1718,-45.222519034909055
1719,-122.95243078238127
1720,-193.85763066731852
1721,-192.24617761900117
1722,-128.66712987411665
1723,-60.459544971148716
1724,-33.10347974474098
1725,-36.547990320064855
1726,-45.54313210717737
1727,-45.44995979537998
1728,-42.01852734752538
1729,-43.193887994388206
1730,-54.31309422895902
1731,-78.37919780076118
1732,-115.27324971017151
1733,-144.62530020269878
1734,-137.78439876327502
1735,-82.50159411054847
1736,-11.802934191135137
1737,34.13353382610876
1738,36.84776355582653
1739,4.5057094019230135
1740,-51.92467343667704
1741,-110.34342896026101
1742,-142.43460036253782
1743,-129.48723002487895
1744,-89.08335951049048
1745,-47.12602955864713
1746,-17.99628007885076
1747,2.1098498549636133
1748,18.566322010270596
1749,36.16209900177273
1750,59.29314429724582
1751,88.14042222339594
1752,102.92089797170411
1753,78.1315376042985
1754,12.692308059808056
1755,-47.7638228407377
1756,-55.39688638802909
1757,-15.742912978595996
1758,21.246067891115672
1759,15.07502763062621
1760,-13.59906143864464
1761,-22.890226077459374
1762,4.283507877154989
1763,30.72711551786597
1764,14.527572872952078
1765,-36.2251430877277
1766,-67.23605444677924
1767,-34.39518233331364
1768,32.03645308301748
1769,73.39283259801232
1770,56.53093797890142
1771,8.19475197032989
1772,-37.02674169963393
1773,-60.699558313503076
1774,-59.946712158354785
1775,-35.460216519824826
1776,-6.566083676058042
1777,0.12967510829003004
1778,-23.66995041188602
1779,-43.39796945611306
1780,-20.329390212280487
1781,41.628780169410675
1782,98.26053558250351
1783,110.4098709703594
1784,79.75678233223698
1785,23.305266729357754
1786,-39.517677709000054
1787,-84.09805177941234
1788,-86.83185519821018
1789,-56.040086595374305
1790,-27.910743508437008
1791,-30.8878223763586
1792,-46.30131853341845
1793,-39.82722620306413
1794,1.1244615081832308
1795,47.14875261690031
1796,66.38365626887389
1797,62.17718274526305
1798,64.54034346875414
1799,91.58215100971574
1800,105.0506190923461
