800,-23.75405327365752
801,-73.85911191521154
802,-69.82791761253338
803,-17.68123229917819
804,50.069181160605694
805,100.55855896466073
806,111.07113636583472
807,93.9481476649662
808,69.09382620401175
809,55.98940435923578
810,59.46411353453368
811,65.99618415484201
812,60.907845659650775
813,32.16732649662208
814,-11.625145884701851
815,-52.17034503907507
816,-71.14804553164686
817,-59.6450229439406
818,-32.592053879747255
819,-8.630915970922615
820,-5.519387883072341
821,-23.681249321162795
822,-47.560281035018306
823,-61.00826482473349
824,-51.565983545981
825,-26.015221115235363
826,2.596237485108759
827,21.323606201696748
828,25.163097905283394
829,22.783924385883438
830,24.192296348020136
831,38.09642340605933
832,58.89251407964184
833,72.11077578920231
834,63.157414851573776
835,25.357636475693653
836,-22.457355241613186
837,-56.334357319756236
838,-53.19916789841409
839,-13.555586241488527
840,36.374587259045256
841,69.07555107935332
842,62.89950256006341
843,31.501637902654693
844,1.7091521659467617
845,0.20123926266751369
846,36.85809195609818
847,90.33690185680916
848,135.89685941948574
849,150.84615393982585
850,135.79797355151914
851,106.23050522331505
852,77.85893475617377
853,61.91944678048549
854,55.51622475338718
855,52.98245095614311
856,48.8303064916181
857,41.9249712818164
858,35.58862406551543
859,33.33944239596167
860,37.833602638654156
861,47.133279969202704
862,57.79364837126195
863,66.35988063453806
864,69.17214835288178
865,62.2346219224446
866,41.52347053991434
867,4.794862200835269
868,-34.61303630202292
869,-55.30505938018723
870,-35.8650426509721
871,30.750177061144313
872,117.08276172317983
873,190.60787209241334
874,220.69066771517737
875,204.58630692577844
876,160.8419468454349
877,108.5387433813139
878,63.43285122562884
879,29.326423854808127
880,7.341613528735252
881,-1.417428709954038
882,3.705446963507711
883,22.88638915545289
884,56.27254525328681
885,102.07406142506443
886,148.3370826191258
887,179.79875256379546
888,181.503213767156
889,154.26360751688298
890,122.03807388014047
891,110.63475170353922
892,140.93277861315983
893,197.38629101465267
894,248.12742409337625
895,261.36231181460516
896,224.65108692381455
897,163.20788094700856
898,106.58682419111483
899,81.53304574444519
900,85.94967347720103
901,100.81983404205675
902,106.9306528747893
903,93.75525419497262
904,72.59676100672368
905,58.141295099517265
906,63.81797704904329
907,85.52592621813437
908,106.25126075774824
909,108.68509760798952
910,84.40755249921858
911,53.0717399531768
912,39.86877328420542
913,68.4327646004931
914,133.2428248053784
915,202.8480635987271
916,244.8875894783314
917,236.6595097413956
918,192.5359304860449
919,135.78795661290042
920,89.17569182670923
921,62.84723863801537
922,53.857698364886346
923,58.65717113469418
924,73.83675588594087
925,96.63055037012782
926,124.45765115369522
927,154.67615361998378
928,182.95715197126538
929,202.9907392308096
930,208.35100724500808
931,194.58304668553046
932,167.24394705154918
933,135.0657966719864
934,106.68868270782968
935,87.1806911544736
936,77.03890684412454
937,76.46041344823061
938,84.96229347997723
939,98.31062829681377
940,110.9784981030216
941,117.50898195233913
942,115.46215775060955
943,106.48310225849673
944,92.51589109422002
945,75.51559873634415
946,57.53129852660277
947,40.64606267277304
948,26.855962251579513
949,14.22406721164407
950,-4.645553623512569
951,-37.559832552465195
952,-88.95170299279289
953,-143.48009947798437
954,-178.6329576542903
955,-172.32821427753515
956,-122.76480720989912
957,-56.12867541666583
958,-0.6617589629086069
959,20.915000989823056
960,17.39766218688237
961,8.73328128393041
962,14.580913850370052
963,41.99261437282803
964,81.27843625866171
965,121.59243183950275
966,152.6366523748393
967,167.09314805562917
968,158.63296800794342
969,121.26616029664183
970,60.900771929093935
971,-1.8251511410826424
972,-45.341564010249385
973,-53.80742282092706
974,-39.19868475797011
975,-21.911308044687758
976,-21.836251938949317
977,-44.03247672924681
978,-76.94194373073697
979,-108.12261528125237
980,-127.0894547372809
981,-131.70242646991755
982,-122.03949586078124
983,-98.38662929791917
984,-65.77079417166806
985,-33.87895887049308
986,-12.608092776799822
987,-9.393166262723753
988,-22.851150685881294
989,-49.60401838510916
990,-86.07374267616888
991,-125.18629784742461
992,-156.93765915550193
993,-171.23280282091855
994,-161.95170602369126
995,-134.73934689891303
996,-97.4027045323237
997,-57.657758955827376
998,-22.03449114301202
999,3.763116995348355
1000,14.057082615859144
1001,5.952421947027688
1002,-16.8598497061339
1003,-49.73971795751913
1004,-88.04516933530795
1005,-127.08019127731768
1006,-161.827772126343
1007,-187.13790112547485
1008,-197.91356841339166
1009,-192.02376501964318
1010,-171.58548285990219
1011,-139.05271473120501
1012,-98.29645430716755
1013,-60.95269613319488
1014,-41.281435621654055
1015,-52.99066904704432
1016,-92.32639354114417
1017,-135.01760708813708
1018,-155.6033085197314
1019,-136.1924975102529
1020,-90.89917457172214
1021,-42.294341048921524
1022,-11.788999114444778
1023,2.735848236271522
1024,25.206197189935665
1025,80.38404312039256
1026,179.06938059363256
1027,288.0992033728289
1028,365.65450442336623
1029,373.33627591790264
1030,317.613509241437
1031,236.45419499637865
1032,168.43432300765926
1033,136.62088232782116
1034,128.82386124214554
1035,127.98324727377985
1036,118.72102718887982
1037,100.13618700176175
1038,78.65771198007224
1039,60.71958664995145
1040,49.028794801232834
1041,40.32931949263184
1042,30.82914305694794
1043,17.848247106294366
1044,4.893612537302943
1045,-2.3967804636185974
1046,1.3070475849372087
1047,12.617075464640038
1048,18.594281262678123
1049,5.7996423770291585
1050,-32.65386447826768
1051,-80.5182632678243
1052,-116.43757862961138
1053,-120.45783586966809
1054,-91.99406095678933
1055,-44.5232805172227
1056,8.175478170661336
1057,55.98618718167472
1058,96.83181794915708
1059,129.69534127030238
1060,153.51572731149645
1061,166.92394561366746
1062,168.40696509762984
1063,156.56375406943607
1064,134.73828022574253
1065,112.65451065915931
1066,100.49441186362492
1067,104.99394973976814
1068,118.33608960028414
1069,128.8617961752998
1070,125.76103361776222
1071,112.05376550880919
1072,101.93195486315471
1073,109.89156413446744
1074,141.63455522075947
1075,182.33888946977186
1076,214.25852768435652
1077,221.92543012787246
1078,207.35155652956928
1079,180.60386608997123
1080,151.70031748627753
1081,127.10786887774157
1082,108.66947791106577
1083,97.92510172578477
1084,96.01869695965433
1085,102.5772197540391
1086,116.86462575929636
1087,137.57487014015715
1088,155.8739075811127
1089,157.6006922917877
1090,128.57017801231996
1091,67.20731801874263
1092,-3.7699348716541863
1093,-58.85562829495029
1094,-77.23081033522612
1095,-65.28052951920745
1096,-39.17283481089271
1097,-14.79477560621308
1098,-1.0574017276712766
1099,0.00023658100599277532
1100,-13.367911339796592
1101,-38.6408965602368
1102,-61.93077055568483
1103,-67.47758520139632
1104,-42.787392767191704
1105,-1.8102459121291758
1106,28.716802320795978
1107,22.638698509961614
1108,-21.43261113958215
1109,-73.72318079082106
1110,-102.45506496948747
1111,-86.66531855878657
1112,-42.12999679411769
1113,7.582844742186353
1114,40.10315012612318
1115,45.607863097259724
1116,21.635927063987765
1117,-33.94771489125014
1118,-111.04312000673144
1119,-181.46934583623897
1120,-215.57545024384763
1121,-194.15449139872726
1122,-139.23552776995166
1123,-83.02661812131646
1124,-55.38882150616064
1125,-58.21819726221929
1126,-75.14480500645186
1127,-89.62370462991566
1128,-94.88195629261736
1129,-99.73862041840675
1130,-114.4087576898537
1131,-144.85342904315075
1132,-179.33269566302442
1133,-201.4936189776554
1134,-196.6952606536097
1135,-171.09168259078524
1136,-144.67894691736547
1137,-137.48011598478843
1138,-154.46025236272726
1139,-176.82441883407955
1140,-183.66567838997162
1141,-162.28609422478075
1142,-132.66772973115894
1143,-122.93564849507675
1144,-157.96791429088262
1145,-226.58359107636988
1146,-295.1607429878595
1147,-330.13343433529553
1148,-318.1717295973567
1149,-274.9706934165806
1150,-218.48039059450093
1151,-164.05688608680248
1152,-118.05224499848373
1153,-84.88153257904469
1154,-68.48581421767813
1155,-68.50015543848895
1156,-82.27162189570754
1157,-107.00927936894914
1158,-136.16719375845605
1159,-158.70343108038287
1160,-163.31205746207524
1161,-144.67313913738417
1162,-113.92574244198295
1163,-85.01393380870195
1164,-70.2097797628885
1165,-70.39134691777326
1166,-81.69570196986206
1167,-100.07691169433019
1168,-118.1390429404546
1169,-125.38916262704697
1170,-111.28533773790969
1171,-75.37363531730898
1172,-37.47712246546598
1173,-19.85686633406931
1174,-38.14993412179683
1175,-76.98039306985629
1176,-111.90631045755981
1177,-120.5597535978959
1178,-105.25478983313224
1179,-84.42448653043084
1180,-76.47291107749152
1181,-85.68413087820318
1182,-96.99421334832005
1183,-93.9352259111538
1184,-66.61323599329353
1185,-24.60931102032555
1186,18.89348158739267
1187,52.50107441898581
1188,77.03440007724566
1189,98.41439118283506
1190,122.24998037844762
1191,148.116100332958
1192,170.36168374554381
1193,183.1866633498057
1194,183.8169719178395
1195,174.82954226430502
1196,159.3393072504732
1197,138.74419978825426
1198,107.96215284418668
1199,60.381099443431594
1200,-7.749027326271062
1201,-76.03729431067222
1202,-111.96176828508578
1203,-84.6615159504945
1204,-3.8876039296837916
1205,80.13190123661207
1206,115.62793309354765
1207,81.55442527596097
1208,17.082311512167507
1209,-31.601474372277153
1210,-31.580998450845073
1211,-3.742326692306051
1212,17.3944750429564
1213,1.6273410066223732
1214,-43.300794433914234
1215,-90.02099679192361
1216,-111.92633145772743
1217,-103.67586369513083
1218,-80.94765863785688
1219,-60.26178128601896
1220,-51.070296502602105
1221,-49.6192690099906
1222,-50.69776338648717
1223,-48.36484406289219
1224,-33.98657531907247
1225,1.6919787194156015
1226,64.24975408469982
1227,131.44268696994277
1228,168.31371373264483
1229,142.62977089794913
1230,70.99879516190958
1231,11.449723394735884
1232,22.53149264401145
1233,113.66904013789645
1234,218.7763032882931
1235,265.33621969399337
1236,212.76272714380775
1237,111.82976361964757
1238,29.559267299610838
1239,20.72317656102132
1240,72.21142998345385
1241,147.62596635172486
1242,212.36872465886972
1243,252.58564410908184
1244,267.4266641206368
1245,256.4687243287817
1246,225.50676458861017
1247,187.1617249778983
1248,154.38854579992767
1249,136.82916758626652
1250,137.77653109954917
1251,159.80157733620035
1252,202.01424752915682
1253,251.51848315055395
1254,292.8192259143807
1255,312.37941777911783
1256,309.2480009503497
1257,287.4319178833357
1258,251.37511128557435
1259,210.80052411932775
1260,179.03409960412228
1261,169.11178121922967
1262,183.28351270610983
1263,211.52023807083515
1264,243.15790158648815
1265,271.4594477955234
1266,297.155821512114
1267,321.81296782446407
1268,344.915832097101
1269,359.1813599731304
1270,355.93949737646744
1271,329.03719051405096
1272,286.61738587801756
1273,241.88603024785243
1274,207.4230706925191
1275,189.22245457255121
1276,189.4091295421258
1277,209.6290435511046
1278,242.65814484705152
1279,272.8893819772147
1280,284.59970379049264
1281,274.103059439366
1282,255.7233983817987
1283,245.25367038312288
1284,252.51582551787578
1285,272.9868141716406
1286,300.03758704282154
1287,327.2800951444233
1288,349.29228980579137
1289,360.8881226743106
1290,358.4715457171005
1291,348.82951122266695
1292,342.8979718025321
1293,350.4738803928258
1294,368.34719025586855
1295,385.17085498171036
1296,389.99382848964797
1297,383.042065029711
1298,375.1745191841237
1299,377.5221458687374
1300,393.44590033443455
1301,415.197738168501
1302,434.19561529598286
1303,444.51748798099743
1304,446.0213128280302
1305,439.31304678319793
1306,425.34564713547934
1307,406.1990715179327
1308,384.19727790886736
1309,361.77022463299454
1310,341.90187036255975
1311,327.75817411842763
1312,321.8420952711531
1313,321.365593542022
1314,321.00462900405546
1315,315.5441620830061
1316,301.4701535582926
1317,276.44256456394214
1318,238.6053565894863
1319,196.5574914808194
1320,169.298931441057
1321,175.89463903133674
1322,216.69457717161094
1323,265.7217091413995
1324,295.1039985805237
1325,289.69140948980476
1326,259.68790623173845
1327,218.30845353113818
1328,176.64801647575678
1329,139.7905605168653
1330,111.76205146982738
1331,95.7774555146234
1332,91.72673919635872
1333,98.65486942573625
1334,114.72281347951048
1335,132.9615390009103
1336,144.5340140000244
1337,141.89820685416998
1338,128.50908630823596
1339,113.34062147498025
1340,104.67878183532503
1341,101.5845372386002
1342,96.85885790277189
1343,83.68771441464378
1344,65.34007773002577
1345,54.193919173875656
1346,62.66521044041383
1347,93.28392359321515
1348,136.78203106526507
1349,183.16350565898938
1350,220.84332054626702
1351,235.74144926839563
1352,213.63586573605517
1353,152.52254422922215
1354,75.42045939705895
1355,8.408586257796742
1356,-29.175099801436772
1357,-36.120623024802626
1358,-14.218007287957334
1359,28.98672390169486
1360,65.72454740474313
1361,63.761440449467045
1362,3.910380631519729
1363,-72.9086540864264
1364,-108.48068537505333
1365,-57.9767345388027
1366,43.235177483695225
1367,130.08303011916178
1368,146.78780315919084
1369,110.44247675973202
1370,72.24303144055648
1371,78.05744808469444
1372,117.39970793784596
1373,146.97779260775496
1374,126.81868406357898
1375,67.20136463520794
1376,14.26681701257803
1377,12.564024244937173
1378,63.45396974011601
1379,130.9626372637331
1380,178.74501093840536
1381,192.2290752429226
1382,179.4358150113867
1383,149.41321543234517
1384,110.21026204787631
1385,68.64294075267117
1386,31.382237793061904
1387,1.4061397660607327
1388,-23.692366381664215
1389,-46.70729335480701
1390,-66.71765351048816
1391,-76.43445885933488
1392,-67.98472106659028
1393,-40.29945145324109
1394,-5.9046609971819635
1395,21.055639665611125
1396,32.66144023986362
1397,35.44973076977476
1398,38.017501637767054
1399,44.64374356319149
1400,48.026447601035215
1401,38.935605140581174
1402,14.474207904057948
1403,-8.726752054734789
1404,-10.273282351842681
1405,20.33260972543485
1406,58.794917217074726
1407,73.15863348886887
1408,43.739752230919294
1409,-0.36973254388612986
1410,-17.948826501410622
1411,18.8734650121487
1412,78.47413696867807
1413,112.68518465652778
1414,86.55260367886967
1415,30.505389952041696
1416,-4.8684602961502605
1417,19.96504947187259
1418,84.32591610172221
1419,147.17713674529477
1420,174.92370885898617
1421,178.23663020190088
1422,184.02889883402986
1423,213.90751311439635
1424,255.25047169920708
1425,281.9437735399488
1426,273.30541788148366
1427,246.22240426012195
1428,233.32673250166044
1429,262.59040271941467
1430,327.4774153122162
1431,406.19077096239926
1432,478.5044706337576
1433,536.8155155694894
1434,579.3439072901092
1435,604.9866475913504
1436,617.780738542042
1437,624.2241824819612
1438,630.0219820196735
1439,634.2121400303467
1440,632.5726596535451
1441,621.7715442910048
1442,606.1897976043892
1443,594.0534235130253
1444,593.0094261916165
1445,605.5368100679407
1446,631.5265798205246
1447,670.1437403762993
1448,714.6722969082466
1449,755.429254833004
1450,782.7976198084752
1451,787.950397731408
1452,762.4495947349542
1453,700.5602171862156
1454,618.6752716837673
1455,544.0137650551669
1456,500.7327043544419
1457,487.9500968595621
1458,492.86295006989076
1459,502.4792717036189
1460,502.97306969519195
1461,480.1313521926959
1462,424.0591275552506
1463,356.17440435037497
1464,311.67019135133705
1465,318.1264975344793
1466,350.72433207654376
1467,362.79270435196395
1468,316.3366239301504
1469,229.14410057276655
1470,140.84314423096112
1471,84.82776504261801
1472,57.32897332957327
1473,41.04577959481412
1474,22.209194519668927
1475,6.276228960983644
1476,5.149893948281715
1477,25.462200680893147
1478,47.9511605251073
1479,45.417785011260094
1480,-1.6579141691454424
1481,-78.78492516636015
1482,-162.07323597532286
1483,-229.74783443859724
1484,-268.49270824932864
1485,-267.0588449542147
1486,-223.1442319564885
1487,-165.7088565189124
1488,-130.56870576679376
1489,-138.09476669099786
1490,-161.12102615098775
1491,-163.38747087787578
1492,-124.60808747747524
1493,-67.41186243337415
1494,-21.533782110021093
1495,-6.616832755819814
1496,-18.787000506236836
1497,-50.807271386916
1498,-93.82263131681339
1499,-135.72206611133424
1500,-164.04456148548252
1501,-170.61610305702925
1502,-154.66767634968346
1503,-116.38826679626436
1504,-68.06485974191128
1505,-39.787440447275
1506,-62.28799409173007
1507,-136.95450577660176
1508,-228.46496052839848
1509,-299.8433433020382
1510,-332.0416389841221
1511,-324.9338323961647
1512,-280.13490829788043
1513,-214.6738513904511
1514,-159.2096463198095
1515,-142.39527767992877
1516,-157.94973001612107
1517,-173.9599878283434
1518,-161.12703557451732
1519,-124.42885767383359
1520,-89.49243851009669
1521,-78.83876243504892
1522,-87.17381377171023
1523,-95.61657681772795
1524,-89.64003584873262
1525,-82.86817512168545
1526,-99.90697887825081
1527,-157.13043134816508
1528,-230.42451675260872
1529,-283.27321930758626
1530,-289.88652322731014
1531,-265.1284127275894
1532,-233.46887202922608
1533,-210.68188536140406
1534,-187.23343696510256
1535,-149.0825110964861
1536,-95.79009203032365
1537,-57.26416406339649
1538,-67.14171151790833
1539,-125.92971874490831
1540,-177.24317012770553
1541,-160.47005008529595
1542,-73.1403430757764
1543,10.339966400213598
1544,13.258893796085431
1545,-69.14954548414426
1546,-168.63233608927385
1547,-217.30946272435085
1548,-203.16491015410338
1549,-157.3526632063631
1550,-110.55470677551511
1551,-77.00802582590768
1552,-61.40260539529936
1553,-66.82443059828438
1554,-85.89548662971902
1555,-106.74475876815904
1556,-118.53123237927502
1557,-115.63989291929101
1558,-94.08272593840411
1559,-54.6247170841998
1560,-14.700852105082049
1561,4.627883146312342
1562,-4.125497290295243
1563,-14.858979486245516
1564,3.3814503726571274
1565,57.34880598273321
1566,111.08810091903433
1567,124.98134863194537
1568,86.25556244378095
1569,16.08775554541262
1570,-62.02905900712449
1571,-122.43686829600665
1572,-137.51265954499377
1573,-83.71842012280194
1574,14.216862453544309
1575,100.56620051534719
1576,126.66660623889584
1577,99.80309164211121
1578,52.19266858122592
1579,12.145348747443677
1580,-11.495856336374345
1581,-15.721935319024851
1582,-1.2328770242720566
1583,19.549329545869114
1584,31.942695207823817
1585,33.13923059320041
1586,45.336946145502225
1587,93.34085211687398
1588,174.11895856485444
1589,245.08827534912598
1590,262.38481212829083
1591,220.6685783566445
1592,151.71058328097115
1593,87.32883593734005
1594,41.97634514791844
1595,18.86311951780408
1596,19.137167431845228
1597,30.944497051501457
1598,36.90211631169768
1599,26.183032917705532
1600,16.23525434201656
1601,32.07778782125388
1602,85.92864035307957
1603,155.72481869311923
1604,213.8583293519132
1605,243.6891785918624
1606,247.24537242420138
1607,228.83091660599166
1608,205.46281663710943
1609,208.08107775727512
1610,265.0387049430783
1611,360.7727029050293
1612,448.7580760846249
1613,487.1108286514336
1614,472.85596450018875
1615,420.214487247913
1616,343.30840023105065
1617,255.42170650261687
1618,169.64340882937813
1619,102.05850968903269
1620,76.27601126742957
1621,116.52591545578889
1622,213.1372238479571
1623,304.2759377376715
1624,326.555058115845
1625,279.0995856678901
1626,220.52552077103155
1627,206.3778634916689
1628,236.32661358274254
1629,277.4917704811369
1630,302.4673333050923
1631,316.471300851641
1632,335.91467159407875
1633,368.7814436794415
1634,396.7996149260216
1635,396.7861828208943
1636,363.9301445174806
1637,326.36149683312397
1638,314.77623624670105
1639,336.2473588962466
1640,372.69786057661895
1641,406.20073673717525
1642,434.5249824794837
1643,465.29959255505673
1644,502.91056136311363
1645,532.0858829483741
1646,530.5095509988669
1647,490.7825588437772
1648,451.965899451322
1649,461.7675654266468
1650,534.5335490097532
1651,626.9028420734749
1652,691.1594361214356
1653,712.2153222860952
1654,707.2844913267782
1655,692.8309336277734
1656,664.5356391964169
1657,606.3845976612574
1658,510.57979827021336
1659,409.9492298887826
1660,349.65588099828256
1661,352.3157396941133
1662,383.2347936840579
1663,399.1190302866262
1664,374.95543642942084
1665,311.0049986475351
1666,211.27670308199595
1667,107.85753547823515
1668,54.348481184597404
1669,93.41552515087824
1670,190.1186519269113
1671,277.51784566117385
1672,304.9470900994447
1673,276.5843685834898
1674,208.14366404978864
1675,124.75295902829566
1676,67.70323564124647
1677,77.12547560198618
1678,136.65866021386137
1679,177.79077036912986
1680,140.78878654791788
1681,54.209688817217284
1682,-10.311543170078039
1683,-4.020930176087859
1684,32.04650662115819
1685,35.452745626895194
1686,-18.26523517118312
1687,-81.01045820368199
1688,-98.60594632021002
1689,-65.59972279006342
1690,-24.81081130284474
1691,-16.86123596905054
1692,-45.19102132060743
1693,-94.2931923113756
1694,-149.0207743175888
1695,-196.3227931382753
1696,-223.6622749956041
1697,-220.7162465352012
1698,-181.3457348264301
1699,-101.0577673625985
1700,-0.33137206113588036
1701,76.68442273627079
1702,92.32958826361028
1703,67.67809533051059
1704,51.5309143222521
1705,76.42201519984792
1706,117.36936750014866
1707,137.1519403360171
1708,122.57270239653462
1709,99.8786219472795
1710,97.32566683064306
1711,115.62980446619349
1712,133.24700185110578
1713,130.93122556062826
1714,107.9634417486186
1715,70.770616148111
1716,29.734714071964845
1717,5.9837004135415555
1718,21.81753964744803
1719,73.41319583033328
1720,123.48763260174655
1721,136.14981318503123
1722,115.09970038829852
1723,88.33925660544628
1724,77.98844381723029
1725,78.56922359239888
1726,77.08555708888798
1727,70.04740505506561
1728,72.25672783103983
1729,99.51348535003217
1730,146.74963713979196
1731,190.18714232409184
1732,208.76195962426664
1733,204.1900473608257
1734,187.49836345511267
1735,167.57386543104167
1736,147.2965104168843
1737,128.56325514711898
1738,114.38005596435596
1739,109.11486882130794
1740,116.74064928282951
1741,136.5813525280364
1742,165.37693335246695
1743,196.09334617031345
1744,207.7645450167356
1745,176.59348355021848
1746,107.61411505500291
1747,51.31839244359526
1748,57.7962682593261
1749,118.10969467898667
1750,181.75062351553152
1751,207.55900622084482
1752,203.16179388858563
1753,190.5239372570959
1754,177.26438671237065
1755,143.55009229111965
1756,68.87100368387655
1757,-25.872929761812884
1758,-85.30675903811698
1759,-66.62953547359211
1760,-4.004310729783356
1761,41.64686320226701
1762,37.701934005570365
1763,13.491849040805391
1764,5.046555350037124
1765,17.695999660472808
1766,28.418128388325385
1767,17.855887642737798
1768,-3.79277677022219
1769,-15.056919343473055
1770,-6.5235948647714395
1771,2.976141587518214
1772,-8.198765351252405
1773,-34.72537132764319
1774,-45.29073226564469
1775,-14.400904362133588
1776,39.34005591775258
1777,80.08109184532532
1778,86.9631464331278
1779,74.3761624398112
1780,61.72108237508746
1781,67.27284850475371
1782,108.24340285581366
1783,194.3046872216828
1784,289.5326431674557
1785,340.9432120352885
1786,320.32433494984525
1787,253.95295282382813
1788,174.68200636360416
1789,102.38143607491565
1790,45.59718226867335
1791,10.059185066829741
1792,-11.719615591635375
1793,-31.595279944679532
1794,-51.297868401034066
1795,-53.01444153397824
1796,-19.200060075018882
1797,30.65221509253115
1798,48.976322940045975
1799,3.150202300195815
1800,-69.13820812638642
