800,141.39886388592095
801,149.1739822984855
802,156.92871066252155
803,163.8472088406761
804,168.4096367434122
805,169.07615432848252
806,164.9399216003476
807,157.2260986096062
808,147.62784545237082
809,137.80732226968757
810,128.4346892468675
811,118.92010661286622
812,108.60473463959715
813,97.15473364126046
814,86.8122639736448
815,81.03048603340358
816,83.25956025733649
817,94.011647121637
818,106.36790714113158
819,112.2465008684976
820,104.0375888934741
821,83.31333184205687
822,60.11389037567096
823,44.79942519032738
824,45.612097015769905
825,59.81906661461653
826,81.1034947814569
827,103.1625423419664
828,120.1963701519926
829,127.29213909661667
830,119.6150100892155
831,93.3541440705103
832,55.8677020075811
833,21.433844892902925
834,4.423733743315097
835,13.835529599034999
836,41.347393522617494
837,75.15248659790996
838,103.62996992900844
839,119.9380046391725
840,122.43375186976482
841,109.7453727791326
842,81.72502854151026
843,45.60488034589616
844,11.367089394916547
845,-11.042183096318695
846,-16.475775901393718
847,-8.681527783737693
848,7.621722502179182
849,28.02613620962984
850,51.63787459844934
851,79.80009893379065
852,113.89497048488192
853,152.5346505238067
854,185.57430032420962
855,201.16008116005105
856,188.02715430429998
857,149.16468102765793
858,102.13982259723161
859,65.17274027523672
860,52.58259531764634
861,58.011548972852324
862,68.2957624803239
863,70.40639706922775
864,60.33161395706156
865,48.32357434826736
866,45.88943943281993
867,62.77437038483731
868,93.3035283611589
869,123.82807449989195
870,140.64916991900463
871,136.8019757148486
872,121.46565296072004
873,106.19136270536728
874,101.78626597152288
875,108.0935237544054
876,116.59429702021953
877,118.54974670465526
878,108.36603371135061
879,91.70731891036121
880,76.77376313663626
881,71.49052718845633
882,76.65477182587529
883,85.39965776916142
884,90.47534569719937
885,86.54999624592892
886,78.30977000672101
887,73.69982752481337
888,80.5443292976488
889,100.1874357732886
890,124.47130734877646
891,144.47010436847813
892,152.4599871224582
893,149.52211584481847
894,140.68865071202345
895,131.0077518412363
896,124.85457928864344
897,125.30029304775053
898,135.26705304769894
899,156.83701915156234
900,183.44935115462067
901,203.4812087826649
902,205.2717516902485
903,184.9411394589497
904,158.25953159566598
905,144.02308753081525
906,159.33396661662118
907,197.7003281253219
908,235.2463312474174
909,247.68213508988447
910,221.73789867439154
911,178.84378093552186
912,147.25994071895002
913,153.83653677966868
914,198.4037277801508
915,256.7616722885559
916,303.8605287768878
917,320.2604556191818
918,308.0116110896615
919,274.28415336089347
920,226.388240501954
921,174.94403047656124
922,133.94168114122294
923,117.56135024337709
924,135.53319541950805
925,177.77737419329242
926,228.61404397369915
927,272.5233620531035
928,298.90548560541174
929,302.91057168415136
930,280.0287772205793
931,228.98025902175686
932,164.96517376866905
933,108.42367801426553
934,79.39592818158599
935,83.18208056180083
936,106.22229131229687
937,133.7267164547393
938,152.84551187312536
939,161.5088333118547
940,161.37683637376904
941,154.09967651820807
942,141.07750905905232
943,123.41048916276122
944,102.14877184640682
945,79.06251197572055
946,59.911864263092866
947,51.886983265638264
948,61.96802338317866
949,86.11513885628847
950,105.05848376428912
951,98.36821202328247
952,51.6644773841399
953,-14.062566569493356
954,-64.96276642317207
955,-67.79596893368034
956,-17.942021031023614
957,49.70923017956375
958,97.37793741560927
959,94.77425321539522
960,54.528329935927104
961,4.40031975094098
962,-28.21962535115199
963,-33.76135356924351
964,-26.254713291587905
965,-21.359553097807293
966,-31.595721760946617
967,-52.54306824947162
968,-74.15144172931832
969,-86.55069156593527
970,-87.45066732630585
971,-83.94121878099577
972,-83.66219590618675
973,-93.07344888573243
974,-112.82482811316731
975,-141.81618419379447
976,-178.77736794670818
977,-218.31823040683958
978,-250.45862282700364
979,-264.92839667997214
980,-254.50740366048922
981,-224.85549568735223
982,-185.0425249054424
983,-144.09834368779048
984,-110.17280463763382
985,-90.52576059045896
986,-92.38706461606489
987,-118.37657002061314
988,-154.57413034869387
989,-183.35959938537053
990,-187.92283115824648
991,-166.21367993952117
992,-128.5120002480253
993,-85.487646851323
994,-46.51047476772146
995,-17.070339268366297
996,-1.9570958792719466
997,-5.350600383388155
998,-23.770708822661618
999,-48.42727750008817
1000,-70.42016298176532
1001,-83.52922209895223
1002,-87.78431195011945
1003,-84.18528990301093
1004,-73.69201359668841
1005,-57.68434094358963
1006,-40.252130131581
1007,-26.665239626001494
1008,-22.093528171722937
1009,-29.3968547951863
1010,-48.02507880646044
1011,-77.21805980128192
1012,-114.56565766310632
1013,-149.04773256513909
1014,-166.68414497239428
1015,-154.03475564372457
1016,-114.20942563386416
1017,-69.76801629546571
1018,-44.42038928114016
1019,-54.85640654547569
1020,-88.17593034709898
1021,-123.6788232506733
1022,-141.29494812895246
1023,-134.75416816479083
1024,-110.49634685317324
1025,-75.47134800324238
1026,-36.689035740315376
1027,-1.4392745078930602
1028,22.918070930310932
1029,29.59313548836508
1030,18.866053756117253
1031,-4.003040002835405
1032,-33.63401185312978
1033,-64.22672818965293
1034,-89.0510557395246
1035,-101.22686156412237
1036,-94.77401306104548
1037,-71.47237796613263
1038,-37.021824355417266
1039,2.817779352852085
1040,42.316564396251124
1041,75.66466166619648
1042,97.07220170597247
1043,101.93931470875214
1044,92.33613051564316
1045,72.59277861370356
1046,47.14938813399749
1047,22.206087849626783
1048,5.923006173787144
1049,6.550271157801035
1050,27.508010489187654
1051,55.19635148971611
1052,72.20542111345821
1053,62.65534594485871
1054,31.446252196818023
1055,-1.4617342912570166
1056,-15.808488055372436
1057,-1.5938840088438155
1058,28.682202555773983
1059,59.5498959647648
1060,77.02932016137493
1061,78.5605987038798
1062,66.77385476372547
1063,44.399211123596615
1064,18.136790175558417
1065,0.026713919169196743
1066,2.44910395959414
1067,32.874081505735376
1068,77.8117673683646
1069,118.28228195826705
1070,136.34574528437952
1071,131.46227695192465
1072,117.14199616059705
1073,107.27502170267326
1074,108.4014719612187
1075,109.8514649082299
1076,98.46511810281481
1077,63.95254868937627
1078,17.45387339579065
1079,-19.96079146840566
1080,-27.64133001380651
1081,-2.3876267729483516
1082,36.31043329789827
1083,67.43296481694779
1084,75.6800819751079
1085,67.77189853421805
1086,55.67852782527552
1087,50.39008274664411
1088,49.95667576235428
1089,43.23841890028598
1090,18.98542375047691
1091,-23.63219853665396
1092,-65.2843372520183
1093,-84.3508821295909
1094,-65.50172334813578
1095,-29.766751532912167
1096,-11.295857757379054
1097,-42.60893354491964
1098,-118.31587087049957
1099,-195.74656216238327
1100,-230.64090030380248
1101,-198.2387786346335
1102,-125.76009095307018
1103,-48.974731517264445
1104,-0.21259504700901743
1105,16.616423274637782
1106,11.242427799707002
1107,-6.534477586328649
1108,-29.45418946614882
1109,-53.426604892238174
1110,-74.55162138847481
1111,-89.96913695174044
1112,-100.24905005352593
1113,-106.71125964150451
1114,-110.70566514112579
1115,-113.89216645718625
1116,-118.15066397539704
1117,-125.321058563939
1118,-135.66325157502433
1119,-147.15714484642376
1120,-157.5926407030238
1121,-165.0796419583421
1122,-169.14805191604682
1123,-169.6377743714711
1124,-166.60871361313366
1125,-162.480774424208
1126,-161.26386208403528
1127,-166.9378823695879
1128,-180.6227415569556
1129,-198.88834642280744
1130,-217.88460424583536
1131,-233.5314228082225
1132,-240.68871039706391
1133,-233.97637580581977
1134,-208.88432833570732
1135,-171.60247779715246
1136,-135.4707345111692
1137,-113.84900931076481
1138,-112.60721354233283
1139,-125.83525906702926
1140,-146.5730582621436
1141,-168.82052402247064
1142,-190.37756976164928
1143,-210.04410941352035
1144,-226.54005743346534
1145,-238.24532879971775
1146,-243.31983901470085
1147,-239.98350410632702
1148,-229.99624062930525
1149,-220.1279656664192
1150,-217.56859682982576
1151,-226.0580522623186
1152,-237.38625063859763
1153,-240.76311116652323
1154,-227.20855358835615
1155,-203.99249818200224
1156,-187.1048657622323
1157,-192.10557768190665
1158,-218.30455583317416
1159,-245.58172264868335
1160,-252.63700110275386
1161,-228.12031471257615
1162,-187.99158753936536
1163,-152.88074418952965
1164,-140.27770981581125
1165,-146.24241011844788
1166,-157.96477134627276
1167,-163.08472029786935
1168,-159.25218432265137
1169,-153.28709132198856
1170,-152.35936975027835
1171,-158.81894861604633
1172,-165.3157574830002
1173,-163.30972647110138
1174,-147.0507862576087
1175,-123.52886807812865
1176,-103.5139037276349
1177,-96.89582556150162
1178,-103.57456649650157
1179,-116.8900600118086
1180,-130.06224014999316
1181,-137.73104151799816
1182,-136.38639928810335
1183,-122.63824919888793
1184,-96.61652755617615
1185,-68.81117123398326
1186,-51.642117675421105
1187,-55.20930489363673
1188,-73.99267147270803
1189,-95.96215656853201
1190,-109.5376999097225
1191,-112.11924179846574
1192,-108.92672311141177
1193,-105.39008530047613
1194,-102.67927039374263
1195,-94.42422099624127
1196,-73.49488029079657
1197,-38.23119203882197
1198,-7.633100581120743
1199,-5.530550838673662
1200,-50.74348831340831
1201,-119.66185908896296
1202,-167.32560983145595
1203,-150.60468779019175
1204,-72.59904079842818
1205,17.551382725931035
1206,68.89663377961188
1207,57.04676277329054
1208,9.731819530892608
1209,-39.28814671107466
1210,-63.35308730417455
1211,-64.69295418870752
1212,-52.907699894336474
1213,-37.15727754073123
1214,-23.031640838156818
1215,-14.280744088107895
1216,-14.45454218388113
1217,-22.842990611166897
1218,-34.55604544861126
1219,-44.523663368381676
1220,-49.195801636704346
1221,-47.842418114409156
1222,-40.0234712574329
1223,-26.068920117359085
1224,-9.018724341887719
1225,7.457155824657093
1226,19.498759540867468
1227,21.926125367775967
1228,8.949291268412708
1229,-24.371705392635704
1230,-68.04682784965007
1231,-99.43603993620673
1232,-95.80930608556082
1233,-53.746591331049785
1234,0.45213869352664915
1235,37.986917753552916
1236,41.70777901322799
1237,27.884755035236594
1238,18.717877780405615
1239,31.68717860740071
1240,58.092688272416126
1241,80.23443692888213
1242,82.43245412717079
1243,71.72676881435291
1244,69.42740933393543
1245,96.1744034255953
1246,148.53777822498523
1247,196.59756026347532
1248,209.28377546799675
1249,177.54644916079633
1250,134.70560605929677
1251,118.88127027590781
1252,153.08346531787174
1253,208.08221408713143
1254,243.32753888018487
1255,225.52946138799416
1256,167.96800269584674
1257,102.26318328329216
1258,58.42502302403955
1259,44.97354118592193
1260,55.798756430802314
1261,84.47068681457677
1262,122.28934978711004
1263,157.98476219224358
1264,180.2369402677832
1265,185.31589964551313
1266,183.9116553512231
1267,188.35422180474052
1268,205.68361281997932
1269,225.76984160500797
1270,234.96292076212558
1271,222.5628622879467
1272,194.5596775735048
1273,162.89337740436713
1274,138.75397196076847
1275,125.73147081774914
1276,122.91588294530084
1277,129.15721670855237
1278,139.49547986794096
1279,145.30067957939718
1280,137.99282239456807
1281,117.33191426103986
1282,95.54796052255006
1283,85.91096591926544
1284,96.2109345880126
1285,121.067870062574
1286,153.18177527396438
1287,185.2926525507355
1288,210.36050361928937
1289,221.37532960421777
1290,213.257131028613
1291,193.18590781445528
1292,173.3016592829572
1293,164.94438415496734
1294,170.33408055133987
1295,185.98074599336178
1296,208.39437740317408
1297,236.22497110420045
1298,270.12252282158624
1299,310.62702768269446
1300,349.6284802175487
1301,366.67687435933476
1302,340.42220344491216
1303,268.05446021532225
1304,186.73363681631417
1305,138.83972479891418
1306,151.1727151199466
1307,198.83259814264056
1308,246.20936363719375
1309,263.7830007813809
1310,253.3934981611692
1311,226.88084377133055
1312,196.27502501610434
1313,175.00602870983857
1314,177.17384107765974
1315,214.97844775614976
1316,275.3398337940562
1317,327.5979836529914
1318,341.8728812081572
1319,315.984509749087
1320,275.2328519803923
1321,245.7978900225262
1322,237.79960541257424
1323,238.78797910503636
1324,234.6529914726325
1325,220.00462230713674
1326,206.79285082020397
1327,209.03765564420974
1328,233.67901483312744
1329,267.66690586340883
1330,294.40130563485036
1331,301.0221904715272
1332,289.8895361226914
1333,267.24331776371764
1334,240.32350999703885
1335,222.04008685311965
1336,227.41302179142258
1337,268.43228770139467
1338,331.66785690347933
1339,390.9097011501399
1340,421.3877916268648
1341,418.00209895323496
1342,388.97259318397846
1343,342.9792438100503
1344,292.44201975969736
1345,253.1108893995879
1346,240.46582053591374
1347,257.0467804155196
1348,289.9337357270524
1349,325.31665260211776
1350,352.7554966164462
1351,367.02023279109744
1352,363.39082559364033
1353,343.21723893937997
1354,320.31943619258345
1355,310.0373801677306
1356,318.9810331307599
1357,330.47035680034423
1358,323.9053123491867
1359,287.6258604053037
1360,241.40196105335417
1361,211.9235738359621
1362,218.5706577550627
1363,246.98317127324844
1364,273.11107231516144
1365,277.3543182688554
1366,266.8528659872172
1367,258.6566717893638
1368,267.1456914620758
1369,285.82988026124804
1370,298.459192913333
1371,290.92358361683546
1372,271.703006043761
1373,262.4174133411507
1374,282.64675813257054
1375,322.37099251965446
1376,350.47006808364495
1377,337.0239358869421
1378,282.94254647468006
1379,215.73584987631511
1380,163.22379560721492
1381,138.2063326702846
1382,137.92340955758846
1383,158.7849742519902
1384,193.0109742288114
1385,227.70135645750634
1386,249.72606740334595
1387,252.32505302910795
1388,238.0082587968045
1389,210.10562966939688
1390,177.24711011255204
1391,157.14264409638054
1392,168.34217509723567
1393,213.99564609946538
1394,266.45299959722433
1395,294.46417759630276
1396,282.96912161593355
1397,254.6277726906501
1398,237.4900713721181
1399,245.66595773104382
1400,255.99537135901846
1401,239.07825137045256
1402,181.03453640446423
1403,115.85416462681314
1404,86.71707373185745
1405,121.81320094447983
1406,196.43248302208667
1407,274.274856256583
1408,324.5602564763594
1409,338.56861904832294
1410,313.0398788799066
1411,250.49397042113196
1412,179.04082766664033
1413,133.96038415778276
1414,141.82257298468903
1415,186.20732678838067
1416,237.4245777628712
1417,269.2642576572962
1418,274.56629777804847
1419,252.6006289909492
1420,206.7071817233973
1421,164.44588596656286
1422,162.21667127758883
1423,227.4994667817864
1424,330.29420117487643
1425,417.9708027252236
1426,445.38919927608003
1427,419.7093182478766
1428,370.00108664048093
1429,323.79443103549966
1430,296.9192775986012
1431,299.98555208182734
1432,341.06317982592736
1433,408.77208576273006
1434,482.77219441748275
1435,543.7834299112601
1436,581.565715963332
1437,590.2389758935951
1438,566.353132624974
1439,526.3981086858785
1440,496.6438262126321
1441,499.6902069519565
1442,526.9171722634401
1443,554.0746431220232
1444,560.4125401205201
1445,555.7007834721317
1446,565.0292930129672
1447,608.6179882046181
1448,664.3867881366987
1449,689.0156115294249
1450,646.2043767362175
1451,559.973001746288
1452,484.37140418726085
1453,466.37950132781225
1454,492.92721008031185
1455,521.6044470034703
1456,514.8111283050366
1457,474.89716984445295
1458,423.3124871355776
1459,379.96699534939034
1460,352.41060931672655
1461,342.4932435310038
1462,349.8448121509937
1463,358.0352290035771
1464,343.62440758653975
1465,288.47226107135975
1466,211.24870230601482
1467,145.92364381780862
1468,120.66699781621355
1469,126.1686761957153
1470,138.41859053867665
1471,136.81665211821382
1472,120.97277190109526
1473,97.85686055063707
1474,74.60882842963292
1475,59.43858560326771
1476,60.856041842089326
1477,82.79110662493076
1478,106.59368914192783
1479,106.67369829746531
1480,65.50104271319287
1481,1.1356307310361444
1482,-58.512629583765374
1483,-90.50383043964575
1484,-91.60806431564197
1485,-63.4354239583281
1486,-11.796002378736375
1487,42.85010715071985
1488,76.83281109938252
1489,75.2120156814326
1490,49.937626859054944
1491,18.109550345554453
1492,-6.642308391457846
1493,-20.068044126917812
1494,-19.457751875102986
1495,-6.61152688645052
1496,6.2405353556696355
1497,5.388339138167794
1498,-14.708211478529847
1499,-43.2792126572167
1500,-67.67476078066102
1501,-83.3349524483092
1502,-99.57988447301068
1503,-126.89965387772281
1504,-161.53435789216746
1505,-178.8240939495281
1506,-153.2489596830983
1507,-89.78905292292438
1508,-31.584471692460284
1509,-22.44531420515159
1510,-61.02167886107236
1511,-98.22366424351094
1512,-85.44136911554597
1513,-26.05489241662326
1514,30.59566674089365
1515,37.3102090751654
1516,-0.7313648616327555
1517,-39.95915467983832
1518,-40.68326014882041
1519,-14.503781193450777
1520,-3.890817890602193
1521,-44.4244704656121
1522,-111.64483928873051
1523,-151.75202487157003
1524,-122.02612786355166
1525,-51.41724904827606
1526,3.204510660005326
1527,-3.1409497799468227
1528,-56.663731532773454
1529,-125.62393588288069
1530,-182.1916642307824
1531,-213.52701808945676
1532,-210.3300990806838
1533,-172.16100893135808
1534,-124.33984946978126
1535,-96.81672262198481
1536,-105.4917304080027
1537,-135.004974938136
1538,-165.76655840922103
1539,-181.28658310087667
1540,-170.44515137171948
1541,-123.1723656556278
1542,-52.91832845791032
1543,-4.183142351534116
1544,-21.586909973299043
1545,-101.42973402001371
1546,-190.98171724467102
1547,-238.16296245258127
1548,-234.43357249752626
1549,-204.93365027788423
1550,-174.11329873274917
1551,-150.7026208380321
1552,-134.23171960254695
1553,-123.83069806411368
1554,-116.3296592856077
1555,-107.54870635102816
1556,-96.27794236154841
1557,-95.97747043153504
1558,-124.65739368459799
1559,-188.85781524958475
1560,-255.02883825657773
1561,-280.8705658329036
1562,-246.763101099099
1563,-189.16654716487392
1564,-152.85100712508392
1565,-159.87658405565526
1566,-192.1833810095377
1567,-227.87150101260886
1568,-255.2010470596033
1569,-275.24212211000304
1570,-289.68482908392434
1571,-296.20927085799667
1572,-288.83555026124304
1573,-262.1537700709232
1574,-218.5040330083757
1575,-165.20644173486835
1576,-110.90109884740559
1577,-73.12810687455385
1578,-73.40756827223231
1579,-123.60958541952277
1580,-189.11426061441853
1581,-221.31169606963158
1582,-191.6319939083205
1583,-135.0752561598656
1584,-99.08158475558594
1585,-107.95108152447938
1586,-137.18384818892991
1587,-156.38998636042925
1588,-150.60959753526186
1589,-126.7527830901945
1590,-93.59964427814339
1591,-63.330282223860195
1592,-51.424797919567936
1593,-71.42329222061198
1594,-112.4758658410974
1595,-147.90261934951195
1596,-155.03365316434065
1597,-140.68906754967065
1598,-124.27896261078604
1599,-121.03343828974357
1600,-128.18259436097105
1601,-138.1365304268038
1602,-143.69534591305637
1603,-138.82914006457213
1604,-117.77801194072708
1605,-83.4320604110053
1606,-53.26138415047171
1607,-45.44608163530029
1608,-56.78625113826456
1609,-60.73199072422358
1610,-32.61339824560309
1611,11.269428662140854
1612,25.716392585056383
1613,-24.712603664745984
1614,-99.78765704453872
1615,-125.73886427639991
1616,-53.726321842652396
1617,58.26987401874612
1618,123.83962731879001
1619,96.34284232202481
1620,29.719423551176078
1621,-7.0807242082391895
1622,12.152304096731314
1623,47.948413791116764
1624,56.917510476665484
1625,32.85950003650214
1626,4.914288639824008
1627,0.921782746541794
1628,21.06188911199206
1629,49.36451479162133
1630,71.86956714569351
1631,86.81695384399427
1632,96.62658287056729
1633,101.58836252842775
1634,95.2822014443118
1635,70.1180085734104
1636,29.51569320413728
1637,-3.3248350371213746
1638,-4.013666181213921
1639,29.059110088521265
1640,73.20340444107569
1641,106.36912790255155
1642,127.18619186096294
1643,147.34450807105895
1644,175.0739886591291
1645,197.60454612784633
1646,194.66609336108377
1647,158.44854362878323
1648,120.07181059177674
1649,117.9058083066684
1650,161.97045123068892
1651,213.305654226584
1652,229.48133256747315
1653,201.30740194175632
1654,152.54377845800263
1655,107.94037864986603
1656,88.38711948097989
1657,112.63391834988761
1658,188.34069309496772
1659,269.3173619993595
1660,293.0738437959171
1661,231.75005767213952
1662,145.45592327514896
1663,107.05136071661946
1664,137.33629057777944
1665,185.24063391437448
1666,197.49431226163324
1667,167.02724763928745
1668,122.1893625565408
1669,89.39058001709418
1670,75.76082352413323
1671,80.53001708536067
1672,99.67808521801453
1673,118.57495295388799
1674,120.41054584438461
1675,95.89478996554317
1676,48.6086119230913
1677,-16.108061142502265
1678,-83.95130155096376
1679,-132.32418107714693
1680,-141.35477094595808
1681,-116.2191418272887
1682,-74.3073638309179
1683,-32.022506501429234
1684,-1.5226388130977284
1685,6.126170835179437
1686,-10.23314537497572
1687,-32.83765467631929
1688,-42.49942371086763
1689,-36.77451852478043
1690,-29.806004563202805
1691,-34.70694666516283
1692,-49.566409058399586
1693,-64.79745535423899
1694,-74.3201485424288
1695,-86.0475509859807
1696,-111.2187244160159
1697,-148.42872992657976
1698,-172.53662796949538
1699,-157.35647834915653
1700,-110.57634021736521
1701,-71.98627206813399
1702,-76.46033173249452
1703,-109.87857637329944
1704,-135.00606248001895
1705,-126.70584586354926
1706,-102.67998165096105
1707,-89.73852428033206
1708,-95.89852749548845
1709,-98.32804434080754
1710,-73.37712715596354
1711,-30.945827570709298
1712,-8.05419649963369
1713,-34.45028413691398
1714,-89.22313995108925
1715,-131.9368126797799
1716,-135.57235032445715
1717,-110.12480014517132
1718,-71.81620865529476
1719,-34.82762161626306
1720,-10.7040840322843
1721,-9.495640145083598
1722,-26.72533342863244
1723,-48.993206583832944
1724,-66.57130153327853
1725,-86.54465941593298
1726,-120.52432058185514
1727,-167.68332458689838
1728,-203.28671018741443
1729,-201.45551533495927
1730,-166.9817771709677
1731,-132.15853202148537
1732,-124.54681539181911
1733,-133.3406619612433
1734,-132.05410557767937
1735,-104.25917925238718
1736,-61.3899151546284
1737,-19.59334460635364
1738,7.113501923122385
1739,7.344594822472573
1740,-26.918094656357425
1741,-72.74059439275516
1742,-89.92593139216842
1743,-53.596131780708674
1744,3.029779200143821
1745,33.5387771989117
1746,18.073838759448336
1747,-21.297058673706488
1748,-59.83793674997651
1749,-86.68481620740567
1750,-100.73871686730672
1751,-101.95565762889964
1752,-94.3956564639575
1753,-83.33873041145125
1754,-74.85789557219869
1755,-76.50616710349095
1756,-94.77655921373298
1757,-115.18908515709518
1758,-105.79175722812943
1759,-44.74358675641997
1760,29.857415898793988
1761,59.11024135397747
1762,17.39088120667111
1763,-48.15067195913434
1764,-82.9204245676392
1765,-77.68638204585841
1766,-65.10654881824485
1767,-73.65392830132805
1768,-95.8445228983328
1769,-110.45433399381363
1770,-105.24336194827447
1771,-89.0626060928007
1772,-73.3720647236878
1773,-60.77573509705326
1774,-45.337613423476796
1775,-22.190694862627424
1776,4.446026482120942
1777,26.80555756906324
1778,39.78390642352497
1779,44.55708214324113
1780,43.15509490373188
1781,36.76995596368579
1782,25.78667767029765
1783,11.295273464682396
1784,-1.1962421127809648
1785,-4.524853417087797
1786,6.1674563068045245
1787,30.69270492929718
1788,67.4529114415418
1789,101.85309596080333
1790,107.93427973582584
1791,68.27248515219435
1792,13.690735737694922
1793,-8.99394383231629
1794,18.18847227043807
1795,57.43201103252795
1796,67.22970060416446
1797,46.12457030454425
1798,22.995650627233772
1799,19.433973245484594
1800,20.852571017614537
