800,105.45082281419036
801,97.62560648980525
802,93.85036489415324
803,92.188318154228
804,85.58068534281574
805,66.8926844738262
806,32.838532497703454
807,-6.584554703069443
808,-38.52036231837246
809,-50.35767661477712
810,-38.1512849397659
811,-8.807975725883807
812,30.0844615052074
813,71.07323613875997
814,107.75155646305757
815,134.19762966561302
816,144.507661829457
817,134.9378579295062
818,107.22942182902534
819,63.97655627615313
820,8.216462900539227
821,-48.17465778996848
822,-85.16260641252393
823,-82.42618471242167
824,-26.783195566151335
825,57.6315570156421
826,134.5312678852515
827,167.92513075512215
828,144.25133819508392
829,88.53808162973746
830,29.607551335849166
831,-5.755063560122835
832,-13.101575084471733
833,-1.8287964185619785
834,18.467458098892166
835,39.696372969636286
836,58.60713153376673
837,72.92491596768741
838,80.41290728214426
839,79.95128532033323
840,71.62422875608809
841,55.575915092128525
842,32.74552065839271
843,8.856220610437958
844,-8.584811072088087
845,-12.114401586900385
846,1.3966206895283904
847,27.024426200663584
848,58.9601842086613
849,91.3260627931868
850,117.31122885031346
851,129.52584809148175
852,120.57008504253463
853,88.265103042806
854,46.93506424430052
855,14.140129610911572
856,6.767458917723161
857,25.703210750383732
858,55.46154250452037
859,79.82261038524939
860,85.36356940672431
861,73.45357339176371
862,50.34777497154391
863,22.303325585340644
864,-4.4226245196514355
865,-23.558926288446855
866,-28.834431858323114
867,-15.151994558832484
868,12.322531088270807
869,43.11728936914096
870,66.72642337803154
871,76.90907501753009
872,77.63738499886495
873,74.39149284226005
874,72.48353687735926
875,74.81665424369749
876,82.44798089124015
877,96.38865158096905
878,115.24679988553908
879,128.96955818997685
880,125.56505769244359
881,93.72542840505048
882,40.201799154736364
883,-8.820702415810047
884,-26.20194984717091
885,7.601182137839714
886,72.39581763526348
887,135.0520795611419
888,162.88808965270528
889,147.04196846962168
890,113.59983539529912
891,91.43280863823475
892,105.15800523341295
893,147.92954104375713
894,198.7935307616399
895,236.81708791042274
896,250.9793248460719
897,249.5603527587955
898,243.06728167475376
899,241.0402204578004
900,243.0932768112798
901,243.01955727987206
902,234.54916725148087
903,214.86221095917153
904,189.825791483152
905,166.65101075280745
906,152.27096954876833
907,149.75976750503014
908,159.3525031111285
909,181.21227371433088
910,213.6211755219074
911,248.9063036034131
912,278.2177518930339
913,292.9346131919674
914,288.6049791708474
915,264.48794037221523
916,219.9785862130184
917,157.1640049871703
918,88.49928386813735
919,28.91850891156355
920,-7.027234942045652
921,-14.407863864623323
922,1.7267048622179573
923,35.858552849967054
924,81.7097606060488
925,129.57840753668552
926,168.80057194980964
927,188.97233105799205
928,187.93676098143533
929,173.20393675097966
930,152.8329323111584
931,133.52582052328944
932,115.06867316859007
933,95.06456095134763
934,71.2405535021062
935,46.15871938089458
936,28.576126080499307
937,27.657840029747604
938,49.639926596848454
939,84.54045009275433
940,116.8094737745514
941,131.1380598488995
942,123.040269475483
943,102.70016277050945
944,81.35579881023205
945,68.27423563450247
946,61.287530250367126
947,54.118738635668706
948,40.595915742702346
949,19.683115501891734
950,-2.5166091745104495
951,-19.369206388684688
952,-25.433625253483115
953,-22.236815888636556
954,-13.841729416935777
955,-4.26531796038671
956,4.394465363668132
957,12.71066644644452
958,21.445330191647372
959,30.963500519427726
960,39.357220370357936
961,43.90953170943976
962,41.93947553013004
963,32.014091858404754
964,14.373419756835574
965,-10.628502671311253
966,-42.09463827794116
967,-76.19995086597737
968,-108.16140518518932
969,-133.1669669279936
970,-145.88060272523398
971,-140.31428014193534
972,-110.4379676730432
973,-55.0006347391336
974,4.083748317896607
975,37.87221023915663
976,18.471778853107935
977,-51.694518920059636
978,-136.23365706404093
979,-196.93561046200102
980,-205.69935489215368
981,-177.42986702330563
982,-138.45712441039268
983,-114.3431054899911
984,-113.08078957581711
985,-125.37915685420285
986,-141.2101883795549
987,-152.94486606980263
988,-161.5651727018203
989,-169.9990919068332
990,-180.94860816582332
991,-193.23270680489168
992,-202.41337399062832
993,-203.9515967254556
994,-196.03736284296338
995,-184.9256610032171
996,-178.35748068806151
997,-183.4248121964174
998,-198.8376466395357
999,-217.49897593627793
1000,-232.18979280834992
1001,-237.5990907755331
1002,-232.90286415091123
1003,-217.92610803607568
1004,-192.49481831632602
1005,-157.05899165584196
1006,-116.28962549286098
1007,-76.59871803484657
1008,-44.41426825362487
1009,-26.193275880534202
1010,-28.46574140154553
1011,-57.762666052381974
1012,-116.46205181363257
1013,-184.3369014058435
1014,-233.51421828461207
1015,-236.90200663566338
1016,-192.6912713699203
1017,-128.79101811857254
1018,-74.81725322812235
1019,-53.770983755440284
1020,-60.65321746279551
1021,-83.06996281288502
1022,-108.77422896386906
1023,-128.51702576438038
1024,-135.84336374852955
1025,-124.39925413092351
1026,-92.02370880164563
1027,-49.77374032125954
1028,-11.305361915795402
1029,10.688412528278604
1030,16.187568469068538
1031,14.07109071429204
1032,13.389963426309805
1033,20.133170127162884
1034,33.310693703609104
1035,50.970516412181496
1036,70.78361988422239
1037,87.21598513094796
1038,93.11059254849806
1039,81.43042192299163
1040,54.44745243559373
1041,29.300662667575125
1042,24.47503060537929
1043,53.02053364568201
1044,97.75714860047265
1045,131.06285170210685
1046,126.34261860839433
1047,85.66142440765907
1048,42.51824362381103
1049,32.03205022142629
1050,75.5218176108092
1051,145.56351865307715
1052,203.96212566521444
1053,215.109610425161
1054,179.15794417687175
1055,122.20109763538676
1056,70.89204099190374
1057,42.61974391883996
1058,34.50217557489759
1059,40.967304610118845
1060,56.35609917096008
1061,74.32852690533764
1062,88.23155496768595
1063,91.59015002400884
1064,85.68127825692955
1065,82.20690537073006
1066,93.60499659639936
1067,126.81251669666472
1068,165.4984299710295
1069,187.19170026080155
1070,171.1062909541124
1071,123.99916499094434
1072,74.88228486814114
1073,53.37761264441633
1074,74.58410994536098
1075,119.71573796843586
1076,165.14945748797345
1077,189.95922886015796
1078,193.89501202800238
1079,186.22076652633496
1080,176.14345148674784
1081,168.50202564258052
1082,162.4584473338491
1083,156.79367451220878
1084,151.07766474588698
1085,147.9043752246098
1086,150.58776276453773
1087,161.97078381315714
1088,178.60439445421525
1089,192.5955504125941
1090,195.97620705921418
1091,185.43331941590804
1092,166.58284216029188
1093,146.07572963063012
1094,129.17293583068295
1095,113.09641443455712
1096,92.176118791529
1097,61.08300193087325
1098,22.219016566673417
1099,-14.38488489737665
1100,-38.37575036317867
1101,-43.52562803345336
1102,-34.5905664069669
1103,-18.145614273779756
1104,-0.8438207104918547
1105,10.076764924492636
1106,7.076092995680483
1107,-17.095886404794328
1108,-59.32122345246444
1109,-103.43996858585342
1110,-132.44417250179595
1111,-135.3118861507719
1112,-121.35516073226154
1113,-104.19904769011009
1114,-96.84959870790226
1115,-105.83686570435111
1116,-133.88690082870835
1117,-183.4677564561698
1118,-245.86148518332266
1119,-295.82813982357493
1120,-306.77477340262794
1121,-262.1704391539388
1122,-185.18219051422147
1123,-108.7750811189344
1124,-63.743164797810095
1125,-55.028495570392806
1126,-70.68712764156408
1127,-98.52311539713173
1128,-129.85551339939047
1129,-161.59737638272964
1130,-191.161759249233
1131,-216.05971706431137
1132,-234.19930505234333
1133,-243.60357859233045
1134,-242.3955932135832
1135,-230.03940459139812
1136,-206.88506854277512
1137,-173.36464102214177
1138,-134.2301781170936
1139,-101.04773604415641
1140,-85.99037114456132
1141,-97.45413988003565
1142,-128.78009882861897
1143,-169.57230468049875
1144,-209.6928142338411
1145,-242.04568439066952
1146,-261.42697215274984
1147,-262.78673461747894
1148,-247.4700289738239
1149,-225.98791249824262
1150,-209.57244255065052
1151,-204.54267657040236
1152,-200.2116720722761
1153,-182.21648664249733
1154,-139.22717793476386
1155,-87.54580366631308
1156,-58.202421613976185
1157,-81.30208961029075
1158,-151.75586553959602
1159,-222.2818073341732
1160,-243.10997297040194
1161,-190.4324204649165
1162,-111.78920787082097
1163,-66.88539327388298
1164,-103.51803478877537
1165,-188.44319055533288
1166,-254.74291873482161
1167,-238.69627750623658
1168,-143.77332506261973
1169,-35.5001196073963
1170,18.483280649265907
1171,-12.308182505926197
1172,-83.68356728579056
1173,-142.47493189908892
1174,-147.56733454698497
1175,-114.26483341949643
1176,-74.34048669199365
1177,-57.44735252170267
1178,-67.75648904424997
1179,-92.81295437020253
1180,-119.93880658165654
1181,-139.9671037288308
1182,-148.53390382669386
1183,-141.6242648516045
1184,-118.7302447379816
1185,-89.75890137499391
1186,-66.5362926032767
1187,-58.68847621165787
1188,-60.77350993393247
1189,-61.06645144563299
1190,-48.247358360841645
1191,-18.789288229015256
1192,24.057701468155756
1193,76.75955331987916
1194,130.6932099893511
1195,168.26861421684134
1196,170.96970882274036
1197,128.7044367105882
1198,63.08774087008169
1199,3.196564380054042
1200,-25.236149588571607
1201,-24.861457769851768
1202,-12.581416799905128
1203,-5.00108321404241
1204,-8.963513443898592
1205,-21.591763814603837
1206,-39.58289054196757
1207,-59.12194972970428
1208,-75.38199736666229
1209,-83.41608932409963
1210,-79.85628135296429
1211,-67.69962908121488
1212,-51.566188011159284
1213,-35.81501351682073
1214,-22.5211608413274
1215,-12.580685094327237
1216,-6.930641249433393
1217,-7.737084141679588
1218,-18.376068465033313
1219,-42.22364876988922
1220,-77.14187946062884
1221,-110.68181479318355
1222,-129.24650887263033
1223,-123.26401565081233
1224,-97.97238892398582
1225,-62.039682330490905
1226,-23.82194934844938
1227,10.719756706504086
1228,36.70638268348284
1229,49.600875598564926
1230,50.73718263698538
1231,46.42925115532125
1232,43.12802868362269
1233,45.81946292753673
1234,57.236501770401446
1235,79.91109327530648
1236,111.0781856871381
1237,132.8157274345831
1238,124.49866713212577
1239,72.38095358199826
1240,0.7025357761158375
1241,-53.23763710201547
1242,-55.78861567542117
1243,-14.419450371803578
1244,37.580808578278265
1245,67.41311114321434
1246,67.174407492108
1247,56.31064799653268
1248,55.61478323223491
1249,77.48576398083424
1250,118.22954123149339
1251,172.32606618253794
1252,232.3842902430797
1253,284.53816503459984
1254,313.5246423924955
1255,307.9156743676185
1256,280.90121322776486
1257,255.3632114591628
1258,252.62762176791148
1259,273.8853970813989
1260,306.63349054969876
1261,338.2518555469378
1262,360.92644567262505
1263,372.3012147529689
1264,370.36211684216323
1265,357.59010622363166
1266,345.0211374112705
1267,344.6471651506363
1268,361.7421444201309
1269,379.659030432138
1270,377.29677863415054
1271,339.8053447098546
1272,288.0136845802035
1273,255.37175440443843
1274,271.3095105811144
1275,323.59190974907506
1276,375.45990878840166
1277,391.2944648213488
1278,366.16553521323567
1279,324.13207757332475
1280,290.15704975566496
1281,275.53540985990276
1282,271.11511623207844
1283,266.072127465387
1284,253.70240240090698
1285,237.17590012831806
1286,221.1285799865691
1287,210.61040156453873
1288,212.3403247016604
1289,233.44430948851186
1290,278.13931626739304
1291,331.6943056328655
1292,371.78023843226947
1293,378.7340757662114
1294,362.991778989026
1295,353.8393097092003
1296,379.5006297897917
1297,439.2147013488038
1298,504.66248675953466
1299,546.7259486509001
1300,551.7440499077356
1301,528.1507536710624
1302,486.1020233383324
1303,438.7508225636393
1304,405.7081152579103
1305,407.4398655890718
1306,452.44703798217233
1307,509.5965971195001
1308,539.538507940656
1309,511.78573564261296
1310,441.3522456797318
1311,357.79900376377464
1312,288.91997586386697
1313,248.16112820644594
1314,242.0984272751757
1315,275.4508398108437
1316,329.35133281123217
1317,368.4678735309344
1318,358.7174294811948
1319,302.8619684296682
1320,240.31845840019923
1321,211.5298676725406
1322,228.82416478206324
1323,265.0003185194355
1324,289.96629793028114
1325,286.94107231478847
1326,265.66861122732917
1327,239.0308844760293
1328,217.525862122302
1329,204.84851448038535
1330,203.50181211682957
1331,214.06772584996816
1332,229.29622674936036
1333,239.94828613521167
1334,239.1438755777599
1335,233.9029668966441
1336,236.27353216024585
1337,256.24454368499755
1338,286.2589740346766
1339,309.9547960196687
1340,312.17098269619873
1341,293.83250736555146
1342,266.79734357325015
1343,242.68546510822398
1344,224.4768460019386
1345,207.30946052751278
1346,186.24728319879614
1347,163.05228876944147
1348,147.4694522319296
1349,149.58074881658558
1350,170.51715399056138
1351,197.41564345680308
1352,216.24219315297978
1353,219.75077925040205
1354,214.61637815290487
1355,209.21296649571286
1356,209.08252114427887
1357,212.1650191930994
1358,215.13043796449983
1359,215.09175500741003
1360,210.708948096094
1361,200.97899522887747
1362,185.51187462683993
1363,166.71056473248427
1364,147.7940442083809
1365,132.71229193579802
1366,129.82728701329324
1367,149.13100875529562
1368,196.89143669065743
1369,250.3535505611835
1370,273.1783303201328
1371,233.56375613071577
1372,146.85380836453714
1373,55.83246760005022
1374,1.0537146209589991
1375,-11.740469585381106
1376,-1.651103829594831
1377,12.349793278058314
1378,23.38920332600719
1379,35.0501080996828
1380,51.18848957978207
1381,73.76732994054237
1382,102.76861154797189
1383,137.9113169580587
1384,172.62342891498065
1385,192.56893034925633
1386,183.24280437591642
1387,146.29803429261392
1388,106.98060357774557
1389,92.17349588852812
1390,109.69869505907809
1391,134.68918509843843
1392,139.16795018862013
1393,112.16597468258897
1394,76.7752431022609
1395,60.11274013646198
1396,76.04445063886578
1397,107.58835962591729
1398,133.3894522747396
1399,137.95471392100626
1400,121.58813005681532
1401,87.21768632851854
1402,41.83036853455724
1403,4.913162623257449
1404,-1.6339453093833072
1405,34.27703097806716
1406,90.21607787022913
1407,136.1641818926255
1408,149.95232970940197
1409,140.692508121012
1410,125.25070406188843
1411,117.6339045980967
1412,119.02309692496601
1413,127.04526836471632
1414,139.67640636404394
1415,156.66749849171356
1416,178.31053243611677
1417,204.04049600281814
1418,228.66437711208346
1419,245.40916379639384
1420,248.10084419793748
1421,234.12340656608467
1422,202.16283925486096
1423,154.95213072037131
1424,121.11526951824635
1425,139.49524430104248
1426,238.82804381563983
1427,378.29065690062544
1428,487.8710724836528
1429,509.6892795787844
1430,475.10526728383866
1431,454.9460247776942
1432,509.65754131758877
1433,618.6148062364255
1434,723.7548089400216
1435,773.5235389043728
1436,770.1239856729098
1437,741.4301388537033
1438,713.7519881166936
1439,699.0155231908857
1440,702.1037338615342
1441,726.4106099673209
1442,763.2111413975044
1443,797.7483180890704
1444,816.6011300238688
1445,818.21356722572
1446,806.982619757533
1447,787.1392777183937
1448,761.0645312406486
1449,730.2193704869651
1450,696.5667856474038
1451,666.2787669364452
1452,647.6293045900347
1453,647.0853888625979
1454,656.090010024056
1455,658.7581583568181
1456,641.7528241527716
1457,612.5019977102556
1458,588.3136693310371
1459,582.9678293172501
1460,582.8714679683553
1461,561.8415755780661
1462,498.7941424312794
1463,410.0931588009871
1464,328.5756149451836
1465,282.13350110375995
1466,264.32180749539657
1467,254.38152431443632
1468,234.27664172775167
1469,203.65014987162067
1470,169.05703884855757
1471,136.46629872417634
1472,108.21891952401529
1473,85.3378912303724
1474,68.87720377912683
1475,60.060847056545754
1476,60.16981089609999
1477,68.50008507525581
1478,74.6116593122797
1479,65.08352326301065
1480,31.464666517652404
1481,-12.641921402460866
1482,-47.541251048091
1483,-57.49733304533311
1484,-42.45817809885921
1485,-6.245796995169258
1486,43.03479939416047
1487,82.30160010921463
1488,85.18759409848735
1489,38.52177021560328
1490,-30.2828827839503
1491,-86.02837624609765
1492,-104.15572162144599
1493,-88.71793046857601
1494,-48.53901445732754
1495,1.6320146279203982
1496,33.266144884950336
1497,16.04636429041784
1498,-54.21133930344786
1499,-129.1549781721369
1500,-154.53856472216648
1501,-112.57711149437182
1502,-48.41163116722146
1503,-12.915136560109204
1504,-28.51864063666926
1505,-75.72015650807407
1506,-131.69969743634556
1507,-176.16427683766142
1508,-191.9729082856602
1509,-163.2376055147388
1510,-101.07438242338503
1511,-45.11825307744766
1512,-34.42823171346299
1513,-71.14933274195391
1514,-124.8085707507289
1515,-164.9869605081758
1516,-178.19451696657325
1517,-163.35025526537356
1518,-121.14419073450426
1519,-68.01433889764849
1520,-29.901715475544734
1521,-29.039336389262644
1522,-56.19521776348029
1523,-86.77437592977367
1524,-100.6478274298779
1525,-106.68858901896056
1526,-125.07467766888749
1527,-169.761110571475
1528,-224.0369051417547
1529,-261.80407902121624
1530,-263.411650081046
1531,-233.68663642537558
1532,-183.24105639451045
1533,-124.79892856814877
1534,-77.17427176860474
1535,-60.24910506402466
1536,-83.55644777158341
1537,-133.5143194606835
1538,-193.3727399561567
1539,-244.0587293414228
1540,-262.53030796168423
1541,-226.17649642708238
1542,-146.84431561585097
1543,-81.92078667747228
1544,-89.41793103579948
1545,-166.72777039220455
1546,-249.72832672868208
1547,-275.49162231096034
1548,-241.4056796916011
1549,-191.48052171308973
1550,-166.51717151090088
1551,-162.04465251657803
1552,-147.288988460773
1553,-97.74020337628735
1554,-35.37832160111611
1555,-2.1523677814493567
1556,-29.373366874682688
1557,-95.04834415240293
1558,-160.67632520337702
1559,-196.92833593650175
1560,-206.70840258376393
1561,-199.9645517031695
1562,-184.90581018166904
1563,-165.397205238065
1564,-144.6687644258982
1565,-127.2385156363298
1566,-119.87948710099954
1567,-129.438707394861
1568,-156.6012054390285
1569,-194.2510105035699
1570,-234.6761522103161
1571,-268.3776605356261
1572,-284.2395658131527
1573,-272.58689873658477
1574,-241.14969036237198
1575,-208.84497211242888
1576,-192.1817757768149
1577,-188.55813351641154
1578,-186.85307786557223
1579,-177.71864173474023
1580,-160.57685841306466
1581,-137.4727615709844
1582,-110.7333852628035
1583,-83.53176392922705
1584,-59.22393239989469
1585,-42.00392589587864
1586,-37.827780032174815
1587,-52.604530820148284
1588,-79.04721466998126
1589,-91.13186839308673
1590,-63.13852920449153
1591,-7.2672347252137115
1592,27.752977015405122
1593,-3.010932422631413
1594,-82.18700189226638
1595,-152.08027066164323
1596,-163.1197784163778
1597,-127.2985652617599
1598,-82.72367172494887
1599,-60.811138757139815
1600,-63.69000773571315
1601,-85.63632046633847
1602,-118.61211918506615
1603,-148.4034465603845
1604,-159.8513456952487
1605,-144.54086012909193
1606,-105.53503383979205
1607,-47.231911245617084
1608,20.18846279285208
1609,80.20604297084083
1610,117.14178353752413
1611,130.98363829419577
1612,132.75656059247558
1613,131.65250333254608
1614,121.75941896141558
1615,90.49025947122027
1616,33.1639763975445
1617,-21.031479182194744
1618,-33.9081566503819
1619,8.557894149253116
1620,59.33562291007729
1621,62.548978861063006
1622,4.452910765307934
1623,-63.899633081390675
1624,-88.06170485194343
1625,-59.85535718933352
1626,-15.14064320794023
1627,12.096383505157064
1628,25.118668888932916
1629,48.87315840718475
1630,102.2147970473552
1631,168.73652931938705
1632,219.91929925461227
1633,237.46005040468117
1634,234.8807258405359
1635,231.74826815140568
1636,234.81161944387532
1637,227.8157213409495
1638,193.25351498119198
1639,143.5899410178863
1640,123.19693961825033
1641,171.885450462677
1642,260.2974127440366
1643,315.52076516699435
1644,280.99744594739605
1645,198.91439281168005
1646,146.83654299635054
1647,175.21383324745875
1648,249.81319982017158
1649,320.20457847835496
1650,358.6429044942115
1651,376.6321126479679
1652,389.26513722758955
1653,404.27391202857325
1654,422.1163703537468
1655,442.50644501314946
1656,461.04606832393983
1657,471.0161721103523
1658,464.26768770371655
1659,425.9035459425022
1660,339.0036771724326
1661,207.75301124663292
1662,89.87847752583912
1663,50.38400487864601
1664,100.74152168181627
1665,178.48795582063212
1666,219.06623468929683
1667,208.49828519139828
1668,171.5390337404151
1669,132.36840626027242
1670,104.48732818596181
1671,97.00672446420413
1672,110.72151955417121
1673,118.72563742825878
1674,88.6880015729148
1675,19.32053498951973
1676,-37.22583980467061
1677,-26.69320077553766
1678,40.145373628955895
1679,92.47780447986679
1680,67.36201236843499
1681,-14.86608259269451
1682,-93.23756076819973
1683,-122.32850299873917
1684,-118.05499059955946
1685,-111.03010535905014
1686,-116.35392953722021
1687,-119.48854586413563
1688,-103.43903753827908
1689,-71.70348822486176
1690,-48.07898205407491
1691,-53.70360361926214
1692,-79.13143797504927
1693,-99.31157063540832
1694,-96.7060875716461
1695,-83.78107521034963
1696,-80.2506204312449
1697,-91.12581056501404
1698,-93.83173339102905
1699,-64.38647713503815
1700,-13.909130466769057
1701,13.214217502521933
1702,-20.34452277743003
1703,-85.73744129331499
1704,-122.86962846558345
1705,-93.60517514573894
1706,-37.28417261353479
1707,-9.680712574121571
1708,-29.6188871551185
1709,-55.267788903618566
1710,-42.340510783124955
1711,0.9938538296009938
1712,24.157211147731687
1713,-13.99153302234481
1714,-87.57047327766304
1715,-144.87470461527482
1716,-153.24032242873182
1717,-132.4744225045415
1718,-110.84310101850315
1719,-98.80545453200648
1720,-84.00357998823074
1721,-54.570574708289314
1722,-20.473536387280546
1723,-5.083563090272946
1724,-23.77075324821817
1725,-55.77120565376663
1726,-70.48801945704145
1727,-55.186294161296246
1728,-31.45612961851657
1729,-23.637626024946258
1730,-33.3298839165127
1731,-41.75900416420063
1732,-33.81508796932212
1733,-23.83123685872306
1734,-38.16255267989345
1735,-85.26113759600776
1736,-124.17209408088183
1737,-106.8005249138414
1738,-31.974533174511635
1739,44.00577776247337
1740,67.75830423285515
1741,48.580942288204824
1742,30.677587701478842
1743,45.26913597264593
1744,73.44548233441219
1745,84.90052175801611
1746,70.44114895912844
1747,54.178258403827385
1748,60.69974431467108
1749,81.7355006768421
1750,85.8884212444018
1751,50.84739954661654
1752,-0.09367110561470327
1753,-30.312897613249334
1754,-26.972387082497335
1755,-22.78124681812733
1756,-52.7765843166726
1757,-103.62850725956469
1758,-121.75212350614402
1759,-66.28154108661238
1760,24.896131805139703
1761,86.51178681877536
1762,83.21131545487424
1763,45.13260907235781
1764,9.970558896046896
1765,-7.5599439757215805
1766,-13.958008563345174
1767,-15.320743998136095
1768,-10.27525951438929
1769,5.383335558640283
1770,28.956931804865235
1771,41.63641972958885
1772,23.27668976782843
1773,-24.533367707261277
1774,-79.27286237585668
1775,-118.7109039628458
1776,-128.22260222909426
1777,-96.19206696261881
1778,-25.3094079696466
1779,48.3002649344171
1780,85.48084193413433
1781,85.11221322328038
1782,82.03726901419304
1783,104.31489954723202
1784,129.91199510034676
1785,118.11644599873489
1786,57.43914262463386
1787,0.5939754271976199
1788,5.170834932490834
1789,60.239611753594545
1790,95.07619660081127
1791,53.80548029200145
1792,-27.915646237006513
1793,-83.90429192185366
1794,-78.9235655590046
1795,-37.59157579497878
1796,9.625568884526729
1797,47.408760165629246
1798,71.90988991737413
1799,79.57085020294744
1800,66.9655332910097
