800,94.53838963637463
801,97.14800941532212
802,93.65532034645639
803,85.75746297000023
804,79.41257753275931
805,80.62680398966313
806,92.54928200530503
807,108.43015095546525
808,119.3885499286207
809,116.80061772742829
810,101.03649287020835
811,83.73831359240103
812,77.24921784801154
813,91.70534331104682
814,119.99482737691415
815,146.8958071638399
816,157.1674195142432
817,143.40080099611168
818,118.02908790434776
819,96.56841626211917
820,93.8279218221769
821,110.59574006817002
822,134.74600621594072
823,153.68185521480336
824,157.3124217488139
825,148.68884023802184
826,135.1352448397056
827,123.91876944960404
828,117.64754770311265
829,110.92271297648949
830,97.5543983880334
831,72.29473679924467
832,40.24986081598854
833,12.93290278962104
834,1.9519948181241489
835,15.26326874721326
836,49.069856171428
837,97.21288843522325
838,153.34349663403827
839,205.85381161534042
840,237.3979639796853
841,230.34708408172992
842,173.0233020312544
843,89.6287476941634
844,17.74255069346782
845,-5.279159589726078
846,33.86674598472382
847,103.75639631696322
848,168.11092006806666
849,193.4824456609531
850,178.73210128130995
851,143.33101487848035
852,107.07131416634184
853,83.88112662418462
854,69.17057949756145
855,54.71079979913975
856,32.66791430952071
857,4.670049578076032
858,-17.98066807626401
859,-23.54811256420726
860,-3.5521580253171123
861,33.22832117274993
862,72.33045043500442
863,99.39635493986862
864,106.87615963990265
865,97.99798926253061
866,76.93696831074703
867,48.231221063808334
868,19.5898715779158
869,0.3620436868923207
870,-0.10713899716483866
871,22.550446916766305
872,60.757924599269245
873,105.18141700110664
874,146.72404685384208
875,179.78293667043
876,201.42420874581148
877,208.77598515748286
878,200.21138776607495
879,178.54853821589495
880,147.60755793546923
881,111.30256813808683
882,76.131689822304
883,51.37804377246357
884,46.45475055918814
885,67.81393053986721
886,106.41070385913099
887,148.1531904493213
888,179.10751003093173
889,193.67278211306711
890,198.47912599385927
891,201.12666076089954
892,208.36350529164247
893,220.58477825380487
894,235.33959810575834
895,250.16008309690642
896,261.5843512680476
897,264.2265204517389
898,252.47770827263594
899,221.97203214783622
900,181.1016092871996
901,145.7475566936664
902,131.86199116356147
903,147.379029286888
904,180.0677874476205
905,214.583381823968
906,236.39392838864842
907,242.49854290914118
908,238.37634094793066
909,229.70543786274084
910,221.06494880676564
911,213.56098872888379
912,207.61667237385427
913,203.54911428253217
914,199.64442879203852
915,192.38973003594856
916,178.20313194444861
917,155.16874824450952
918,127.76769246002186
919,102.01507791194308
920,83.86201771842752
921,77.7646247949433
922,86.63601185439347
923,113.30429140720935
924,157.8285757614458
925,207.7459770228752
926,247.081607095055
927,260.3015776793927
928,245.90400027521355
929,218.8169861798051
930,194.91564648845178
931,186.905092094481
932,191.41843368926948
933,199.99278176227563
934,204.30724660102896
935,201.32493829114264
936,194.79296671629163
937,188.8994415581965
938,186.82047229660202
939,186.13016820923713
940,182.47663837176333
941,171.61699165773825
942,154.24433673854128
943,137.7327820833134
944,129.9364359588808
945,136.54140642966104
946,150.62980135758517
947,160.75972840198392
948,155.65529501949004
949,132.1046084639156
950,98.1187757861353
951,62.53690383394496
952,33.55909925193282
953,15.612468481332144
954,11.757117759853827
955,24.903153121547803
956,51.121680396613556
957,77.0488052112396
958,88.63163298740074
959,75.2202689426922
960,45.628818090111054
961,15.55338523786304
962,0.41207498913900054
963,3.6309917419057456
964,12.718239688681024
965,14.071922816288861
966,-2.789855094374616
967,-31.66299046858603
968,-60.78037993805083
969,-78.59792034116526
970,-81.56050872328069
971,-76.01804233698658
972,-68.93841864237856
973,-66.30453530735213
974,-69.31129020790013
975,-77.70758142840896
976,-91.22330726196469
977,-109.15336621067127
978,-130.31065698596194
979,-153.47507850893362
980,-176.31552991067292
981,-191.73191053260143
982,-191.3671199268092
983,-167.42405785641586
984,-124.863624295921
985,-81.18871943157319
986,-54.44924366172745
987,-56.157097597235406
988,-74.29318206180687
989,-91.54239809241153
990,-91.47664693966362
991,-72.98683006822012
992,-47.81884915718729
993,-28.119606100519377
994,-22.565003007450287
995,-29.571942202898754
996,-45.668326227896614
997,-67.27505784002278
998,-89.48104001383763
999,-106.4491759413313
1000,-112.3333690323525
1001,-105.33452291508002
1002,-93.18554143646816
1003,-85.0093286627116
1004,-89.92678887972033
1005,-114.51382659357932
1006,-148.19934653103246
1007,-173.34525363996
1008,-172.60145308988558
1009,-144.17785027243553
1010,-108.63235080185859
1011,-88.26286051552688
1012,-100.22328547442976
1013,-133.68553196369703
1014,-168.3505064931078
1015,-184.31811579761325
1016,-174.68826683785664
1017,-147.83986680070848
1018,-113.03582309980357
1019,-79.17504337606806
1020,-53.62343549826164
1021,-43.35490756353738
1022,-54.652367897982
1023,-79.94972505717124
1024,-98.85588782673403
1025,-90.48376522290891
1026,-45.186266493115
1027,11.268698883470279
1028,46.14822119535074
1029,29.676390498119872
1030,-29.09870338611472
1031,-93.86897086932822
1032,-127.83132259815739
1033,-112.6586694544967
1034,-72.05992255610818
1035,-35.54999325720564
1036,-28.812793149076242
1037,-44.66923406067508
1038,-59.285228059250585
1039,-48.94268745094996
1040,-7.109524781439177
1041,45.27034716346043
1042,84.77401535716763
1043,92.98956653169898
1044,79.36508717703782
1045,62.97666354050034
1046,62.29238162609545
1047,78.76832719388676
1048,95.20158575934511
1049,93.4252425927034
1050,63.1273827182913
1051,21.72509091390657
1052,-7.2435482898590635
1053,-2.240450610278458
1054,30.534467986860363
1055,64.76229128657087
1056,73.7331028240169
1057,46.94298588383481
1058,9.356023499464754
1059,-9.362701547534925
1060,15.558893271850138
1061,71.96989023339574
1062,130.92637135896348
1063,163.85541841581562
1064,162.11311291592028
1065,143.874536115276
1066,129.2087690132048
1067,133.17389235166047
1068,149.61698661454648
1069,166.79813202699643
1070,173.526408554686
1071,167.7748959031269
1072,154.9196735169653
1073,140.5488205792708
1074,128.73241601082827
1075,119.99153846943045
1076,114.35026634916267
1077,111.74767777969282
1078,111.50885062555153
1079,112.67786248541597
1080,114.29779069138749
1081,115.74571230828224
1082,116.81970413289764
1083,117.34784269328793
1084,117.91120424805013
1085,121.99786478558599
1086,133.78790002338155
1087,156.6293854072719
1088,182.79939611071404
1089,196.73900703405798
1090,182.81029280380426
1091,138.33732777188197
1092,85.60518601489821
1093,49.75994133342192
1094,50.419667251220744
1095,75.09643701454661
1096,99.75032359138459
1097,101.15639967070638
1098,75.03773766174527
1099,35.80640969324213
1100,-1.3325123872955373
1101,-25.764957014336687
1102,-39.092852905071595
1103,-44.93312906015035
1104,-46.941714764439894
1105,-48.99653958776071
1106,-55.09653338564294
1107,-69.12062630006312
1108,-90.39974876019915
1109,-112.56183148317359
1110,-128.85680547480752
1111,-134.76960203036924
1112,-133.3311527353153
1113,-129.17938946605136
1114,-126.66924439067043
1115,-127.20764996971411
1116,-130.4745389569125
1117,-136.12184439993962
1118,-143.81549964116402
1119,-153.23343831839247
1120,-164.0535943656323
1121,-176.32590201382573
1122,-191.5632957916132
1123,-211.63971052607576
1124,-237.59908134348188
1125,-260.6603436700507
1126,-265.62443323268326
1127,-237.45728605972
1128,-179.78983848169264
1129,-126.01802713206416
1130,-112.21578894797949
1131,-161.87906117101465
1132,-246.1417813479202
1133,-322.5208873313659
1134,-351.7383172806931
1135,-333.74500966264986
1136,-294.5969032521407
1137,-260.62293713297004
1138,-244.77205069857882
1139,-238.86618365279628
1140,-232.85327601056997
1141,-220.65426809871406
1142,-211.98010055664145
1143,-220.48471433710984
1144,-257.5270507069481
1145,-309.08705124780226
1146,-345.34765785686704
1147,-336.7588127476147
1148,-279.37145845053874
1149,-205.94953781387176
1150,-152.12199400432746
1151,-141.46477050782323
1152,-155.80581113020708
1153,-167.9400599979881
1154,-154.61846155905914
1155,-128.55496058341942
1156,-121.62850216389779
1157,-164.781031716876
1158,-251.8344949829998
1159,-332.09783802790207
1160,-352.2600072429195
1161,-285.4509493457999
1162,-177.47261138142767
1163,-86.52594072251577
1164,-61.6038850703344
1165,-89.06039245539796
1166,-129.2064112381904
1167,-143.93089010985477
1168,-128.69977809289503
1169,-109.99902454188123
1170,-115.38457914414903
1171,-155.7543919204827
1172,-208.54641322582393
1173,-247.17259374994865
1174,-252.0968845181642
1175,-236.78123689199765
1176,-224.32960256986917
1177,-235.4629335877944
1178,-262.56318232004196
1179,-279.50630147982247
1180,-260.3602441199673
1181,-202.69496363359121
1182,-136.27041375477347
1183,-93.19554855921706
1184,-94.2803224649142
1185,-126.86069023281925
1186,-172.1036069674965
1187,-212.14202811778614
1188,-235.83390947745102
1189,-234.83920718583795
1190,-201.74987772852091
1191,-146.05887793795137
1192,-91.9361649940929
1193,-63.88569642508173
1194,-70.93443010783903
1195,-94.81032426872753
1196,-114.44533748416961
1197,-114.85742868128636
1198,-103.98155713851429
1199,-95.1466824862382
1200,-99.41076470739699
1201,-108.62776413811935
1202,-104.99964146832099
1203,-71.75835774231746
1204,-17.689874359440182
1205,22.96284692536483
1206,15.026844000947676
1207,-51.82184560066253
1208,-139.21518470483807
1209,-203.1041364949442
1210,-211.25966451292516
1211,-179.35873265989085
1212,-135.2233051967005
1213,-103.83434674452292
1214,-85.23882228542607
1215,-66.58169716293469
1216,-35.57893708259962
1217,4.5604918874405485
1218,35.31462331590501
1219,37.64549040781276
1220,7.982126003936173
1221,-28.326437419743343
1222,-42.73816775258365
1223,-17.269033249817767
1224,27.073997466919536
1225,60.28395540905058
1226,56.7218712205331
1227,23.899775177342235
1228,-15.535302813054841
1229,-39.73733321220698
1230,-42.46928685119201
1231,-30.726134931116576
1232,-11.889849023627903
1233,8.73159892860167
1234,29.02123661137466
1235,47.137091338480786
1236,62.44119005121502
1237,77.7675593178983
1238,96.56222533340133
1239,120.66321391867768
1240,142.9865505202888
1241,153.38926020995768
1242,142.9513676840943
1243,116.60489726335982
1244,87.9658728922077
1245,70.5243181384476
1246,70.29625619280523
1247,85.08970986848726
1248,112.25870160075647
1249,145.6012534465026
1250,172.1143870838314
1251,178.0071238116434
1252,156.63948454922865
1253,126.13748983586629
1254,109.98815983041459
1255,127.05951431092763
1256,166.58257267426234
1257,206.11135393569475
1258,224.62587672853988
1259,219.42415930378502
1260,200.30121952970876
1261,177.2100748915309
1262,157.7727424910454
1263,146.96623904627722
1264,149.5785808911196
1265,165.36478397501196
1266,184.51686386258916
1267,196.148835733351
1268,194.3787143813488
1269,189.63151421485054
1270,195.64624925603312
1271,222.53893314067136
1272,259.71457911784273
1273,289.24520004961414
1274,295.2348084107616
1275,282.7364162884842
1276,269.1420353821122
1277,271.0616770028455
1278,285.2663520734732
1279,289.79707112811684
1280,262.30284431197197
1281,199.36468138105374
1282,125.91359170195301
1283,69.19058425159437
1284,46.48666761700679
1285,51.19984999508779
1286,73.21313919239128
1287,102.47154262490403
1288,129.1650673178392
1289,143.5427199054293
1290,138.92750663073275
1291,128.68843334544545
1292,134.22950550970018
1293,174.44172819191226
1294,239.894106068582
1295,303.40964342414463
1296,338.64534415080743
1297,342.82821174838864
1298,335.6242493241807
1299,337.27345959280046
1300,352.6728448760614
1301,364.77540710284484
1302,354.904147808973
1303,318.0360681370985
1304,278.60016883660137
1305,264.88345026347815
1306,292.77091238024695
1307,337.0415547558732
1308,363.9613765656695
1309,347.1973765912353
1310,298.40755322037694
1311,241.39990444705745
1312,197.867427871337
1313,172.46212069932153
1314,161.67197974312967
1315,161.8520014208525
1316,168.33218175653383
1317,175.72751638014142
1318,178.77900052756377
1319,175.65862904059122
1320,167.9443963669355
1321,157.3902965602183
1322,147.09032328000376
1323,142.00946979180935
1324,147.23172896713913
1325,162.4300932835231
1326,176.53555482456068
1327,177.21210527997027
1328,160.01273594564736
1329,142.91343772373148
1330,147.85020112268558
1331,188.73601625736683
1332,246.69687284912288
1333,294.5107602258804
1334,309.30266732225664
1335,293.7915826796607
1336,259.95949444642065
1337,219.68039037790186
1338,183.65225783664846
1339,161.98908379251316
1340,163.8168548228159
1341,185.86655711249477
1342,216.44317645427327
1343,243.9696982488249
1344,262.50810750496294
1345,271.221388839821
1346,269.47052647904457
1347,257.13150425700496
1348,234.67630561700116
1349,202.71791361147552
1350,167.56231090225356
1351,144.4384797607654
1352,149.25940206829182
1353,183.1170593162151
1354,216.7834326062848
1355,217.32250265086986
1356,169.71524977324225
1357,107.03465390786187
1358,70.34769460065945
1359,86.23135100933905
1360,130.1716019036885
1361,166.40342566588697
1362,168.01680029084127
1363,148.9037033865061
1364,134.69911217422123
1365,146.34800348907993
1366,176.66435378025744
1367,208.0641391114077
1368,224.7343351610125
1369,224.9429172227683
1370,213.53286020598352
1371,195.39613863597697
1372,175.44772665448
1373,158.61459802005265
1374,149.44472610852063
1375,147.29708391338863
1376,147.83164404629315
1377,146.88037873745634
1378,144.85725983614066
1379,146.13125881111773
1380,154.96934675113698
1381,169.7004943654265
1382,182.50367198417734
1383,185.4048495590432
1384,175.3919966636604
1385,155.5600824941721
1386,129.4690758697343
1387,104.39194523308197
1388,93.02665865106246
1389,108.3301838151965
1390,148.34248804223444
1391,185.55153827474442
1392,190.0683010816847
1393,153.1937426589975
1394,108.68682883021847
1395,95.3025250470755
1396,131.22979639011646
1397,186.7846075693351
1398,225.49992292480874
1399,224.7727064273522
1400,199.27592167915373
1401,169.8935319144739
1402,152.36950000028446
1403,146.55678843698297
1404,149.26435935906466
1405,156.5401745358413
1406,161.75219537213707
1407,157.68738290902638
1408,140.4446978245569
1409,119.28310043449073
1410,106.73455069305237
1411,111.31000819369638
1412,123.5584321698625
1413,129.04378149577315
1414,118.62101468720448
1415,109.33708990229206
1416,126.30996494233932
1417,186.288597252631
1418,260.47294392325784
1419,304.6489616899644
1420,283.9036069349795
1421,218.5918356878883
1422,149.34660362648447
1423,113.1078660776493
1424,122.86057801824336
1425,182.14969407599074
1426,289.43616853039566
1427,408.51995531365264
1428,488.6360080115637
1429,489.49627986448286
1430,447.5187237682576
1431,433.060292275185
1432,504.9749375949723
1433,632.7066115957168
1434,744.4022658048816
1435,777.224851410303
1436,742.2403192611837
1437,685.829619869115
1438,650.0147034091005
1439,639.0095197205892
1440,638.488018308517
1441,635.5771483443759
1442,630.6458586672652
1443,630.6720977849736
1444,641.0778138750711
1445,653.7349547859903
1446,653.7004680381515
1447,629.3413008250673
1448,597.4564000144765
1449,589.1397121494774
1450,629.3411834496783
1451,690.5947598123603
1452,719.3353868136401
1453,670.8120097096544
1454,574.204573437748
1455,494.85702261767165
1456,488.99730155280395
1457,538.304354231359
1458,588.9631243276272
1459,593.049555203218
1460,549.4595899083097
1461,478.591171182924
1462,400.04824145818293
1463,326.72974285760847
1464,268.59261719841925
1465,233.8538059928278
1466,218.91925044936488
1467,215.26689147421166
1468,214.73366967252605
1469,211.56852534981317
1470,200.95939851326148
1471,178.64422887313776
1472,143.59095584415172
1473,95.94251854686809
1474,38.87785580908621
1475,-8.074093832716244
1476,-19.88739213198005
1477,20.09189886938475
1478,87.4107168424498
1479,145.01399917271283
1480,162.818682961587
1481,141.67270502786596
1482,90.96700190923184
1483,23.845509863744155
1484,-31.739835128637424
1485,-44.16109736452654
1486,2.0466585844260408
1487,65.78536787307439
1488,93.57096538434598
1489,52.70038573080819
1490,-25.54743674375004
1491,-97.63856796272466
1492,-133.34707411509225
1493,-138.24802165379515
1494,-123.85347729410933
1495,-99.89350801201454
1496,-71.95018104253904
1497,-45.01156387809715
1498,-23.562724266822443
1499,-11.05873021087882
1500,-10.798649964764081
1501,-22.55555203361382
1502,-40.02450517146917
1503,-56.296578379554376
1504,-64.98184090453378
1505,-60.440362236766305
1506,-37.36021210851959
1507,-0.24046049222761212
1508,34.152822401327285
1509,48.644566124798075
1510,36.00669999608817
1511,-0.49884689982809505
1512,-56.643145709072996
1513,-119.67226780701276
1514,-169.29128479641167
1515,-186.30726850554947
1516,-170.8262909863506
1517,-137.09542451248853
1518,-99.2477415774847
1519,-66.46731489278318
1520,-44.97121738583064
1521,-39.82552219813806
1522,-47.00930268332286
1523,-58.064632405151315
1524,-65.4135851355577
1525,-67.30623485266187
1526,-64.26865573876785
1527,-58.344922178353954
1528,-59.04610875604976
1529,-78.16029025460011
1530,-121.64154165281616
1531,-173.3219381235249
1532,-211.80855503148814
1533,-224.17346793132492
1534,-222.1127525654192
1535,-221.72748486180262
1536,-229.42474093204964
1537,-229.97059706913114
1538,-205.37412974528797
1539,-153.3034156098547
1540,-98.30253148711654
1541,-67.13555437410469
1542,-68.18456143842286
1543,-85.51663001603629
1544,-102.04583760905552
1545,-113.24526188350228
1546,-127.34398066708036
1547,-152.31407194691838
1548,-183.7396138672948
1549,-207.61368472737286
1550,-210.9733629789016
1551,-194.1277272239231
1552,-165.08885621244644
1553,-131.52682884012756
1554,-97.91972414592965
1555,-67.3836213097702
1556,-43.47759965015484
1557,-31.923738621800112
1558,-39.13511781325178
1559,-68.24081694447887
1560,-110.90491586445023
1561,-156.27349454872365
1562,-194.2106330969973
1563,-216.38341173065965
1564,-214.82891079032652
1565,-191.04421073336562
1566,-163.21239213140416
1567,-150.89553566782797
1568,-161.16472213526595
1569,-185.2850324330684
1570,-213.41454756476105
1571,-234.150348635495
1572,-234.6635168494813
1573,-204.2231335074157
1574,-157.01628000388428
1575,-123.23203782476412
1576,-128.16348854460284
1577,-159.01471382399814
1578,-186.0207954069465
1579,-186.37781511819685
1580,-171.2838548605796
1581,-162.13299661232668
1582,-172.85232242438542
1583,-193.62891441770444
1584,-209.97785478051992
1585,-210.72422576562712
1586,-191.67710968763186
1587,-149.79658892019688
1588,-94.94174589326849
1589,-55.309663090301
1590,-59.09242304545478
1591,-103.61410834078924
1592,-156.46580160344547
1593,-186.50858550280554
1594,-192.01454274765365
1595,-190.28875608330418
1596,-195.18230828873948
1597,-194.25728217371943
1598,-163.91376057588423
1599,-91.81082635783059
1600,-14.15856240420726
1601,19.821948381241782
1602,-15.741376921377196
1603,-84.22562124515025
1604,-138.90986753336438
1605,-154.83619873652515
1606,-144.03169780935332
1607,-121.85344770776373
1608,-96.1535313858385
1609,-66.55503179277912
1610,-32.95603186985409
1611,-4.361614547325189
1612,3.7911372586322614
1613,-19.880859350976607
1614,-56.22268725484355
1615,-72.55742930825181
1616,-46.0181683399278
1617,4.086012851101259
1618,47.235031498679746
1619,65.86180487268575
1620,75.18125028222948
1621,95.22028507885898
1622,128.39682665976397
1623,150.0257924710204
1624,134.48710001081963
1625,85.80766683273032
1626,36.22441054897172
1627,16.246248833692334
1628,27.098099426261797
1629,52.95388013459069
1630,79.88350883844487
1631,105.71190349278731
1632,132.28998213112936
1633,158.00166286888543
1634,170.44886390676038
1635,155.28550353413448
1636,113.13350013246963
1637,71.44177217872402
1638,59.72223824878802
1639,87.2418170209221
1640,141.7364272792238
1641,209.09398791708918
1642,266.48141794071034
1643,285.56063647255996
1644,247.40756275491822
1645,188.06511615338331
1646,163.28121616043063
1647,205.67278239894767
1648,275.68573462581026
1649,320.108992735466
1650,317.9314767635142
1651,303.82810689033704
1652,316.3388034446971
1653,355.14548690738775
1654,381.47107791487815
1655,360.2704972629763
1656,309.1106659105062
1657,275.1355049829908
1658,290.47793577637185
1659,312.40387976070724
1660,275.47225858392267
1661,153.91399407554127
1662,22.71500825045132
1663,-28.69977668732372
1664,24.64456165915908
1665,118.69894588356965
1666,186.08029878010893
1667,207.99354334734835
1668,202.83360279205863
1669,188.5314005330829
1670,173.29286020518884
1671,161.33890566296031
1672,153.63846098469912
1673,140.3494504763239
1674,109.53879867531032
1675,62.67143035461777
1676,24.277270526647044
1677,19.73324444721038
1678,45.02827761950721
1679,69.0232957981234
1680,64.01822499303489
1681,39.047991473632464
1682,21.05652177276079
1683,29.039742690771163
1684,50.7035812995764
1685,66.22896494674023
1686,61.45182125955762
1687,33.03407814918228
1688,-20.54333618527653
1689,-86.99949325260786
1690,-140.38946426534585
1691,-157.24432013561545
1692,-140.76513147095375
1693,-107.75196857011179
1694,-74.0899014188617
1695,-51.55199968576744
1696,-50.84433271795751
1697,-73.55396953687432
1698,-104.14597883401439
1699,-125.55342896665297
1700,-128.83338795355394
1701,-112.74192347066764
1702,-78.19410284680816
1703,-40.61899305933002
1704,-22.3206607297725
1705,-37.41317211950718
1706,-71.21459312535535
1707,-102.88598927520798
1708,-121.14042572361996
1709,-130.39596724739022
1710,-135.90567824113168
1711,-132.8366227128272
1712,-108.19186427937348
1713,-54.919466162097706
1714,-4.595491182278238
1715,-3.691001756638798
1716,-71.97405989283197
1717,-155.89972718490571
1718,-190.67406480877162
1719,-160.3511335176263
1720,-111.5539936373898
1721,-90.68370506211613
1722,-96.37632724939067
1723,-97.95691921571324
1724,-73.07253953186864
1725,-38.05524631827848
1726,-19.771097240347444
1727,-30.67514950378518
1728,-55.46845984991978
1729,-76.27508455099905
1730,-86.58807940546922
1731,-90.08749973324302
1732,-90.04240037096224
1733,-84.57183566723415
1734,-69.6888594778502
1735,-44.703525161011385
1736,-18.01388557251812
1737,0.5290069390503049
1738,4.919100537154918
1739,-6.12465609784158
1740,-32.3203137638302
1741,-61.11892273207195
1742,-73.1335327423094
1743,-56.42419299786616
1744,-27.255952160727247
1745,-8.280858346612149
1746,-8.553959120022228
1747,-15.652301489280944
1748,-15.886931901558455
1749,-3.9468962378887227
1750,19.580760191845002
1751,50.66799265392092
1752,69.6137569958164
1753,52.237009651252265
1754,-3.2542923547425744
1755,-55.80919140075639
1756,-62.24772926390233
1757,-26.343947114719413
1758,9.053114487957828
1759,8.319415602126355
1760,-16.483083092233755
1761,-36.703420288000416
1762,-34.82763404572597
1763,-17.73176178844733
1764,4.31615970351595
1765,18.055094297794312
1766,7.455006515190689
1767,-37.67013846505961
1768,-90.51937480002925
1769,-110.18673597781799
1770,-81.17325481225907
1771,-47.40996343761253
1772,-58.88389330323571
1773,-111.38907516825657
1774,-148.50653909621542
1775,-123.354314449698
1776,-63.8594298849539
1777,-27.19791334650745
1778,-41.33779206174131
1779,-65.6690925354751
1780,-52.1488405445225
1781,-3.6030611322421464
1782,29.03422139693157
1783,3.932983482974123
1784,-53.5077976842349
1785,-92.74314415939625
1786,-84.46007723626553
1787,-46.12861744212205
1788,-1.2347845321946807
1789,31.06940251589367
1790,35.39492550772047
1791,3.995767037650694
1792,-30.277089505532786
1793,-21.178659933014387
1794,42.39704074970177
1795,103.69099834845565
1796,102.77819948609249
1797,48.23663160816159
1798,0.550282988604522
1799,5.3341427354889674
1800,35.433200796720485
