800,111.26105826844832
801,97.06405566911235
802,96.40101795069495
803,108.97207959003572
804,128.8773752985362
805,150.15704002302118
806,167.56120894653031
807,178.4600174891002
808,180.76360130849025
809,172.55209630088575
810,156.6356386015541
811,141.83436458546203
812,137.34841086786037
813,150.3479143048371
814,172.27301199382237
815,187.1738412740633
816,179.07053972706672
817,141.4832451769962
818,91.9520956910419
819,51.727229579741106
820,41.09878539729834
821,60.88690194181254
822,93.94171825553349
823,122.48337362502389
824,131.7020075813416
825,122.41775990014685
826,100.52077060177908
827,71.87117995133485
828,41.11912845866755
829,10.77475687839069
830,-16.861793790199954
831,-39.32038230317448
832,-52.38086717209444
833,-50.67310666417143
834,-28.876958802431545
835,14.297718634074045
836,66.89106811000238
837,114.33323233346891
838,142.42435425572512
839,146.97457707082503
840,134.7740442152499
841,113.15289936749832
842,89.03128644767276
843,67.00934961699568
844,50.777233277316554
845,44.04508207059553
846,48.463040878343236
847,61.91125482102507
848,81.88986925745667
849,105.73902978415208
850,129.34888223464623
851,147.64957267879618
852,155.57124742203268
853,150.40405300461498
854,136.98813620082183
855,121.61364401814535
856,110.39072369642417
857,105.16952270697766
858,103.41018875170266
859,102.38286976212112
860,99.84771389844354
861,95.99486954855456
862,91.90448532701885
863,88.58671007401972
864,86.87169285429445
865,87.27958295604185
866,90.25052988979223
867,95.99468338725092
868,102.53219340013493
869,106.67321009895204
870,105.27788387179862
871,98.22636532306933
872,92.70880527220652
873,97.00535475237666
874,118.58616500915196
875,153.05138749914113
876,186.9311738886172
877,206.53567605211356
878,202.955046070987
879,184.3894362319661
880,162.91899902567275
881,150.2838871451204
882,150.13425348418605
883,157.39025113607204
884,166.5520333917102
885,172.279753738183
886,170.23356585709735
887,156.37362362295062
888,126.81008110144467
889,85.35309254782987
890,47.07281240516386
891,27.94939530259944
892,41.09299605362139
893,78.26376965427517
894,121.67187128136175
895,153.57745629063174
896,165.11068021493156
897,164.80169876234686
898,163.12066781431895
899,169.65774342374607
900,184.6230818130516
901,202.67683937224865
902,218.4491726569595
903,227.9902383864519
904,230.9601934416205
905,227.589194862956
906,218.2473998485184
907,205.42496575186124
908,193.18205007995857
909,185.598810491083
910,185.13540479270705
911,189.0619909393463
912,193.62872703041103
913,195.31577130803635
914,194.71328215485119
915,196.10141809182278
916,203.88033777596866
917,219.49019999813754
918,233.0011636807485
919,231.77338787548433
920,203.94703176100302
921,157.78225464061507
922,122.38921593996201
923,127.84807520463801
924,193.60899209784293
925,291.3321263979906
926,379.2176379963039
927,416.5056868943975
928,394.33643320185
929,341.33003713374455
930,288.19665900821747
931,259.99645924395554
932,252.82959835772454
933,253.64623696184208
934,249.64653576166347
935,236.24065555301968
936,219.498757219686
937,206.16100173079576
938,201.69755013826034
939,204.5585635741736
940,210.78420324818944
941,216.45463044490862
942,219.81000652122202
943,222.00049290367315
944,224.40625108576933
945,227.34744262532877
946,225.16422914175746
947,210.02677231336565
948,174.34523387463196
949,121.03977561347165
950,67.70055936850622
951,32.98774702629453
952,31.371500518554967
953,52.811981819408174
954,78.3593529425525
955,89.34377593848876
956,79.51541289168745
957,59.844425917750414
958,42.5609771606014
959,37.71522878959877
960,43.027342996705556
961,51.81748199359936
962,57.47580800879405
963,55.55248328473863
964,44.497670074928465
965,22.951530640984856
966,-8.53577275029238
967,-39.28407782981412
968,-55.2332223291869
969,-42.7430439836462
970,-3.123380535025717
971,43.75593026527531
972,76.90505065330035
973,79.62414284955048
974,56.34336905599048
975,17.85289145302704
976,-25.11712780349262
977,-64.36652658532512
978,-94.4951427948472
979,-110.2428143681027
980,-108.02937927787025
981,-91.34467553668583
982,-65.58854119994612
983,-36.1208143689546
984,-7.811333194014878
985,14.95006412247858
986,27.803539322956567
987,27.62925409156378
988,15.827370051049002
989,-5.1619512403394765
990,-32.76854829199874
991,-62.022259684072196
992,-85.91292407060791
993,-97.35038018268824
994,-92.15446683158189
995,-74.66502291189317
996,-50.78188740472797
997,-26.46489938085324
998,-8.263898003873692
999,-3.1487225333930837
1000,-18.049212328216527
1001,-54.0152068495172
1002,-98.11654566404104
1003,-135.43306844728795
1004,-151.00461498673758
1005,-133.12102518501524
1006,-91.82213906314428
1007,-46.127796763732476
1008,-14.857838554193222
1009,-6.002104829973177
1010,-11.990436117779609
1011,-24.032673078800144
1012,-34.47865651194115
1013,-42.00822735707152
1014,-47.43122669825243
1015,-51.54749576697577
1016,-55.84687594542811
1017,-62.5592087697205
1018,-73.95433593315647
1019,-91.36209928947574
1020,-112.01234085611213
1021,-132.04490281745166
1022,-147.4796275281078
1023,-151.7363575161653
1024,-135.7949354864595
1025,-90.57520432384445
1026,-15.73700709644254
1027,61.399812941053824
1028,108.09541234412609
1029,94.65994747516197
1030,31.64357450017451
1031,-42.15355061448645
1032,-87.42127210539729
1033,-83.43943441533156
1034,-51.817882196561186
1035,-20.006460314119977
1036,-12.055013849090756
1037,-22.913388101884266
1038,-32.79142859550848
1039,-21.958981078871147
1040,15.614108469961138
1041,64.16799384046499
1042,105.95282858638711
1043,125.97876602247743
1044,124.77595922118962
1045,108.22456100940508
1046,82.16472396515928
1047,51.59660041437746
1048,20.570342427577998
1049,-6.903898183394631
1050,-26.665969868643515
1051,-33.95572134349277
1052,-23.893001591748543
1053,7.492340131011588
1054,51.260454294186275
1055,89.16149108888203
1056,102.78560042464233
1057,85.22293192620054
1058,54.793634930198095
1059,33.16785848195104
1060,38.835751332180735
1061,66.38746193375664
1062,99.53313843847172
1063,122.1329286937671
1064,126.66698023948629
1065,117.30544030468081
1066,99.00845580430723
1067,76.64617333603928
1068,54.78873917702185
1069,37.9062992806339
1070,30.23899927327875
1071,32.55698445115377
1072,42.76039977704568
1073,58.68938987709589
1074,76.13409903761567
1075,86.11467120186353
1076,78.98124996685692
1077,47.77397858017139
1078,6.202999936744163
1079,-22.511543424307092
1080,-15.659509322862505
1081,27.059244059004413
1082,76.84485817388668
1083,102.96747410583521
1084,85.07723256723148
1085,42.87427389561344
1086,5.61873805052528
1087,0.15076461036915134
1088,20.86049276927406
1089,39.10806133395272
1090,25.973608720569246
1091,-25.882727048370725
1092,-82.19080834715533
1093,-103.91049794996616
1094,-61.72165903398127
1095,17.135844817510588
1096,85.06214961204569
1097,96.21739094486111
1098,45.711703995853895
1099,-31.074776473522434
1100,-97.02191612329443
1101,-127.41958103806064
1102,-130.637637730013
1103,-120.47595314200044
1104,-109.7743946505525
1105,-103.38283006892198
1106,-102.28112765010155
1107,-107.3791560898353
1108,-117.96678452963715
1109,-131.24388255976737
1110,-144.30032022224805
1111,-153.66596801384912
1112,-153.99069688903182
1113,-139.49437826295252
1114,-106.05688401439147
1115,-66.32808648873652
1116,-42.86785850089291
1117,-57.976073338239075
1118,-113.19260476354066
1119,-179.35732701786583
1120,-224.8401148235098
1121,-227.81084338686742
1122,-205.11938840134462
1123,-183.1656260502259
1124,-185.87943300954976
1125,-208.18068645097628
1126,-225.95926404462443
1127,-215.11504396192868
1128,-171.78790487846527
1129,-124.40772597678551
1130,-104.3643869492189
1131,-132.90776800067215
1132,-189.3477498514385
1133,-242.06421373997728
1134,-261.74704142567316
1135,-247.376115191626
1136,-216.7513178473746
1137,-187.8825327316572
1138,-169.5696437151455
1139,-156.11253520314858
1140,-140.50109213834367
1141,-119.0752000034663
1142,-101.38474482399215
1143,-100.25961317083056
1144,-126.73969216298428
1145,-171.66486947019803
1146,-213.31503331560998
1147,-230.13007247838868
1148,-217.98987629634757
1149,-197.8143346685556
1150,-192.4633380579453
1151,-215.09677749387447
1152,-245.3245445747416
1153,-255.48653147050754
1154,-222.1726309252772
1155,-160.64273625981514
1156,-106.76674137409282
1157,-95.65454074979789
1158,-130.35602945281607
1159,-175.50110313576442
1160,-193.45965804041953
1161,-163.69159100021716
1162,-112.57679944269694
1163,-74.51518139193468
1164,-77.6566354709721
1165,-107.72106090423586
1166,-132.73835751993647
1167,-122.45842575245479
1168,-81.82116664471505
1169,-48.3464818505563
1170,-60.5542736370644
1171,-128.95444488692192
1172,-207.68689910072862
1173,-244.13154039930305
1174,-200.40827352597444
1175,-107.69700384887801
1176,-17.377637363206304
1177,23.049919306520678
1178,12.02575890423941
1179,-21.990026459905494
1180,-50.397345311763274
1181,-61.386106815367384
1182,-66.2262207751337
1183,-77.86759763802183
1184,-103.07014849567531
1185,-130.3837850865948
1186,-144.94841979822195
1187,-134.76396566909352
1188,-107.130336390901
1189,-77.39744631058784
1190,-60.2752104324245
1191,-57.913544420038306
1192,-61.612364598473505
1193,-62.291587956193325
1194,-54.09113214710305
1195,-36.73091549252604
1196,-10.53085698319228
1197,21.62912371881248
1198,47.15910627808262
1199,51.14916968398575
1200,21.83939224873211
1201,-26.4201483945144
1202,-66.0893752935317
1203,-70.64821217889403
1204,-38.93658346583288
1205,4.895585743939591
1206,35.688369660398166
1207,41.24184180340126
1208,34.69607500090933
1209,32.14114138721561
1210,44.38711240118391
1211,60.71405878450787
1212,64.9820505800053
1213,43.83115712988183
1214,8.50144707407344
1215,-17.047011651446155
1216,-9.914151816321464
1217,25.920093102557075
1218,59.96578891941499
1219,60.77300073799961
1220,18.421792949980954
1221,-36.73777076661281
1222,-69.92562744895622
1223,-57.63171485096791
1224,-18.045971444815223
1225,21.001663577559157
1226,35.33125030296651
1227,28.492848095491354
1228,16.646515595051824
1229,15.412310715943022
1230,29.06029064545146
1231,52.25051184242875
1232,79.40303003592271
1233,108.08790022380163
1234,140.72517667142347
1235,180.13491291029095
1236,222.95716173675282
1237,248.06197521070135
1238,231.16940465430343
1239,156.2095006507352
1240,52.302313042953756
1241,-35.82210906752698
1242,-67.17371732184802
1243,-42.342464104980536
1244,11.941697453105007
1245,68.90881347628783
1246,112.41892934117459
1247,138.0120896759763
1248,141.8483383594321
1249,125.0377185197176
1250,98.1702725334053
1251,72.906042024415
1252,58.60506786300175
1253,56.637390164754834
1254,66.66304828962348
1255,87.14208084094389
1256,109.18452566450833
1257,120.94041984763135
1258,112.18979971825138
1259,92.90270084404256
1260,86.83915803155287
1261,117.10920532535238
1262,179.07287600720156
1263,236.57020259525416
1264,251.92121684325684
1265,213.87594973978412
1266,161.42443150749023
1267,139.1666916023696
1268,174.17275871305355
1269,236.29266076011663
1270,283.7264248954034
1271,282.6440775013707
1272,244.63564419046088
1273,197.3511498045027
1274,166.4806184140707
1275,156.89407331797702
1276,161.26153704265744
1277,172.1930313416833
1278,184.41857719521795
1279,194.6981948095381
1280,199.93190361655434
1281,199.78972227335908
1282,198.09166866179658
1283,198.9777598880446
1284,204.70801228221717
1285,212.94244139800685
1286,220.6710620123231
1287,224.68388812495505
1288,220.98093295826948
1289,205.39220895691324
1290,175.13772778755265
1291,136.76750033860662
1292,100.50153672003398
1293,76.14984626310616
1294,68.43243752024318
1295,78.88931826482622
1296,108.73049549105781
1297,153.19597541383155
1298,201.82576346863607
1299,243.93986431145822
1300,269.8882818187285
1301,271.4410190872786
1302,240.53807843430877
1303,180.98946139740474
1304,122.23516873453445
1305,97.07520042412034
1306,125.73955566506447
1307,186.72823287686333
1308,249.93122969969772
1309,289.47854299455685
1310,301.1601688433984
1311,287.7261025492953
1312,253.55633863664661
1313,215.9208708513761
1314,198.2896921611682
1315,221.52279475571777
1316,272.06017004701425
1317,312.2818086696261
1318,305.7577004810191
1319,254.58783456191486
1320,199.21219921662305
1321,181.10078197344774
1322,211.17356958507844
1323,257.36054802901526
1324,284.4817025080247
1325,276.26701745060564
1326,254.1764765114658
1327,244.13006257206143
1328,262.2577577411048
1329,296.85954335514
1330,331.32539997909953
1331,353.57530740693073
1332,370.06924466219607
1333,391.9871899987156
1334,427.4591209012542
1335,466.67501408618045
1336,493.29484550219604
1337,493.67859033106106
1338,476.73622298834016
1339,462.71771712419104
1340,470.2530456241402
1341,496.36218060992724
1342,523.4150934403406
1343,534.0717547120566
1344,522.8721342605568
1345,495.1062011610211
1346,456.43392372925337
1347,412.3052695226488
1348,367.8802053411455
1349,328.3786972282469
1350,301.18071047202466
1351,297.0662096061533
1352,327.0651584110001
1353,389.89751991468074
1354,459.16325639419483
1355,505.3623293765231
1356,510.12469963982403
1357,484.96032721456504
1358,446.3291713847502
1359,407.64119068912987
1360,371.5663429224387
1361,338.40458513667727
1362,310.13587364237173
1363,296.50016400991444
1364,309.4774110708786
1365,356.7275689193775
1366,420.2005909134332
1367,472.28642967639644
1368,488.6750370983591
1369,470.6663643375905
1370,431.58036182201795
1371,384.98697925071247
1372,346.15616559540103
1373,331.3578691020084
1374,354.60203729220484
1375,398.968616964994
1376,425.49755419832763
1377,397.2587943506969
1378,322.6722820628311
1379,249.3579612593203
1380,224.6057751503522
1381,254.0256662333959
1382,300.0775762949652
1383,324.0214464123619
1384,317.3272169554839
1385,308.69482758860977
1386,328.61421727225024
1387,378.64532426499136
1388,418.2080861253635
1389,403.7824397137538
1390,327.8483211943312
1391,244.56566603696956
1392,213.98440901924914
1393,261.3244842284075
1394,342.17582506338476
1395,403.8783642368471
1396,414.61203377724087
1397,391.1667650308864
1398,357.20248866406473
1399,328.14913466517464
1400,297.2266323468484
1401,253.97491034814993
1402,194.62389663675094
1403,136.06351851117506
1404,99.19370260301548
1405,99.2943748792095
1406,131.92546064432645
1407,188.34688454287425
1408,258.24857056163455
1409,325.24044203202357
1410,371.3524216324622
1411,383.1344313907739
1412,366.9363926866263
1413,334.668226253958
1414,298.0098521834716
1415,267.4111899251002
1416,252.9621582905438
1417,260.77267545579525
1418,275.12265896371537
1419,272.9320257265972
1420,237.52069202879102
1421,190.12857352932406
1422,165.92558526456196
1423,193.31164165087284
1424,256.98665648733186
1425,324.43054295844377
1426,366.5932136368774
1427,378.5245804862552
1428,365.3645548639124
1429,334.0030475237254
1430,303.4099686189511
1431,297.9452277050732
1432,336.9287337426922
1433,400.980395100416
1434,452.8001195578054
1435,459.9178143083045
1436,429.11338596221503
1437,385.8967405497042
1438,354.19778352380126
1439,343.66641976345636
1440,356.9225535765854
1441,394.5260887031709
1442,439.9669283183539
1443,468.2049750355782
1444,457.8801309097307
1445,419.4522974403244
1446,379.3613755746992
1447,361.77726571123094
1448,370.53986770258416
1449,399.3190808589734
1450,440.47480395145794
1451,476.3769352152394
1452,484.43537235301847
1453,447.02001253831077
1454,387.61075241887556
1455,349.8174881200721
1456,369.92011524831287
1457,424.97852889449314
1458,463.8326236374687
1459,443.06229354753486
1460,379.8774321899509
1461,319.30793262847146
1462,299.84368742890183
1463,311.20458866267836
1464,321.6905279104776
1465,304.5313962658365
1466,267.29708433878295
1467,231.86748225954216
1468,217.04247968218806
1469,221.43196578839343
1470,235.76582929113465
1471,250.07395843846462
1472,250.3562410172981
1473,221.13256435719995
1474,154.44281533422327
1475,83.02688037474945
1476,53.254645459352105
1477,96.13599612669714
1478,167.19081747745076
1479,198.8189941782166
1480,143.37041046549348
1481,41.684950149641736
1482,-40.92750338109545
1483,-55.61706715658511
1484,-18.643858620753235
1485,37.6220043724752
1486,85.06040356327867
1487,110.47122029003003
1488,103.94433549344103
1489,64.67962972071473
1490,20.026983129715518
1491,2.746275493169378
1492,30.277386202880734
1493,79.02019427398227
1494,118.54457834917775
1495,128.38041670304483
1496,111.15758724631996
1497,72.84596753025835
1498,23.835434750935747
1499,-16.544134246341855
1500,-28.04286296266946
1501,-5.150875241122776
1502,32.28170473767568
1503,62.07475246000831
1504,75.0981430835418
1505,81.35175144181994
1506,91.9854520487952
1507,102.49911910334777
1508,88.90262649386386
1509,27.525847802813587
1510,-64.89134368864325
1511,-128.9390749960403
1512,-106.69747342695155
1513,-7.256666576327916
1514,101.11321767819027
1515,152.30205118098456
1516,139.83970550318554
1517,101.02605194742318
1518,71.41096155259766
1519,57.07430509867663
1520,46.36595311149358
1521,29.17577586759944
1522,10.043643399108987
1523,0.6894254985727457
1524,9.562991723863888
1525,24.124211403126537
1526,23.632953639669722
1527,-6.070912683042479
1528,-46.957518896429974
1529,-71.10699654179734
1530,-60.03947736531154
1531,-30.90509331296198
1532,-9.273976525513717
1533,-10.256259333413254
1534,-18.402074251702288
1535,-12.83155397488008
1536,14.415168628207539
1537,42.42796051955884
1538,46.606688497162395
1539,19.05121920023157
1540,-19.338580885596457
1541,-45.22284542302623
1542,-52.29170821782827
1543,-56.73530321357248
1544,-75.51376448632436
1545,-107.29722623932867
1546,-132.09582279766255
1547,-130.419688602904
1548,-102.36895820771679
1549,-63.20376627048245
1550,-27.554247549875072
1551,0.7794631005799602
1552,24.247230737948485
1553,44.038920335375224
1554,51.744396787566075
1555,34.85352491631238
1556,-13.303830523987926
1557,-70.43780484077251
1558,-105.24853339774018
1559,-98.34615160928115
1560,-72.16079493484176
1561,-58.22259887331529
1562,-73.54169895739324
1563,-99.11823074788845
1564,-110.63232982807494
1565,-97.32413179796276
1566,-72.35377226858873
1567,-51.10138685626225
1568,-40.3771111768383
1569,-36.18108083990592
1570,-34.22343144301158
1571,-38.814298565841455
1572,-62.00381776438917
1573,-113.50212456510053
1574,-172.30935445902287
1575,-197.73564289589194
1576,-157.6711252782461
1577,-85.59593695550393
1578,-44.20021321800414
1579,-79.2840892910699
1580,-154.38770032901448
1581,-208.3711814091639
1582,-200.88466752582644
1583,-157.45829358427181
1584,-116.6221943946839
1585,-103.16650466609462
1586,-112.95135900029527
1587,-138.0468918857423
1588,-164.47323769144714
1589,-169.72053066081753
1590,-132.4889049055255
1591,-71.6484943993346
1592,-44.8594329719017
1593,-104.07185430259233
1594,-215.65589191423896
1595,-290.6316791669087
1596,-255.06934925166752
1597,-147.03903518427433
1598,-52.09086979892163
1599,-34.72498574191377
1600,-68.16151546535366
1601,-101.13059122078994
1602,-101.57234505288943
1603,-88.84690879303707
1604,-90.58441405295162
1605,-116.40499221830032
1606,-145.27877444226397
1607,-153.7358916390931
1608,-133.93647447767398
1609,-95.21065337503933
1610,-47.93855848989915
1611,-5.40031971613098
1612,17.153933323739693
1613,8.25407128506049
1614,-15.620034892384865
1615,-25.60851397782062
1616,-1.1214944429011666
1617,42.8908955448951
1618,81.98852812886435
1619,97.74127576970386
1620,86.96901125217664
1621,48.9716076917357
1622,-8.82106145878788
1623,-66.51912240249294
1624,-103.36270099171634
1625,-103.64192272131004
1626,-56.476912721909684
1627,44.76220424681014
1628,165.01530380289842
1629,244.93226194890303
1630,238.37295507867202
1631,174.17725998413516
1632,106.91505386215067
1633,76.0962143213219
1634,74.26061938884777
1635,84.87814751740189
1636,95.3286775919787
1637,100.00208893681884
1638,94.33826132228387
1639,81.78707497179312
1640,74.3384105687528
1641,82.62214926350316
1642,97.07817268027065
1643,95.41636292415205
1644,61.25660258809148
1645,13.428774759888256
1646,-16.547236970778613
1647,-8.931548505359387
1648,19.455724770652523
1649,44.794467994737715
1650,53.42456683443925
1651,49.28590749443174
1652,38.168376723619076
1653,27.371861822233768
1654,25.806250648958667
1655,40.86143162806184
1656,64.94729375652787
1657,82.05372661122601
1658,80.41062035606956
1659,69.46786574919497
1660,65.10535415016784
1661,76.02297752717095
1662,92.62062846422486
1663,102.47820016841979
1664,95.89558647716876
1665,66.93268186542264
1666,11.20938145297987
1667,-56.29441898827463
1668,-105.8088230270696
1669,-112.80393356544118
1670,-90.97985283142953
1671,-69.75668237176251
1672,-69.3345230445193
1673,-78.88347501178578
1674,-81.15363773229728
1675,-66.00510995409422
1676,-35.49798970711163
1677,6.717625704175589
1678,49.80163970817193
1679,76.25395647356163
1680,71.11448091671446
1681,42.483118709129485
1682,9.709776284878899
1683,-12.105639151965079
1684,-24.563219619845768
1685,-33.283056352278436
1686,-42.47523979034486
1687,-53.609859575230075
1688,-67.4870045407024
1689,-76.236762705621
1690,-63.34922126640777
1691,-16.524466589526128
1692,37.45741579605237
1693,51.876341206403595
1694,-3.027774189798947
1695,-89.60501336372181
1696,-153.87545841881
1697,-167.95919058318032
1698,-153.10629020205124
1699,-135.40683673012973
1700,-128.3709087240277
1701,-133.6385838346141
1702,-150.37993879941132
1703,-162.1550494349649
1704,-145.14399062918528
1705,-89.09683633371787
1706,-31.363659556274797
1707,-19.224532352969618
1708,-62.779525820664276
1709,-111.19871008925111
1710,-111.7421543140099
1711,-73.77992666787031
1712,-56.94209433375363
1713,-109.0287234968182
1714,-194.58987933677963
1715,-246.1156260201642
1716,-226.24602669259002
1717,-180.5411434710186
1718,-167.4710374360293
1719,-196.3157686240429
1720,-213.405396019587
1721,-167.60997754751406
1722,-80.66957006525081
1723,-19.12422935500581
1724,-31.984010115987985
1725,-87.93896595663318
1726,-133.71914938678674
1727,-135.51461180992555
1728,-97.07540351533316
1729,-27.591573670308208
1730,41.50682968766887
1731,58.819759658754265
1732,-13.922829511435339
1733,-122.42098242399697
1734,-174.53474251888292
1735,-120.75415206707657
1736,-29.519252162743214
1737,12.399917284634284
1738,-15.956682441905286
1739,-54.909088858927134
1740,-47.447338274738286
1741,-10.521465781523148
1742,-2.2515052474591357
1743,-58.41748930886024
1744,-129.50944936226006
1745,-146.8174155565648
1746,-93.22141678513253
1747,-32.96148067790091
1748,-31.777633593486826
1749,-79.81990061127544
1750,-113.97830552353116
1751,-86.44287082748633
1752,-27.563617717432862
1753,9.289433923193428
1754,-3.6237344702822156
1755,-44.993140135838985
1756,-88.49879897685969
1757,-117.8007255542052
1758,-124.81893307827522
1759,-105.19343340109845
1760,-74.09423700839397
1761,-53.53135301164184
1762,-57.93478914016123
1763,-85.17455173316375
1764,-130.1606457318121
1765,-172.36307467130428
1766,-177.0018406729214
1767,-118.88694443608256
1768,-35.7983852304169
1769,10.413839112185087
1770,-9.590267794479587
1771,-49.070700883003155
1772,-52.637453624396585
1773,-14.970518020158124
1774,21.010115405661054
1775,18.70445761441988
1776,-5.317478939163266
1777,-13.685680299100568
1778,13.46986899986041
1779,54.89918594014307
1780,84.57228902929455
1781,99.52919830795872
1782,118.69993535777394
1783,155.59452330934437
1784,185.72298685017813
1785,170.38535223262988
1786,100.48164728182383
1787,31.771901403621087
1788,24.916145592533212
1789,69.88441243965826
1790,95.03673614063882
1791,46.693152503567035
1792,-20.226301043072453
1793,-14.7715854424805
1794,91.33733999839569
1795,205.39051761677365
1796,227.62799140196148
1797,160.60980700328219
1798,84.396011737972
1799,61.646654599122485
1800,68.09178626356697
