800,176.18824908697115
801,188.79102849750598
802,179.9478578408516
803,153.52887070966517
804,119.2781998898663
805,87.01097736137945
806,64.64533429889798
807,53.54440107268147
808,53.65730724937748
809,64.84018159285006
810,83.65015206506268
811,102.51634582695806
812,113.61088923937587
813,110.49290786399706
814,97.54952646429683
815,84.25786900654202
816,80.1100586607945
817,89.78621780193953
818,105.78446801075825
819,118.70393007498478
820,119.56472399042104
821,107.61496896206154
822,89.68778340523022
823,72.89428494675849
824,62.76359042616423
825,56.56981589687712
826,48.88907662745896
827,34.364487102865496
828,12.170161025721427
829,-10.712788682384598
830,-26.533249879585128
831,-28.466111202385036
832,-19.81926206431217
833,-10.181592654543238
834,-9.230993936486811
835,-21.555357646384437
836,-35.357576291855366
837,-35.54854315045213
838,-7.731152268168444
839,43.854701542042676
840,94.6421227017945
841,119.0422148688067
842,97.13808093844091
843,43.14782304528944
844,-15.97545743524006
845,-53.40065988531478
846,-55.669684443053484
847,-34.212432000878835
848,-3.1578042038481726
849,23.882296552006665
850,39.15696712140016
851,38.65930361148912
852,18.442401383618744
853,-21.320644944945343
854,-67.47474149923437
855,-104.30279514481117
856,-116.64271348596048
857,-102.31740486387935
858,-72.45077835485245
859,-38.75674376839561
860,-11.462211645401112
861,7.087906743737221
862,17.153699401025733
863,18.994253602768367
864,12.920655901493774
865,-0.6670078721062964
866,-21.36365260722414
867,-48.13419391097705
868,-74.40854810641122
869,-90.757632230524
870,-87.74436403224172
871,-61.29866197039428
872,-20.22044521169846
873,24.79636637131989
874,63.32885220237131
875,88.94009100348467
876,98.23516079710862
877,87.89913890819298
878,57.61810196632541
879,17.883125907850626
880,-18.393714021984124
881,-38.63434326688275
882,-39.08268795732329
883,-25.47567490838628
884,-4.01923161756622
885,19.403713737436192
886,40.58923230091932
887,55.88639454141139
888,61.74127025390408
889,60.079928562101486
890,60.8534379206767
891,74.65486611753659
892,109.80428027611015
893,157.86374685763258
894,202.87633166344767
895,228.92309983731593
896,228.71811586773856
897,211.7934435902871
898,189.6191461899425
899,172.85828620345183
900,163.96892552167446
901,160.58112539196554
902,160.26594642054624
903,160.84644857489275
904,160.77469118613408
905,158.59873295145098
906,153.0436319365017
907,145.36444557782943
908,138.6812306853035
909,136.1460434445553
910,139.5299394194244
911,146.21497355440897
912,152.7162001771385
913,155.76467300083368
914,156.1134451267917
915,158.0945690468643
916,166.16509664595924
917,181.37507920452572
918,191.68456740108286
919,181.9196113147018
920,137.76526042755722
921,66.25156362743382
922,-3.4524307897354447
923,-41.14067511732719
924,-24.876122235486946
925,30.07027439142439
926,97.97156071738664
927,153.51978211728874
928,184.81498338948404
929,195.65720875838178
930,190.74150187701343
931,174.75590582962013
932,152.33146313425095
933,128.07821574534046
934,106.57420505632581
935,90.9104719022398
936,82.27505656232734
937,81.73199876265062
938,89.63833767870983
939,102.42211193807361
940,115.15835962298661
941,122.97311827301928
942,123.02642488768652
943,115.2413159290918
944,99.74182732456757
945,77.34299446931891
946,52.8658522290707
947,32.58043494271533
948,22.640776424977958
949,23.788909969058295
950,29.249868349299504
951,31.689683823851738
952,25.434388137327915
953,14.551012523484133
954,6.6365877078724225
955,9.151143910535211
956,23.133710848659575
957,40.745317739261736
958,53.498993301862356
959,54.35476576117435
960,44.54066284977034
961,28.20671181077978
962,9.498939400556992
963,-7.879628108607903
964,-20.81296492583624
965,-26.225045738940025
966,-22.634845711755588
967,-17.10334048144705
968,-19.541506155812385
969,-39.566319310593826
970,-76.4297569867922
971,-116.55579668797145
972,-145.55641637756162
973,-151.98659447617683
974,-138.66930985891304
975,-112.75354185266315
976,-81.42727023342286
977,-52.879475223599
978,-36.41813748931418
979,-41.41623813772276
980,-72.41075871431622
981,-113.3706812002356
982,-142.803988009583
983,-140.15666198673262
984,-106.27068640364178
985,-63.03704495717284
986,-33.25072176640424
987,-32.25570136994247
988,-48.55796872325027
989,-64.62950919596005
990,-63.92730856920207
991,-46.97635303291918
992,-28.62162918319791
993,-24.158124019593743
994,-42.243824942464016
995,-71.94271975029824
996,-98.70679663704595
997,-109.08104418946095
998,-103.66345138443558
999,-92.810007586344
1000,-87.05670254438701
1001,-92.25752638993345
1002,-103.20346963387601
1003,-113.08852316397952
1004,-115.1036782422425
1005,-103.93692650224784
1006,-84.40625994652873
1007,-65.49467094393276
1008,-56.10615222699926
1009,-60.193696889316016
1010,-74.61629838290446
1011,-95.6789505156039
1012,-119.27464744844292
1013,-139.07738369303934
1014,-148.0061541089799
1015,-139.2909539012253
1016,-116.04177861750304
1017,-92.99162414571583
1018,-85.54148671135044
1019,-103.20236287488387
1020,-130.5832495292052
1021,-145.71814389704286
1022,-127.9130435283787
1023,-82.41894629789022
1024,-38.517850402381555
1025,-26.417754358226375
1026,-61.397656998813545
1027,-111.69455747200118
1028,-136.30445523756862
1029,-98.14835006468275
1030,-11.804242029359557
1031,71.89486848805245
1032,101.45698080540296
1033,54.70909394125465
1034,-23.928793382609
1035,-80.81368273868156
1036,-69.1265759912294
1037,-0.5954752938041565
1038,83.37961691324472
1039,141.48469790525542
1040,154.6717646757188
1041,139.5128139387507
1042,115.78384213155732
1043,100.05684541688242
1044,91.08981968545777
1045,81.49476055845207
1046,64.21366338989446
1047,41.596523269114186
1048,26.311335023152424
1049,31.55509321918271
1050,63.443792166915046
1051,103.08242592100305
1052,126.0509882834267
1053,110.16047280588373
1054,63.9998727921793
1055,18.49518130057095
1056,5.002391146163063
1057,37.05049490324291
1058,89.13948490763596
1059,130.58235325904934
1060,135.28609182340188
1061,111.69169223515019
1062,83.95414589961274
1063,75.90344399527112
1064,93.70757747607877
1065,119.78053707374966
1066,134.8483133000509
1067,125.27689644907241
1068,101.27227659950768
1069,79.32744361689856
1070,74.89338715590384
1071,86.38209666253897
1072,98.4335613764033
1073,95.32177033291737
1074,70.10671236554117
1075,36.38837610797691
1076,10.694749996376231
1077,7.267822271532168
1078,22.81758098105456
1079,45.98201398155743
1080,65.51310894081598
1081,76.4378533399231
1082,81.92623447543883
1083,85.69023946152902
1084,90.7248552320907
1085,97.23506854287461
1086,104.76286597359467
1087,112.80223393002598
1088,120.18615864609819
1089,125.29762618598124
1090,126.49662244614683
1091,122.10313315744224
1092,110.35514388713182
1093,89.47964004095229
1094,58.64460686513485
1095,22.508029448433263
1096,-12.300107275859773
1097,-39.365818527918236
1098,-57.235119679387026
1099,-69.34802625138218
1100,-79.34955391254789
1101,-88.6717184770705
1102,-92.84753590272976
1103,-86.43002228896603
1104,-65.69719387494024
1105,-40.77706703761123
1106,-28.50965828982953
1107,-45.23198427843727
1108,-87.36006178236858
1109,-126.2479077107846
1110,-131.62553910119004
1111,-86.82497311758834
1112,-21.341227048621477
1113,25.527681694257808
1114,18.620735578619133
1115,-34.39208304713975
1116,-100.6717919519806
1117,-147.3574090204338
1118,-158.91895225081498
1119,-145.43843975345771
1120,-119.07188974894962
1121,-90.76632056638209
1122,-66.71275064161546
1123,-51.93519851555084
1124,-50.825682832414714
1125,-60.37222233805187
1126,-72.7128358782411
1127,-80.0125423970012
1128,-81.81436093492812
1129,-89.42531062753733
1130,-115.21241070360884
1131,-165.6576804835604
1132,-222.75113937781953
1133,-262.1138068852042
1134,-261.64870259133204
1135,-227.16484616702655
1136,-183.0402573667343
1137,-153.74895602696688
1138,-148.01396206474237
1139,-149.68029547604056
1140,-140.38597633427253
1141,-108.74502478877093
1142,-71.13046106326601
1143,-50.83330545440367
1144,-68.24057833025745
1145,-111.46330012886028
1146,-148.53649135673368
1147,-147.6891725874575
1148,-102.62436446021911
1149,-43.57208767840257
1150,-3.60736300816734
1151,-4.496211277056318
1152,-28.822653372600143
1153,-50.69571024095694
1154,-47.314402885535856
1155,-24.006752365651664
1156,-1.092779795190836
1157,1.4974936587241245
1158,-18.585953222964235
1159,-42.60514170994065
1160,-50.58209312122381
1161,-32.264828823898824
1162,-4.149370231849389
1163,12.71026119549424
1164,1.130043954397479
1165,-29.7070435019632
1166,-59.66102276226957
1167,-69.48691545587917
1168,-58.767743251614775
1169,-44.47952785660436
1170,-44.18529101511376
1171,-64.45305450738942
1172,-89.75384014852352
1173,-101.89966978733082
1174,-88.68456530522599
1175,-65.88754861513189
1176,-57.46564166038843
1177,-84.58586641367583
1178,-135.2932448759475
1179,-175.9977990753905
1180,-173.36955106637834
1181,-122.93452292844995
1182,-59.74573676530326
1183,-21.738214703777885
1184,-32.22497889289389
1185,-71.18505150285546
1186,-110.59545472410537
1187,-125.98221076636946
1188,-117.1613418577208
1189,-94.07287024366542
1190,-66.39181818621819
1191,-38.26520796302066
1192,-9.029061866448501
1193,22.121597797256072
1194,55.16874870884567
1195,88.62736853690967
1196,120.85543493870682
1197,148.47392556099203
1198,161.54981804080853
1199,148.60309000629604
1200,100.91271907746705
1201,33.09568286697049
1202,-28.509041019145116
1203,-58.55847498070398
1204,-57.010641422648405
1205,-49.0405627543505
1206,-60.76926138889121
1207,-97.85575974237236
1208,-125.86108023324414
1209,-105.6712452816364
1210,-14.484277308707533
1211,104.39180126399515
1212,190.89096801515916
1213,192.91320052432184
1214,128.3804763724729
1215,51.41977314263568
1216,14.53306842044367
1217,25.782339794711334
1218,49.31256485796075
1219,47.568721206985174
1220,5.007786443349687
1221,-52.78926182608757
1222,-95.70544598868491
1223,-101.19778842552569
1224,-74.7153115109495
1225,-28.163037612101107
1226,26.171010911528356
1227,73.20381170852306
1228,96.54934243596745
1229,81.10258075985257
1230,34.1075043554747
1231,-18.228909092194044
1232,-49.29568188812482
1233,-44.998836326882156
1234,-10.481394692283175
1235,47.46362074293938
1236,118.82518771745254
1237,184.38828398162514
1238,223.29688729782265
1239,220.09497544068836
1240,189.2205261974077
1241,155.3725173679586
1242,141.09792676536654
1243,144.6627322159202
1244,149.08091155938837
1245,137.68044264923628
1246,109.17330335280076
1247,79.1744715514833
1248,64.09492514089925
1249,71.41764203104867
1250,91.49460014645229
1251,112.73477742626801
1252,125.84815182442526
1253,129.563701309713
1254,124.33640386588559
1255,111.62223749172608
1256,99.25818020112365
1257,97.59921002312058
1258,116.17030500196324
1259,153.95044319711906
1260,202.74560268330788
1261,254.04776155049058
1262,294.7538979038709
1263,306.51998986388116
1264,270.87501556613825
1265,188.63195316140536
1266,97.24478081553661
1267,38.28247670940618
1268,37.998019038830535
1269,72.70038601447777
1270,108.53555586175298
1271,117.49150682069558
1272,104.90821714583763
1273,87.91966510607472
1274,82.44082898450688
1275,91.59168707827666
1276,110.96721769839041
1277,135.8463991695362
1278,156.88120982987584
1279,160.36862803084205
1280,132.67263213690967
1281,73.68620052536244
1282,3.541311586044685
1283,-55.980056278891425
1284,-90.50092465526177
1285,-103.45531511712579
1286,-100.88524922708712
1287,-87.31074853658902
1288,-61.24983458623683
1289,-19.73652890611902
1290,38.492146983846396
1291,103.65117157357236
1292,161.5215233624349
1293,199.03518085890028
1294,216.1281225801431
1295,220.88832705165441
1296,221.21777280683455
1297,218.3474383865714
1298,207.17230233881855
1299,182.48234321815744
1300,146.54953958534043
1301,112.3168700068336
1302,93.5373130543494
1303,97.75984730435812
1304,119.14945133759738
1305,150.13610373856773
1306,183.969783095019
1307,216.68146799742317
1308,244.86313703843916
1309,265.1747688123678
1310,274.59234191459564
1311,270.1908349410205
1312,250.70522648748465
1313,228.11049514917522
1314,220.734619520038
1315,244.57957819215517
1316,284.7313497551431
1317,304.69991279550413
1318,269.41524589599976
1319,186.845327635001
1320,107.79413658582234
1321,84.09565131606541
1322,127.548850386921
1323,193.6127123524966
1324,233.68021575910916
1325,224.23233914458433
1326,191.72506103752403
1327,168.54435995659696
1328,175.07921440978407
1329,197.6576028936479
1330,216.5945038925638
1331,217.68389587795355
1332,209.097757307527
1333,204.72006662447893
1334,215.42180225670108
1335,234.4519426159868
1336,248.6674660972094
1337,247.07735107750705
1338,236.96157591545216
1339,234.77811895021023
1340,255.0869585006949
1341,287.78107286470913
1342,305.9714403180842
1343,283.9940391138025
1344,226.39184748111347
1345,165.0558436246465
1346,132.13300572351181
1347,135.54831193038444
1348,154.30374037060392
1349,165.92526914123027
1350,161.86887631012814
1351,155.379539915014
1352,161.54523796251578
1353,185.6659484272095
1354,213.02164925065972
1355,226.44631834044048
1356,214.6069335691609
1357,181.86447277347088
1358,135.1829137530749
1359,84.35523426971213
1360,49.088412046160556
1361,51.290424765214084
1362,103.64625006865026
1363,176.43086555620357
1364,227.69024878452365
1365,223.7973772661271
1366,180.97922846833717
1367,133.92177981223722
1368,113.18200867157975
1369,116.84889237173138
1370,127.81740818857452
1371,130.6115333474345
1372,127.2842450219623
1373,130.08952033305468
1374,149.8973363477271
1375,177.23567007801194
1376,188.11249847982435
1377,159.9947984518476
1378,102.43754683438601
1379,52.730720408237175
1380,47.64029589353322
1381,87.7862499485991
1382,136.2885591687882
1383,155.35520008532058
1384,136.9991491641149
1385,110.04338280461252
1386,105.17987733859627
1387,131.0716090290025
1388,164.25155406873182
1389,178.86968857945521
1390,163.62898861040867
1391,132.20143013718553
1392,100.68298906052678
1393,80.56064120510291
1394,74.07736231829222
1395,82.35712806895481
1396,102.73391404620361
1397,123.71169575816202
1398,132.5494486307325
1399,122.56614800634452
1400,103.36976914270872
1401,87.28928721156444
1402,83.97267729742362
1403,94.79091439630156
1404,119.52497341446451
1405,154.10382916714752
1406,180.92145637729027
1407,179.3928296742606
1408,137.68992359256754
1409,78.82571257058498
1410,34.46617094925659
1411,29.214272970815728
1412,56.13399277748431
1413,99.52030441017996
1414,145.35318180721333
1415,187.97659880298852
1416,224.31052912669475
1417,250.34394640100527
1418,257.0288241407534
1419,233.61313575163695
1420,174.94285452888653
1421,109.02695365595537
1422,76.05840620320396
1423,107.40918512656299
1424,177.72226326622786
1425,239.28561334531696
1426,251.32320796854947
1427,221.20501962092203
1428,176.4790206663647
1429,142.84518334641598
1430,131.8344797788941
1431,148.72988195654852
1432,196.20336174573094
1433,257.19689088505584
1434,305.53444098406726
1435,318.81198352188676
1436,305.1774898458889
1437,287.3739311703439
1438,285.1722785750899
1439,293.0245030041824
1440,292.9775752645555
1441,270.2644660246797
1442,237.69914581321518
1443,221.83658501767331
1444,245.39175388307558
1445,297.6286225106005
1446,351.00716085625845
1447,380.9123387295358
1448,388.75412579206113
1449,389.0014915562597
1450,394.1364053840207
1451,399.08183648535214
1452,390.0157539170468
1453,355.288126581343
1454,301.56892322459225
1455,244.50211243592548
1456,198.79366264591317
1457,171.23954212524495
1458,164.86171898339126
1459,181.40916116728386
1460,213.14783645998432
1461,247.9757124793614
1462,273.7807566767733
1463,278.60493633574333
1464,250.55621857065034
1465,182.18057032540582
1466,96.29395837214997
1467,28.340349309940393
1468,7.678709563445409
1469,24.564005381641437
1470,53.93020283651458
1471,73.58626782176634
1472,78.52316605151373
1473,69.97986305900758
1474,50.08732419534226
1475,25.702514628173958
1476,5.271399340446806
1477,-5.246056870890243
1478,-12.091889396141596
1479,-25.247133814141307
1480,-51.09482589350955
1481,-80.09800159390761
1482,-98.30869706729754
1483,-94.57194865917518
1484,-68.77179290983167
1485,-23.5182665555767
1486,34.86059347002629
1487,87.04375003492714
1488,110.86016580737669
1489,93.01180325470159
1490,47.519624642104645
1491,-6.358407968555184
1492,-52.08633271994222
1493,-80.4781879604534
1494,-83.59201224539356
1495,-62.00684433816059
1496,-36.15472321141897
1497,-29.192688048262426
1498,-48.91977824337391
1499,-72.25103340418536
1500,-72.63349335201929
1501,-43.37619812322828
1502,-12.079187970319254
1503,-9.272503363093165
1504,-39.52918498974486
1505,-69.16127375798715
1506,-62.3348107961383
1507,-17.256837454221568
1508,25.277604694947513
1509,23.350473854694428
1510,-23.966271996597243
1511,-74.31767510652844
1512,-85.47377794974909
1513,-56.66162322899254
1514,-23.768253876107337
1515,-21.506713053090607
1516,-50.220044153087656
1517,-85.03229080141136
1518,-102.25649685653116
1519,-97.17570641105249
1520,-76.4999637927067
1521,-47.75931356530418
1522,-23.876800529693355
1523,-20.405469724716568
1524,-48.948366428124245
1525,-95.95553615751851
1526,-138.06702467125433
1527,-155.95787796934928
1528,-150.29314229437387
1529,-127.84486413232389
1530,-97.14009021350466
1531,-73.29386751337006
1532,-72.98724325338571
1533,-102.07926490185037
1534,-134.99398017472413
1535,-140.55143703643807
1536,-105.95568370068486
1537,-59.463768631217135
1538,-34.667740542606225
1539,-45.59764840101161
1540,-72.6705414249218
1541,-93.26646908589464
1542,-96.7754811092691
1543,-88.47462747488044
1544,-74.64895841775069
1545,-59.59252442877096
1546,-45.57237625535981
1547,-34.89556490213272
1548,-31.795141631516344
1549,-41.98715796439319
1550,-69.79966568070176
1551,-105.00471682002899
1552,-128.9233636821964
1553,-125.31965882782151
1554,-96.03165507886752
1555,-50.65440551917982
1556,-0.6629634950013497
1557,33.37361738452
1558,28.044283246847044
1559,-26.706020044423894
1560,-94.14634689001196
1561,-127.33775195539329
1562,-103.6372901712266
1563,-60.52101673375455
1564,-44.34198710520377
1565,-75.13725701414023
1566,-126.51088245584288
1567,-167.7759196926263
1568,-185.31842525417323
1569,-187.12245593783246
1570,-182.39506880890622
1571,-176.84632120091374
1572,-173.01927071584396
1573,-172.90397522438798
1574,-173.28449286614705
1575,-167.61188204982955
1576,-150.24120145342567
1577,-122.63651002436382
1578,-89.42486697964523
1579,-56.71833180596968
1580,-37.642964259819564
1581,-47.43782436755009
1582,-91.89097242544267
1583,-146.85046899974805
1584,-182.30137492669928
1585,-181.56075131251237
1586,-156.0436595333631
1587,-120.6111612353443
1588,-84.3543183344018
1589,-48.174193016248864
1590,-12.81884773625734
1591,10.829654780664896
1592,2.1172515402331555
1593,-56.41212072105827
1594,-140.07652553572552
1595,-196.90202670508825
1596,-183.4856882990316
1597,-119.4475746557464
1598,-51.154750381439044
1599,-16.876280350034904
1600,-19.52322970284331
1601,-52.512663848201555
1602,-103.32764846111058
1603,-143.60124948282282
1604,-142.68253312042634
1605,-99.34356584639318
1606,-62.309414398113404
1607,-83.03614577739063
1608,-153.1288272499287
1609,-198.61252634477842
1610,-149.3483108537821
1611,-30.803248830957273
1612,64.13559140810503
1613,56.72814128690334
1614,-17.842668031315043
1615,-73.98390564285546
1616,-48.04464090284091
1617,28.873056575529517
1618,100.45311692175801
1619,127.74847000885438
1620,115.78004545416661
1621,76.44177262023368
1622,23.81758061567234
1623,-24.67260170390273
1624,-51.89684573494924
1625,-53.37222312503127
1626,-36.66180577181149
1627,-9.668665822039657
1628,21.22612432951155
1629,50.51549204111325
1630,73.19636442520277
1631,87.03066834951278
1632,90.72533043825388
1633,84.95227707328922
1634,76.48743439538703
1635,73.23372830545668
1636,77.72208446584682
1637,82.84442830165972
1638,80.8106850021004
1639,72.36877952185023
1640,67.36963658247987
1641,74.93618067389161
1642,90.9973360557824
1643,103.16802675915733
1644,101.9451765878548
1645,95.27170912011297
1646,97.34354771017934
1647,115.66661548992852
1648,136.87783537052837
1649,143.6951300441433
1650,130.80642198564783
1651,113.59263345440831
1652,108.69868649605633
1653,114.390502944334
1654,110.7420044229466
1655,80.49111234746488
1656,40.02574792724863
1657,24.661832167415923
1658,58.41928587084476
1659,109.18802964019505
1660,127.83098387999235
1661,91.40806879872434
1662,43.56120441098119
1663,37.56231053962529
1664,88.8003068180169
1665,160.33811269224225
1666,212.9936474234155
1667,231.96883008997884
1668,221.1275795900774
1669,186.46281464393996
1670,145.05145379631904
1671,118.54241541894316
1672,119.37361771304404
1673,129.12897871188034
1674,123.15141628332731
1675,93.81184813250093
1676,62.80019180440286
1677,53.320364686625
1678,60.324284012087446
1679,52.686866861808994
1680,4.373030167716934
1681,-60.846309284494964
1682,-94.8872348524701
1683,-66.84483003426158
1684,-12.982178465359539
1685,14.445636084325088
1686,-5.451470286485346
1687,-33.631581607341104
1688,-26.358782032926683
1689,12.333844160117224
1690,31.100212576404374
1691,-14.427761294921766
1692,-90.67916207689632
1693,-124.32207450138594
1694,-68.91358340569332
1695,15.096226270859916
1696,41.465269490417086
1697,-21.471538879897707
1698,-102.84128406442687
1699,-123.85805137536772
1700,-79.18892620913357
1701,-33.120994042653365
1702,-43.073340429640666
1703,-90.31805099681424
1704,-120.18921144007345
1705,-95.7219075206267
1706,-42.677225061068384
1707,-0.2462499414350532
1708,12.390931904812533
1709,8.925234494840879
1710,5.030571800540201
1711,-1.0731422473299972
1712,-25.284993754949937
1713,-77.47306886119713
1714,-127.21145373336913
1715,-128.54123456284196
1716,-64.70949756069058
1717,0.892671046729447
1718,-6.960814977724112
1719,-92.9080418774729
1720,-171.1520958976298
1721,-158.846063280389
1722,-71.15103026034376
1723,16.621916940222036
1724,43.68769211611652
1725,17.477209084050628
1726,-35.800618312482584
1727,-89.2108761983036
1728,-114.49265066156022
1729,-85.57702774871359
1730,-22.235093459461496
1731,14.676066258375613
1732,-23.29963448595663
1733,-91.69128152093162
1734,-108.04296060745492
1735,-31.187757433535808
1736,65.89924239109132
1737,92.72895334041186
1738,30.49328997761222
1739,-51.79983303937388
1740,-86.10450095226406
1741,-66.27679889679166
1742,-20.630811896991872
1743,25.14337514055569
1744,56.71967743253845
1745,62.58401032477104
1746,42.950289298125426
1747,16.518429974507853
1748,2.1323481228846504
1749,-1.304040334621277
1750,-8.928819316593945
1751,-30.337072576117862
1752,-47.34988369452367
1753,-33.74933607506864
1754,12.757487063416193
1755,48.697502692985836
1756,28.555627983029808
1757,-38.82721969315389
1758,-99.39412275177256
1759,-108.93716339187722
1760,-86.8364235886429
1761,-74.54398508659324
1762,-87.6809293927563
1763,-85.37633776978419
1764,-22.30229122898072
1765,85.13512947669733
1766,163.52684385972861
1767,152.66777170515525
1768,88.2258330777795
1769,42.478948329424384
1770,52.603038106251006
1771,73.50502335613055
1772,51.117825336099486
1773,-7.270634380150113
1774,-35.25343389469435
1775,19.720349022239134
1776,106.09663693997754
1777,131.65535277513663
1778,58.18141979945631
1779,-25.83123835232891
1780,-18.669697674542476
1781,75.96996621744347
1782,154.71567809528278
1783,130.45836312578467
1784,39.62494687912567
1785,-35.12764466288263
1786,-44.25748509847108
1787,-11.22064759749901
1788,31.535795106999103
1789,65.12877072734955
1790,82.50620742983756
1791,78.52903384337151
1792,56.2801790682106
1793,21.664572684774612
1794,-13.055855237505057
1795,-23.399174131235668
1796,14.139547077934367
1797,87.59823998037791
1798,158.1388366916426
1799,189.94326986165834
1800,164.08747268400202
