800,93.83098598157721
801,73.6809143621258
802,75.72964920115646
803,95.22932841647707
804,117.38108980630204
805,127.2490710507418
806,115.56540971326103
807,92.63524324212904
808,72.97770897183545
809,70.81894412447946
810,89.87308581114394
811,120.70527103323548
812,153.05363668380414
813,177.54031954884704
814,191.68845630856504
815,196.26118353862967
816,192.04163771138883
817,180.52795519708252
818,165.02527226501115
819,149.11672508469474
820,136.2484497269943
821,127.1795821652322
822,120.18825827626642
823,113.46361384155352
824,105.63578454819162
825,97.64690598993275
826,91.18911366817247
827,87.94654299292688
828,88.77332928377564
829,93.10060777079525
830,100.21851359544962
831,109.19018181148567
832,116.51374738578579
833,117.11534519920679
834,105.89311004739466
835,80.90117664158333
836,50.35167960935996
837,24.492753495429497
838,13.246532762331299
839,17.638151791153177
840,28.99574488222879
841,38.162446255782925
842,37.45439005260414
843,28.095710334651812
844,14.63454108566657
845,1.610016211760012
846,-6.895730458038088
847,-7.675565171206472
848,2.383645748757772
849,25.76603590286686
850,57.71273881711568
851,88.84988794294532
852,109.73261665769314
853,114.11005826500605
854,105.81334599525871
855,90.65361300592849
856,74.36999238196313
857,60.9306171361377
858,52.50062020936275
859,51.15513447100784
860,58.36929271919416
861,72.39222768104719
862,90.42107201297222
863,109.63995830086606
864,127.15001906034922
865,139.9123867369508
866,144.8741937063014
867,139.6205722742743
868,127.30365467714091
869,113.95857308169525
870,105.6324595853539
871,105.9514462162524
872,112.73166493330791
873,122.92724762628131
874,133.67532611580555
875,144.70803215341766
876,157.74549742153795
877,174.5538535334781
878,194.22823203339703
879,206.2367643962525
880,197.89458202773585
881,157.24481626418947
882,91.59359837250668
883,28.997059550019003
884,-1.4816690756406388
885,21.23354355331594
886,76.4398284246654
887,129.81531645599807
888,147.54213849451025
889,121.74142531680445
890,82.60530762865164
891,63.36391606475081
892,91.76538118846565
893,155.02783349155743
894,222.19940339388359
895,262.3772212431013
896,260.791417314339
897,234.07012180987113
898,202.46546485875297
899,184.50657651645906
900,181.14858676451695
901,183.0226255100879
902,180.63682258557492
903,168.81430774819364
904,153.19921067952873
905,141.1246609850814
906,139.4877881938146
907,149.26572175765523
908,167.05659105100767
909,189.36752537024313
910,212.77065393317207
911,234.04610587851948
912,250.02301026536134
913,257.76849607256736
914,258.91469219822284
915,259.1527274590371
916,264.31573058974664
917,276.6278302424853
918,284.4931549861649
919,272.98283330583035
920,228.02599360200657
921,156.62576419002016
922,87.65727329932997
923,51.014649072825705
924,68.12601956613435
925,122.33351274688539
926,186.27225649399043
927,233.05437859690028
928,250.80600675484857
929,245.26226857608708
930,223.1492915771014
931,191.55620318183173
932,159.31813072086334
933,135.83920143061187
934,130.27954245250294
935,142.86328083213266
936,162.36154351842924
937,176.78745736277233
938,176.2441491181562
939,162.37874543827638
940,140.8013728766564
941,117.11815788573767
942,96.27022681597919
943,82.30270591491171
944,79.19772132621983
945,89.56439908879474
946,108.04086513577204
947,126.39624529357206
948,136.50066528092248
949,135.02425070787285
950,125.29912707479889
951,111.159419771393
952,96.16525407565132
953,82.31675515285497
954,71.04304805452375
955,63.701257717373664
956,58.60450896227121
957,49.835926493158695
958,31.178634895995856
959,-1.4542413623403263
960,-39.967577935130976
961,-71.96425059691865
962,-85.23813524462275
963,-76.09810789865696
964,-52.145044704046086
965,-21.767821931567596
966,7.0756840211051895
967,28.756596628250918
968,38.41503923493838
969,31.388135055860403
970,9.703007174153754
971,-16.316221459781445
972,-35.81942802948288
973,-40.823489853613864
974,-37.2342843871902
975,-35.16668922277859
976,-44.4715820917354
977,-67.37784086543434
978,-97.56434355650163
979,-128.2569683200636
980,-153.16159345501728
981,-168.0220974052645
982,-169.12635876100103
983,-153.0722562599858
984,-123.49866878882858
985,-90.96447538426219
986,-66.32855523447506
987,-57.38578768037405
988,-60.908052216916985
989,-71.18622849442727
990,-82.56619631991816
991,-90.35983565841161
992,-90.69502663428466
993,-79.72764953261321
994,-56.53058480051004
995,-28.813713048481077
996,-5.8749150518051465
997,3.509928248135111
998,-2.6390642575497623
999,-21.590773846619413
1000,-50.510081967095175
1001,-84.99587023863387
1002,-116.92702045394071
1003,-137.64841458015871
1004,-138.49893476027864
1005,-113.252463314544
1006,-72.06288274186954
1007,-31.842075721264337
1008,-9.361925113258621
1009,-13.01431396132466
1010,-39.15912549332825
1011,-83.23224312295133
1012,-138.95655045114472
1013,-190.7839312675933
1014,-220.03126955213702
1015,-208.62344947625934
1016,-158.28935540453313
1017,-94.00587189609541
1018,-42.0978837061175
1019,-22.20527578727706
1020,-25.695933291244728
1021,-36.47074157015231
1022,-39.017586178108104
1023,-29.800352872654912
1024,-16.379927616286295
1025,-6.737196577940267
1026,-5.573046134504693
1027,-7.225362872311962
1028,-4.001033588658174
1029,11.101054706685318
1030,36.00301478997062
1031,62.248959221918994
1032,81.2680003462483
1033,88.1892502881019
1034,86.5618209525619
1035,81.10382402307914
1036,76.19637095996404
1037,73.35557299884749
1038,72.64654114914083
1039,74.12838619248578
1040,78.06721868122077
1041,85.06514893683743
1042,95.75328704841377
1043,109.98974287109013
1044,123.33962602448264
1045,129.88704589116605
1046,123.94811161508369
1047,106.34093210000174
1048,85.0116160079524
1049,68.27827175767015
1050,61.29800752301344
1051,58.0629312314104
1052,50.10315056229774
1053,29.620772945534554
1054,-1.8830944401652232
1055,-36.160344668793186
1056,-64.80587106863277
1057,-80.38656722382257
1058,-77.58732697594496
1059,-51.37504442560021
1060,1.286386066032719
1061,68.39906987558606
1062,131.1211121159522
1063,170.80761763468763
1064,178.94969101243078
1065,160.69243656133585
1066,122.13895832346316
1067,71.59936006922726
1068,26.66074529578691
1069,7.368217225475746
1070,32.040878804216845
1071,91.01683269993009
1072,151.99818130096173
1073,182.07502671447764
1074,164.25347076490834
1075,118.69161499233633
1076,70.84756065093461
1077,43.60240870736379
1078,40.10025983919331
1079,54.38821443332199
1080,80.41937258440521
1081,110.4928340932438
1082,134.76169846522498
1083,143.22406490873072
1084,130.17303233356506
1085,106.37369934936396
1086,86.53716426402389
1087,84.23052508210822
1088,97.7258795033049
1089,114.4633249208
1090,121.6949584197464
1091,112.90787677566368
1092,93.5711764528769
1093,70.53595360293912
1094,50.2923040630576
1095,37.24632335453862
1096,35.044106681210906
1097,46.978748927849665
1098,68.25134465863084
1099,86.07598811556272
1100,87.33877321691216
1101,63.70679355566426
1102,19.622142397951393
1103,-38.36508731849062
1104,-103.2358029858915
1105,-164.19891232798182
1106,-208.64832340154862
1107,-224.25894459798474
1108,-209.91268464483073
1109,-178.5974526073187
1110,-144.19815788990672
1111,-117.37671023782423
1112,-97.7870197386037
1113,-82.7569968236021
1114,-70.27155226955801
1115,-65.08859720009059
1116,-75.95204308723441
1117,-111.40480175296034
1118,-166.30878537070203
1119,-215.30090646685494
1120,-231.38207792230241
1121,-197.5862129739162
1122,-136.59222521607262
1123,-80.85702860215133
1124,-60.114537446013856
1125,-71.61366642354551
1126,-91.39333057410659
1127,-95.36644530204103
1128,-76.18592637816073
1129,-53.198689941222256
1130,-48.149652499412696
1131,-75.84173093181562
1132,-122.17384248990311
1133,-165.53190479896875
1134,-186.09383585962496
1135,-185.92855404924376
1136,-181.67897812342017
1137,-190.05902721741222
1138,-215.01262084760492
1139,-240.32267891294396
1140,-247.98612169638363
1141,-226.39686986630113
1142,-189.3968444779457
1143,-157.17896697486867
1144,-148.01215919032256
1145,-158.85934334870035
1146,-173.42044206693208
1147,-175.46537835590607
1148,-162.22007562186081
1149,-150.2154576677931
1150,-157.4974486948413
1151,-193.70497330368016
1152,-239.41995649590717
1153,-268.93332367541734
1154,-260.2520006497689
1155,-225.2619136315734
1156,-193.90198923983553
1157,-195.39915450132867
1158,-229.59933685193937
1159,-261.1344641380165
1160,-252.55646461771175
1161,-185.7022669623184
1162,-95.39580025761097
1163,-25.50199400515885
1164,-12.592778123640528
1165,-43.61508295018575
1166,-84.89083924165789
1167,-104.12497817596523
1168,-98.39343135336094
1169,-91.91713079773763
1170,-109.82500895789781
1171,-159.214998708856
1172,-210.98203335309154
1173,-231.6530466218319
1174,-198.05197267629774
1175,-135.16674610897644
1176,-82.06130194485377
1177,-74.26357564267346
1178,-105.14150309614888
1179,-140.53602063523067
1180,-146.35706502728863
1181,-113.21057347835995
1182,-65.5534836343395
1183,-30.29873358219811
1184,-24.967261851168587
1185,-39.21300741394407
1186,-57.55190968786337
1187,-66.42090853606533
1188,-65.41494426869758
1189,-59.6109576440449
1190,-53.96788986971114
1191,-50.88268260373661
1192,-50.517277955786994
1193,-52.957618488228036
1194,-57.67364721732338
1195,-63.055307614284175
1196,-67.38654360644068
1197,-69.25229957831289
1198,-68.4205203727197
1199,-64.92815129187875
1200,-58.79313809847372
1201,-49.85142701674704
1202,-37.850964733554065
1203,-22.663698399437635
1204,-7.032575629667917
1205,3.434455494692884
1206,3.0294464257749496
1207,-10.52555185214078
1208,-32.7644888236573
1209,-58.45131444324943
1210,-82.45797913629394
1211,-100.13043380005365
1212,-106.93362980467282
1213,-98.95651899417135
1214,-77.8380536873974
1215,-48.07318667901018
1216,-14.327871240428067
1217,15.481938879209338
1218,30.227289452112018
1219,18.74322577089697
1220,-19.400207352324287
1221,-64.54696558687829
1222,-94.82500508443081
1223,-94.9512824798785
1224,-74.0027548922535
1225,-46.674379925589164
1226,-26.229115669817475
1227,-15.010920701606665
1228,-10.390754085239678
1229,-9.718575373448402
1230,-10.655344608254381
1231,-11.108022321806857
1232,-8.977569537189993
1233,-1.6789477692491346
1234,14.14188097461556
1235,41.89695419366035
1236,81.89630889299224
1237,125.57598158282235
1238,162.7850082776713
1239,184.55942449563372
1240,188.51126525761902
1241,174.50756508660925
1242,143.2163580069464
1243,104.36067754359647
1244,73.34355672144011
1245,65.15302806458567
1246,80.91612359565806
1247,106.52087483513242
1248,127.13331280064995
1249,135.44346800636777
1250,138.5863704622916
1251,145.32704967364953
1252,160.27953464023085
1253,173.6438538557959
1254,172.51503530744048
1255,147.10510647499177
1256,107.77209433042299
1257,72.78902533725886
1258,59.3399254500182
1259,70.41982011362961
1260,99.36973426288387
1261,139.26469232189993
1262,180.89271820357135
1263,212.44883530906554
1264,222.06006652728138
1265,206.0864342343757
1266,176.52796029325145
1267,147.16466605307323
1268,128.96857234881645
1269,123.80869950077067
1270,131.69106731411557
1271,151.17369507847434
1272,172.4966015674654
1273,182.94480503831255
1274,171.49832323140254
1275,144.60717336991365
1276,118.9743721594059
1277,110.66993578746224
1278,119.679879923302
1279,130.77621971743974
1280,128.3219698013272
1281,106.99714428703919
1282,76.8957567669222
1283,49.384820313300224
1284,32.19634747816235
1285,24.317350292891206
1286,23.45684026795061
1287,27.971828392643147
1288,38.78632513484081
1289,57.46134044074279
1290,84.96488373463399
1291,118.43596391866231
1292,153.46758937262894
1293,185.60476795378054
1294,209.9075069966184
1295,221.12581331273395
1296,214.5596931906075
1297,197.10915239548194
1298,186.73419616921092
1299,201.49482923010692
1300,241.9210557728402
1301,283.55287946831413
1302,300.06030346356783
1303,278.7833303816951
1304,236.65196232175913
1305,194.43620085872135
1306,169.13604704341378
1307,165.27150140245976
1308,184.76256393828407
1309,226.91923412905453
1310,277.5815109287105
1311,318.3293927669383
1312,332.74287754921716
1313,320.8219626568207
1314,290.4166449468721
1315,249.4569207523964
1316,206.21278588237874
1317,169.18423562184944
1318,146.6412647319612
1319,140.7838674500963
1320,147.80203748998247
1321,163.61576804181095
1322,182.38505177236584
1323,195.87988082519587
1324,195.73024682074902
1325,180.54614085656613
1326,162.83755350745014
1327,156.78447482567572
1328,168.76689434118998
1329,183.1548010618426
1330,180.37818347360917
1331,148.57702954085107
1332,107.2513267065624
1333,83.88406189264606
1334,100.10622150020208
1335,143.14679140982116
1336,187.74275698187557
1337,211.37410305688172
1338,214.92081395578498
1339,210.96287348034275
1340,211.58026491346754
1341,221.342971019596
1342,239.67097404507876
1343,265.56425571858017
1344,291.86279725147506
1345,305.7965793382846
1346,294.835582157104
1347,260.58978537004623
1348,221.59916812371193
1349,197.2337090496494
1350,197.30338626485536
1351,216.6081773722599
1352,248.6480594612476
1353,284.70300910817787
1354,311.55300237692063
1355,315.3980148194041
1356,291.15802147618706
1357,257.0529968770297
1358,235.17291504147215
1359,239.2477494794548
1360,253.52747319192895
1361,255.78205867146062
1362,230.8514779029174
1363,196.27570236407155
1364,178.9947030263138
1365,199.95845035529237
1366,244.33691431164334
1367,284.0300643516657
1368,294.3278694280616
1369,277.09029799066593
1370,246.64731798718094
1371,216.70889686395094
1372,194.1350015667358
1373,181.79559854146646
1374,182.14065373509584
1375,192.51013259636238
1376,206.644000076647
1377,218.25222063080037
1378,222.46475821799322
1379,215.5715763025928
1380,194.3026378550312
1381,164.0479053527124
1382,139.25734078089408
1383,134.42090563364218
1384,151.35856091472488
1385,176.24026713860076
1386,194.3859843313403
1387,198.09567203162078
1388,189.92928929172558
1389,173.21679467850845
1390,152.8781462744446
1391,136.45330167863904
1392,131.76221800787425
1393,142.73485189765597
1394,165.6811595033032
1395,195.94109650101382
1396,227.4846180889599
1397,250.96167898841304
1398,256.5822334448512
1399,238.70623522910682
1400,202.8436376385107
1401,156.36439349806642
1402,108.55045516161954
1403,74.56777451305425
1404,70.72830296749817
1405,105.80499147254886
1406,162.05679050949584
1407,215.92665009457414
1408,247.72951978023593
1409,253.28534865640177
1410,232.24408535178554
1411,188.14567803515274
1412,141.69407441667317
1413,118.42822174924731
1414,136.59806682982526
1415,178.50955600079942
1416,215.41463515135183
1417,224.75224971886382
1418,217.76234469028896
1419,217.14486460358785
1420,240.45975354915208
1421,274.8369551712476
1422,296.26641266946353
1423,286.328068800196
1424,262.6418658781131
1425,257.06774577768374
1426,294.6556499346534
1427,353.3655193476061
1428,391.39729457947215
1429,375.18091575911785
1430,331.40632258288315
1431,313.463454316181
1432,365.17224979509774
1433,456.3226474279818
1434,522.4645851971054
1435,509.1080006602697
1436,442.68283095247716
1437,388.2790127875942
1438,402.8364824600376
1439,474.1451758464591
1440,556.0850284074695
1441,606.2859751893538
1442,616.1179508258101
1443,593.77088953971
1444,548.5947251448615
1445,498.9993910477824
1446,467.91482024951074
1447,475.37094534740027
1448,516.3776985369514
1449,573.4050116136495
1450,628.5128159748201
1451,661.3110426214807
1452,650.1796221602399
1453,579.2084848051854
1454,479.2775603797836
1455,404.17677831882247
1456,399.8260676703394
1457,448.18535709755815
1458,500.7345748808875
1459,515.0036489198719
1460,496.072506735205
1461,470.8710754707299
1462,461.90928189546685
1463,458.71705240564916
1464,436.36431302677374
1465,374.96098941567107
1466,289.50200686258904
1467,209.56229029326641
1468,160.79976427107977
1469,143.54935299913268
1470,148.23498032241514
1471,164.27956972993888
1472,175.39704435691783
1473,163.211326986946
1474,115.81534005418871
1475,56.2880056455906
1476,19.452245503107406
1477,30.03598102594151
1478,63.125133272784296
1479,78.60662296409828
1480,47.78137048439203
1481,-7.462704115490851
1482,-51.24868111604701
1483,-56.49764112681078
1484,-30.957665083991742
1485,9.022165751863213
1486,48.71176979824122
1487,79.07506515303612
1488,92.31896959696496
1489,84.16940059595618
1490,61.18527530359279
1491,31.999510563533477
1492,4.596022911977343
1493,-14.836271419871991
1494,-20.412456503323483
1495,-10.526616709707014
1496,6.429163292144949
1497,20.66079853842166
1498,24.85720377285179
1499,16.699293449299148
1500,-5.447018265716906
1501,-36.3188174904044
1502,-58.74919062512163
1503,-54.661224349752956
1504,-21.307005621096323
1505,21.49237832977633
1506,52.370840000186945
1507,60.28829161850808
1508,47.15564514683865
1509,15.968812283714215
1510,-23.105295533194294
1511,-52.350767124340564
1512,-54.655691565583766
1513,-31.25415818541478
1514,0.3937434377876343
1515,22.980923478566183
1516,29.324291867162174
1517,19.66175829232452
1518,-4.843767795842723
1519,-35.04137718308084
1520,-56.9761608880799
1521,-58.77121015964076
1522,-46.22261647378946
1523,-33.75047153086598
1524,-33.423867252638956
1525,-42.0248957793483
1526,-50.37564946681414
1527,-52.50822088343193
1528,-58.28170280724953
1529,-82.40218822295355
1530,-131.28277031889593
1531,-179.96854248408636
1532,-196.07959830513755
1533,-161.7290315632781
1534,-101.11593623125736
1535,-46.017406470304195
1536,-17.826536627029782
1537,-14.75842123036091
1538,-31.825154988404392
1539,-59.47183278533157
1540,-80.29854967826213
1541,-76.5644008940817
1542,-48.96548182631523
1543,-22.571888031907292
1544,-23.08271522807263
1545,-51.000059289048295
1546,-81.26501624291814
1547,-89.29168226833463
1548,-75.36415369130191
1549,-58.98652698189653
1550,-58.093898751007146
1551,-69.4783657470307
1552,-77.66302485257074
1553,-69.50097308113072
1554,-49.489307573761835
1555,-29.684125595738806
1556,-19.715524533192365
1557,-16.946601889723752
1558,-14.948455283043586
1559,-10.01518244154613
1560,-8.021881200902499
1561,-16.92964950064379
1562,-40.70158538069336
1563,-73.39278697793452
1564,-107.59235252273356
1565,-138.50038033544843
1566,-165.96596882294216
1567,-190.2852164750493
1568,-211.13722186108862
1569,-227.40208362628982
1570,-237.7579004882591
1571,-237.98377123340106
1572,-221.23279471335263
1573,-182.08906984137866
1574,-132.90469558876975
1575,-97.43777098122337
1576,-96.21739509519648
1577,-124.59366705427965
1578,-166.68868602551265
1579,-207.0845512157248
1580,-232.92936186784755
1581,-232.12321725719084
1582,-199.56921668775794
1583,-152.3324594884889
1584,-111.8320450095398
1585,-91.87307261851129
1586,-90.22264169668597
1587,-102.54885163524341
1588,-121.53180183146105
1589,-135.6285916849156
1590,-133.3453205936421
1591,-111.58108795031694
1592,-75.33299313839234
1593,-30.890135528241444
1594,4.278385526724378
1595,5.460470693938987
1596,-45.45197933441523
1597,-119.6680638374819
1598,-168.4918820618259
1599,-156.87253321744174
1600,-108.79311647386749
1601,-64.08273095614459
1602,-50.5494757408851
1603,-63.85044985226159
1604,-94.30275225798141
1605,-131.4094818652975
1606,-163.2937375169513
1607,-178.12761798712927
1608,-169.21822197740403
1609,-135.52164811266448
1610,-77.39199493701744
1611,-9.777360909711206
1612,42.06615559900456
1613,56.81945631198687
1614,43.58844304934246
1615,24.944017732577777
1616,18.347082388767376
1617,19.192539154713813
1618,17.004290281169233
1619,6.433238137005901
1620,-4.914714786551485
1621,-7.518665871708436
1622,1.8302876301513606
1623,16.627048602716968
1624,29.68852006900306
1625,37.04260519564377
1626,37.76020729717493
1627,32.09722984034852
1628,30.969576448433145
1629,51.51315090555363
1630,104.1808571610236
1631,162.06859933371197
1632,185.43428171640335
1633,153.4798087801646
1634,104.40308517876292
1635,87.53201575304229
1636,121.47450553534873
1637,169.66645975396204
1638,190.92978383754235
1639,174.52638341955753
1640,142.1141643427818
1641,115.69503266374159
1642,103.1818946572348
1643,103.63365682080439
1644,115.08922587926645
1645,130.5985087892368
1646,141.3954127436682
1647,141.29884517639402
1648,132.14971376669928
1649,117.38592644388336
1650,103.38039139185275
1651,101.56201705373314
1652,123.21871213644044
1653,164.537385615351
1654,206.76494673889283
1655,232.10830503321813
1656,238.67037030685242
1657,233.475052655358
1658,222.83826246602257
1659,209.1609104225463
1660,193.64790750974862
1661,178.60816501828958
1662,169.12159454937864
1663,170.5771080195409
1664,182.07061766534207
1665,194.0020360481667
1666,196.57927605898658
1667,186.85925092314574
1668,167.12087420515127
1669,140.4710598134934
1670,114.63572200546332
1671,99.24477539196778
1672,99.85513494239058
1673,108.38071598943134
1674,113.93343423398073
1675,109.73320574998979
1676,96.07394698935786
1677,74.24557478683528
1678,51.46200636492722
1679,40.402159338809724
1680,51.639951721272155
1681,76.77230192765091
1682,98.13712878079059
1683,101.13335151599676
1684,83.32688978602528
1685,45.27666366605263
1686,-5.401406341317852
1687,-47.63939930104789
1688,-59.98039384064032
1689,-47.318468145127554
1690,-40.63469995202104
1691,-67.31216654625132
1692,-113.72994475513042
1693,-145.37211094325357
1694,-138.18774100743576
1695,-110.02091037161154
1696,-88.86969398173278
1697,-89.20016630065038
1698,-100.02240130300379
1699,-107.92447247006749
1700,-107.85845278461784
1701,-102.6974147257788
1702,-95.60143026384685
1703,-89.42957085512899
1704,-86.90890743674208
1705,-88.23751042142794
1706,-84.77844969233593
1707,-66.11679459782499
1708,-33.15661394621566
1709,-5.352976000567651
1710,-2.9219484734312573
1711,-29.831598521581327
1712,-76.92399274076706
1713,-133.33919716042328
1714,-180.06927723839362
1715,-194.9602978556286
1716,-167.82032331087976
1717,-121.26841731538661
1718,-83.168642987559
1719,-67.22306284762453
1720,-68.98873881230793
1721,-82.41673218945834
1722,-97.00810367269332
1723,-99.51491333603553
1724,-83.0742206285122
1725,-69.1710843687797
1726,-86.90856273971804
1727,-140.41071328301405
1728,-185.77659289376243
1729,-176.15925781500664
1730,-113.8507636323302
1731,-45.196165268398545
1732,-12.11951697749464
1733,-16.128872340079397
1734,-42.21128425728239
1735,-72.89480494545751
1736,-84.11948593065972
1737,-51.60837804316725
1738,16.3764685880451
1739,71.72200454081212
1740,70.09718110530594
1741,27.669950289577173
1742,-5.685735174907677
1743,5.018078172293826
1744,37.567344526156376
1745,56.61001882175151
1746,43.16705673984325
1747,4.099414712447469
1748,-50.486950071546744
1749,-97.94407966078325
1750,-106.78101533583686
1751,-58.284797603582774
1752,4.610533808428954
1753,20.9829399576156
1754,-30.476617308011555
1755,-95.26917534417225
1756,-113.46277070467477
1757,-79.64243913574683
1758,-33.76121557033548
1759,-11.79113412246079
1760,-19.15022808149297
1761,-50.593529906469485
1762,-95.58207122037493
1763,-132.0748828044416
1764,-137.5009945924121
1765,-109.9794356648199
1766,-66.74623424324636
1767,-25.83541768457144
1768,-5.558012475230498
1769,-24.281044225441292
1770,-78.63053766345547
1771,-114.42451662976237
1772,-73.57000407132364
1773,28.151977964227626
1774,103.76240833437805
1775,79.93926680753248
1776,-10.369465931162267
1777,-92.62280827401082
1778,-116.17977768494802
1779,-86.74739069368661
1780,-18.98566288990878
1781,53.67939108260725
1782,80.07475753182007
1783,22.176423723283733
1784,-73.52262211397192
1785,-128.9203907815754
1786,-102.63289210595576
1787,-34.0641349324178
1788,28.22087288070543
1789,65.57212446798076
1790,85.44861396277338
1791,94.32333650314467
1792,88.59528823777873
1793,61.362466331906035
1794,15.5718689732239
1795,-26.822504622156885
1796,-43.39365420377999
1797,-37.17857848089898
1798,-30.504275116512872
1799,-39.04474072141966
1800,-46.399970848245175
