800,120.34173951069533
801,116.81158502910694
802,110.92426183572388
803,103.94993230181353
804,96.9887588882757
805,91.16090414552127
806,87.48653071327499
807,86.74580132037772
808,89.65887878456124
809,96.87592601222059
810,107.4971059981217
811,118.56258182512101
812,127.03251666386313
813,130.31707377243038
814,129.62641649600118
815,127.93070826646544
816,128.21011260202795
817,131.65479310679802
818,134.93491347032796
819,134.02063746716885
820,125.04212895639102
821,107.31955188104985
822,83.13307026770235
823,54.8528482258389
824,25.20904994731427
825,-1.0981602942229074
826,-18.74861814394899
827,-22.492159166480633
828,-11.388618846533063
829,8.072167410426118
830,28.640364277485787
831,43.52613650558669
832,50.82964892279415
833,51.63106643355786
834,47.1005540179558
835,38.58827673089036
836,28.134399701317307
837,17.919088131397075
838,10.11250729567655
839,6.934822540219102
840,10.656199281736917
841,23.556803006702467
842,46.62679927041063
843,73.13635369608164
844,93.4856319738883
845,98.12479986000108
846,85.25402317559747
847,67.36346780587701
848,58.51329969901235
849,71.39368486514104
850,102.92478937529995
851,139.98677936034983
852,169.31982100990535
853,181.03408057120032
854,175.95972434799114
855,157.0369186994194
856,127.3758300388381
857,93.59662483265492
858,65.9894695991461
859,54.99453090723364
860,67.7119753752886
861,93.54196966989002
862,116.05468050456147
863,118.9902746385178
864,98.19891887536869
865,68.57078006183292
866,46.70602508641787
867,47.36482087809054
868,69.21733440493335
869,102.59373267279807
870,137.77418272389878
871,167.4388516354611
872,189.9679065182936
873,204.60151451537968
874,210.61984280044453
875,208.06305857649932
876,197.58132907439176
877,179.83482155132697
878,156.36370328937664
879,131.90814159397632
880,111.94830379240557
881,101.79435723226379
882,102.90646927992384
883,112.57480731897158
884,127.84953874863277
885,145.46083098220151
886,160.1588514454288
887,166.0437675749199
888,157.41574681651036
889,137.22495662362962
890,121.1715644556516
891,125.94573777623373
892,164.44764405165552
893,221.31745074910032
894,268.52532533500744
895,278.1614352733104
896,242.07594802375206
897,190.63903104013662
898,158.6408517685777
899,176.68157764576063
900,232.1213760971532
901,286.96041453523685
902,302.94886035771196
903,261.5268809456993
904,193.7646436619234
905,138.42231584888395
906,131.4900648270268
907,170.65805789289516
908,225.36646231726263
909,264.4354453432952
910,267.06517418463227
911,245.36581602353363
912,217.92753800896207
913,202.63050725467656
914,204.74489083731532
915,218.2608557944768
916,236.80856912276613
917,253.35819777584766
918,258.4599086625076
919,242.1238686446559
920,195.09024453537677
921,127.46920309692723
922,69.39091103874125
923,51.96553501544804
924,96.35324162482175
925,179.18419740579156
926,264.55856883639535
927,317.27652233174376
928,324.6182242419727
929,300.1538408501856
930,258.9835383703921
931,215.03748294543402
932,176.34584064489536
933,149.1087774630305
934,139.34645931664636
935,147.58905204301846
936,167.30672139777198
937,191.50963305274308
938,213.43795259387116
939,227.62184551907012
940,229.04147723606366
941,212.82701306024865
942,181.72861821253173
943,148.71645781718325
944,127.54069689963762
945,128.71150038434098
946,144.209033092553
947,159.33345974016265
948,159.55494493548576
949,140.2336531770634
950,110.45974885146097
951,80.31339623102758
952,59.2047594717078
953,52.6240026107771
954,64.58128956463406
955,98.91678412655347
956,148.91064996442765
957,193.39305061854066
958,210.11414949927894
959,182.1641098848977
960,123.05309491923981
961,57.091267609457645
962,8.22879082374493
963,-13.714172710944695
964,-17.807460411204374
965,-14.370909839435626
966,-12.284358706183411
967,-12.567644872407982
968,-13.640606351807946
969,-13.943081313122093
970,-13.49490808245173
971,-14.255925145591391
972,-18.315971150321275
973,-27.254884908776148
974,-40.262505399736256
975,-55.80867177100299
976,-72.38322334170516
977,-89.22599960467232
978,-106.45684022875321
979,-124.22558506118912
980,-141.63207412996235
981,-153.2861476461494
982,-152.59764600627932
983,-133.47640979470998
984,-100.88227978598297
985,-70.7050969471984
986,-59.28470244039272
987,-76.10093762490214
988,-105.91364405975582
989,-127.88266350604317
990,-122.40783792931325
991,-90.61900950193922
992,-51.08602060552403
993,-22.898713833283182
994,-18.18693199244808
995,-28.550518106641903
996,-41.779315418290935
997,-46.49316739101596
998,-42.06191771203339
999,-35.29541029456777
1000,-33.13348928023879
1001,-39.01599904147952
1002,-48.042784183926415
1003,-54.113689548848924
1004,-51.12856021554944
1005,-34.91724150376103
1006,-14.389578976079065
1007,-3.785418440362264
1008,-17.13460595214201
1009,-54.08698781705243
1010,-93.71241059322347
1011,-113.50072109372013
1012,-96.56176638892975
1013,-56.79539380901224
1014,-18.48145094629035
1015,-5.359785657674365
1016,-22.820246067083644
1017,-54.70268056785244
1018,-83.6069378251741
1019,-96.35286677848126
1020,-97.50031664389644
1021,-96.29913691661932
1022,-101.5991773733731
1023,-113.38028807479714
1024,-123.46231936787626
1025,-123.37512188835535
1026,-107.47854656313757
1027,-79.24244461272065
1028,-43.896667553606676
1029,-6.661067200691832
1030,27.77450433030026
1031,55.03019462040538
1032,70.76615094502995
1033,72.60252027152455
1034,62.64944925679447
1035,43.61708424487733
1036,18.73557126454216
1037,-4.504943973090121
1038,-16.45431607698447
1039,-7.58239997855344
1040,22.370949065918467
1041,58.82587547289404
1042,85.84252332918368
1043,90.54103638955712
1044,76.88155807436306
1045,54.64423146712579
1046,33.48919931216187
1047,19.196604012231546
1048,13.29658762609688
1049,17.119291866212734
1050,30.74485809629732
1051,49.92342732899306
1052,69.45514022349016
1053,84.19013708315106
1054,89.73855785315754
1055,82.30054211814786
1056,58.086229099848424
1057,20.585757654742338
1058,-10.860733728297419
1059,-14.7931069303595
1060,25.768775795175316
1061,94.01505182028086
1062,157.81585813996026
1063,185.49133136990713
1064,169.5316077441621
1065,134.94682311281213
1066,109.05711293964669
1067,110.89261229985459
1068,124.53345587769581
1069,124.81977796420142
1070,88.66171245486294
1071,26.47939284733002
1072,-24.247047760885835
1073,-25.30747667470314
1074,37.64823839623023
1075,123.18022933527573
1076,181.90862761649078
1077,172.23356430239073
1078,112.05517004163812
1079,46.683575066819685
1080,20.79890919214813
1081,47.9813018112327
1082,101.48088189481314
1083,151.80777798851886
1084,176.01211821062498
1085,176.17403024982013
1086,160.3436413629879
1087,136.17107837295407
1088,105.57646766628932
1089,66.43993519109608
1090,16.58160645478165
1091,-41.70839347811852
1092,-97.52993998816419
1093,-139.02290890317818
1094,-156.59717650044877
1095,-153.80261950889508
1096,-138.98911511125152
1097,-120.3765409462303
1098,-103.68477511067795
1099,-92.19369616174117
1100,-89.07318311900053
1101,-94.49311546662648
1102,-100.66337315550663
1103,-98.4638366053805
1104,-80.66438670695243
1105,-55.28490482401321
1106,-37.72527279556016
1107,-43.03537293788031
1108,-71.43508804666271
1109,-104.56430139906843
1110,-122.81289675583321
1111,-114.08075836333228
1112,-91.60777095564663
1113,-74.00381975662094
1114,-78.308790481924
1115,-105.18256934110286
1116,-145.6950430395882
1117,-190.75609878077012
1118,-231.8856242679849
1119,-261.4335077065516
1120,-271.82963780577666
1121,-257.9839037809452
1122,-224.6761953553323
1123,-179.06640276216967
1124,-128.70441674663198
1125,-85.17012856781184
1126,-62.70343000066714
1127,-75.394213337986
1128,-122.66237139232544
1129,-180.61779749795642
1130,-223.270385512782
1131,-232.11002982027094
1132,-219.90662533134855
1133,-207.57006748632375
1134,-214.23025225677338
1135,-237.62707614743158
1136,-261.27043619805954
1137,-268.52022998532266
1138,-252.91635562465308
1139,-224.01871177209978
1140,-192.79719762615605
1141,-169.60171292962332
1142,-162.3221579714118
1143,-178.2284335883578
1144,-222.870441167046
1145,-282.53808264559666
1146,-331.55126051544903
1147,-344.41987782314936
1148,-315.6538381721184
1149,-268.403045724408
1150,-228.05740520245672
1151,-212.32682189082334
1152,-212.4512016379358
1153,-213.9104508577875
1154,-204.09447653167263
1155,-187.6131862098773
1156,-178.29648801337135
1157,-189.52429063550335
1158,-218.4065033436491
1159,-242.46303598090708
1160,-238.0937989677259
1161,-193.49870330355589
1162,-129.29766056848166
1163,-71.66058292484377
1164,-43.13738311885936
1165,-41.53797448219848
1166,-54.422270933617256
1167,-69.70018698049171
1168,-83.53163772043081
1169,-99.68653884279593
1170,-122.16480663029142
1171,-149.46635796047303
1172,-168.99111030729182
1173,-166.76898174260168
1174,-134.09989093766853
1175,-86.62375716466886
1176,-47.17050029817801
1177,-36.4800408166393
1178,-51.122299803811984
1179,-71.81719895024798
1180,-79.38466055472782
1181,-69.49460752567029
1182,-58.30696338256894
1183,-63.41165225739678
1184,-94.12859889599349
1185,-135.15772865945655
1186,-166.6689675255111
1187,-171.56224208987442
1188,-151.64747956759857
1189,-116.60460779441019
1190,-76.05355522804712
1191,-38.024250949561974
1192,-9.126624664619158
1193,4.099393295196933
1194,0.7938719711091835
1195,-9.973120224109152
1196,-18.08151550740513
1197,-16.121246726677782
1198,-6.71224736201475
1199,5.145548473085
1200,14.982206030514135
1201,22.907789926352052
1202,31.302364139692145
1203,42.3059920114556
1204,52.128736243254025
1205,51.01065889622441
1206,29.001821389918405
1207,-15.57771549885183
1208,-68.26789163708236
1209,-112.67864753670801
1210,-135.4399243556618
1211,-135.2016638989553
1212,-113.70380861973536
1213,-73.8163016203307
1214,-28.579086653277045
1215,3.747891877654183
1216,5.704688916457599
1217,-20.928641246102416
1218,-55.272044973475204
1219,-75.74546928429663
1220,-71.48886185331685
1221,-51.672171012376566
1222,-27.64534575131256
1223,-7.998335718881208
1224,9.048908776345343
1225,27.646436765076942
1226,50.80429661645758
1227,72.66253603717087
1228,83.33120207061984
1229,73.86034109606771
1230,51.48999882783937
1231,37.26022031449793
1232,52.34104993806068
1233,98.7925314132026
1234,149.31470778651055
1235,174.13762143572058
1236,157.3913140689674
1237,123.08582672407647
1238,102.31119976784794
1239,119.23747289534003
1240,159.71468512922365
1241,196.4428748190694
1242,204.40207964072033
1243,184.90233659563273
1244,155.69368201026919
1245,134.4761515354603
1246,128.90978014581924
1247,135.68460213915387
1248,150.96065113589248
1249,171.43796007853598
1250,194.95656123109256
1251,219.4864861785809
1252,241.70776582649341
1253,253.91043040029945
1254,247.41450944496682
1255,216.65003182449072
1256,175.92702572142844
1257,147.3555186364738
1258,151.29553738801042
1259,185.2471081117128
1260,231.2002562601483
1261,270.98500660238824
1262,291.5413832236409
1263,285.61940952490295
1264,246.4291082226173
1265,181.1005013483482
1266,123.31361024847683
1267,109.71845558389577
1268,160.30505732974962
1269,240.65343477515125
1270,305.3136065229446
1271,317.185590489471
1272,286.9094039043357
1273,242.01506331023484
1274,208.33258456272415
1275,194.12198283008365
1276,197.23327259314283
1277,215.20646764513185
1278,241.0915810915758
1279,263.7186253501495
1280,271.8776121506198
1281,262.80855253472146
1282,246.36145685613337
1283,233.40633478040036
1284,230.75319528489672
1285,235.43204665882513
1286,243.0728965032049
1287,250.31575173086821
1288,257.86061856651395
1289,267.39750254672435
1290,279.61640852005075
1291,288.63734064705386
1292,285.9503024004316
1293,264.8452965650813
1294,238.87232523827151
1295,234.27138982972792
1296,275.85249106183437
1297,353.6356289697542
1298,424.59080290166094
1299,444.98801151890075
1300,403.1672527962328
1301,333.3385240220523
1302,273.1618217986452
1303,247.08714204244097
1304,251.00447998431082
1305,277.0938301698443
1306,315.4251864596845
1307,349.2285420298358
1308,360.2638893720232
1309,336.1312202940462
1310,294.26052592016276
1311,261.6617966914837
1312,261.4750223663723
1313,285.98019202087744
1314,312.69729404918144
1315,320.6163161640525
1316,309.7372453973221
1317,294.75006810038394
1318,290.1747699446805
1319,300.55133592225684
1320,320.4497503462826
1321,343.98999685161107
1322,364.3820583953693
1323,373.5359172575281
1324,363.3315550415191
1325,332.8589526748601
1326,295.5480904097931
1327,266.5689478239492
1328,256.16150382100204
1329,260.69573663138726
1330,274.0616238129842
1331,291.7191422518499
1332,315.43826816297405
1333,348.6089770910039
1334,392.6912439110529
1335,437.99504282947055
1336,470.7703473846541
1337,479.16713044787866
1338,467.47536422413395
1339,448.08502025299094
1340,432.8260694094661
1341,425.4984819049132
1342,424.4922272879521
1343,428.0772744453716
1344,434.7435916030863
1345,443.17114632709126
1346,451.98990552443865
1347,458.12983544424605
1348,456.5209016786848
1349,442.0730691640274
1350,416.42630218168233
1351,391.75056435926126
1352,381.0858186716614
1353,390.1920274421591
1354,409.89915234351975
1355,429.2371543991412
1356,438.8659939841873
1357,433.9056308267682
1358,410.21602400911434
1359,368.11713196877827
1360,323.5889124998557
1361,296.08132275421303
1362,299.9243192427475
1363,325.84785783665575
1364,357.81189376871225
1365,381.766381634583
1366,395.67127539414287
1367,401.95652837281705
1368,402.5220932629345
1369,395.14792212509747
1370,375.68396638958075
1371,341.6201768577357
1372,307.1565037034252
1373,296.1828964744436
1374,330.1593040940097
1375,395.47567486221305
1376,453.52195645753636
1377,466.9680959383513
1378,431.04403974445813
1379,369.1897336986294
1380,305.53512300817965
1381,257.92015226655167
1382,237.72476545489553
1383,255.52890594372548
1384,304.6525164945251
1385,357.1255392614112
1386,384.0079157928012
1387,376.2095870331159
1388,353.57049332446877
1389,338.0705744083971
1390,339.48976942760964
1391,346.69801692773217
1392,346.52525485910155
1393,333.45142057855264
1394,317.23645085121825
1395,309.4402818523831
1396,317.6728491693193
1397,340.3440878031506
1398,374.5339321707397
1399,411.9223161065802
1400,429.7291728647342
1401,402.7644351207491
1402,321.99803497362336
1403,228.33990394777902
1404,172.28997299504226
1405,186.96817249665764
1406,244.1644322653192
1407,302.21868154719596
1408,328.7808490240095
1409,328.6508628151096
1410,315.82865047957057
1411,302.6341390182879
1412,293.78725487614247
1413,291.8779239441228
1414,298.3860715615101
1415,309.1716225180571
1416,318.3545010561793
1417,320.9546308732097
1418,316.7819351235994
1419,307.23633642119603
1420,294.49775684152155
1421,285.1661179240473
1422,287.4613406745193
1423,307.77334556728056
1424,340.6620525476228
1425,376.0373810341389
1426,404.4392499211135
1427,420.80757758093023
1428,421.9222818664639
1429,406.7932801135503
1430,390.7004891434044
1431,396.08382526511923
1432,441.0432042781431
1433,510.0885414747845
1434,572.1597516427391
1435,600.5667490676387
1436,603.7094475356025
1437,606.8377603358167
1438,631.0516002631357
1439,662.7908796207012
1440,671.4555102225531
1441,631.3954033963037
1442,559.3704699857899
1443,493.32062035376475
1444,467.97576438460055
1445,489.5558114870091
1446,549.9306705967829
1447,638.4402501795485
1448,724.0944582335451
1449,765.623202292416
1450,728.9263894280139
1451,640.4539262532435
1452,556.855718924895
1453,528.151673146509
1454,548.0316941712645
1455,582.6956868048746
1456,601.003555408508
1457,594.8452039017229
1458,567.0505357654147
1459,522.0494540447944
1460,476.11186135237585
1461,450.95765987098093
1462,462.8967513567659
1463,488.94903714226166
1464,488.87441813944133
1465,430.90279484278653
1466,341.9340673323841
1467,273.298135277053
1468,266.57489793746754
1469,300.47425416929764
1470,329.06610242639726
1471,314.13034076396434
1472,263.19686684175394
1473,200.42557792731168
1474,148.5263708991879
1475,122.08914225021181
1476,132.9737880907469
1477,184.42020415200386
1478,237.47828578933695
1479,240.24792798556155
1480,159.1390253543177
1481,41.671472143416395
1482,-42.21483776176865
1483,-41.48001083491545
1484,20.025846094662484
1485,99.96262584546093
1486,163.47022088722224
1487,201.97852334440358
1488,212.63742499967157
1489,193.82681729738943
1490,147.69659134715948
1491,77.13663792733314
1492,-8.043152511398148
1493,-79.47288984247461
1494,-105.74268425982882
1495,-73.84264627432094
1496,-13.652886710080566
1497,38.93648329911957
1498,62.875352313521944
1499,66.9236085910834
1500,63.35114009113386
1501,58.217834478135046
1502,46.8935791253698
1503,23.82826111871873
1504,-5.858232739590676
1505,-21.416015927199624
1506,-1.575202197804174
1507,48.224094422646886
1508,89.0917596397885
1509,81.57767889470233
1510,26.93173736776953
1511,-30.696180017417646
1512,-47.40618859017923
1513,-23.60840392881073
1514,1.107058143359609
1515,-10.84991843809621
1516,-50.0294499746924
1517,-72.51165300108187
1518,-38.666644281023764
1519,36.52545919663498
1520,105.19454022200443
1521,125.00048136820624
1522,102.64316499545748
1523,68.78247325514712
1524,49.328288093967785
1525,38.85049125803562
1526,19.75896429702334
1527,-20.74641143165354
1528,-71.84575475869497
1529,-115.44918469867116
1530,-137.68682044585694
1531,-140.54878136997286
1532,-129.7951870119523
1533,-111.19615707967023
1534,-90.62181144366332
1535,-73.94227013284035
1536,-63.867653330162284
1537,-56.11808136830223
1538,-45.5036747253198
1539,-30.61455402027059
1540,-16.5808400088481
1541,-9.082653578961981
1542,-9.700115746347365
1543,-14.603347650112482
1544,-19.742470548300844
1545,-24.64760581342307
1546,-32.53887492797912
1547,-46.606399479953325
1548,-67.97030115829875
1549,-96.08070174841669
1550,-129.1477231275876
1551,-153.20148726043772
1552,-147.21211619432324
1553,-95.89973205475144
1554,-25.26445704077196
1555,20.993586579679686
1556,10.114276474392682
1557,-35.82250974841554
1558,-77.74689453545761
1559,-88.81900038364438
1560,-85.14894983540398
1561,-92.19686547392666
1562,-124.18286991843706
1563,-167.3970858194225
1564,-203.96963585386584
1565,-223.91064272043513
1566,-231.0602291346877
1567,-230.65851782423852
1568,-225.4556315239206
1569,-215.131692970921
1570,-199.4868248999046
1571,-184.6711500381407
1572,-182.60479110056986
1573,-203.1878707849064
1574,-230.51051176667715
1575,-232.08283669428602
1576,-182.6749681840338
1577,-112.43702881513309
1578,-76.1891411247052
1579,-113.6314276027606
1580,-190.8940106871778
1581,-252.02701275863
1582,-258.89055613554774
1583,-230.01476306900986
1584,-195.06975573767522
1585,-173.64565624264105
1586,-164.18258660233914
1587,-162.32066874737757
1588,-158.790024515396
1589,-137.35077564586754
1590,-82.6830437749395
1591,-10.83695043019361
1592,31.877382974538705
1593,2.789835144447352
1594,-83.60971509103365
1595,-175.82138877293255
1596,-227.285306807491
1597,-230.49158996082588
1598,-194.42035885365294
1599,-131.7817339559315
1600,-70.7858355815406
1601,-43.79278388291095
1602,-65.50269884565205
1603,-103.35570028316579
1604,-117.26190783124548
1605,-95.35144094263887
1606,-73.65441888165697
1607,-91.29096071866843
1608,-143.07118532469212
1609,-175.24521136586918
1610,-136.57315729801303
1611,-41.695141361075
1612,48.25871842637571
1613,79.10830427267865
1614,54.49349861864539
1615,3.714184143116654
1616,-45.04975623145765
1617,-68.93843933340395
1618,-46.46198173623452
1619,25.829500246982207
1620,105.98589056926721
1621,145.4370734553704
1622,127.04293340746335
1623,82.01335521079636
1624,44.74822393940303
1625,29.667424961828146
1626,32.17084394682206
1627,47.51836686911156
1628,77.52988001512676
1629,127.7852699887917
1630,197.95442371728313
1631,254.7572284568505
1632,253.58357179861196
1633,175.07334167437511
1634,78.41642636247889
1635,37.57271449365362
1636,77.12209505687315
1637,133.05445740524556
1638,134.49969126189535
1639,73.35768672587801
1640,8.418334278090697
1641,-2.878475212766716
1642,44.39714951571659
1643,122.13510012564802
1644,202.43526868480694
1645,261.77754767262377
1646,278.13182998618504
1647,243.2080089462488
1648,191.24597830327366
1649,164.50563224345933
1650,180.9568653947972
1651,216.53957283315685
1652,243.84365008833083
1653,254.5589931501745
1654,259.28549847467
1655,268.1730629900885
1656,279.3115841030831
1657,283.9909597048645
1658,273.6510881773429
1659,240.941868399319
1660,178.89319975264698
1661,93.90498212845159
1662,26.23711593331791
1663,20.589502095537682
1664,80.2020420713252
1665,151.02463785108012
1666,178.12719196564285
1667,157.14960749255442
1668,122.46178806237367
1669,105.4936378649436
1670,111.16506165571627
1671,133.4659647620847
1672,162.8062530896932
1673,177.73583312881055
1674,154.6146119606674
1675,96.06249726384885
1676,49.85939732065708
1677,65.30522102352734
1678,131.46987788141632
1679,181.83327802623535
1680,158.1353322192772
1681,87.25595185765633
1682,37.625048980764404
1683,54.172536276741084
1684,89.81832708895854
1685,75.59233542248148
1686,-12.045524049392043
1687,-109.76533597864363
1688,-147.21718433599563
1689,-119.07115240439452
1690,-84.32732277244395
1691,-96.72577732786158
1692,-140.28659725088437
1693,-163.45986300771983
1694,-132.8756543439431
1695,-87.77405027788336
1696,-84.88512909401288
1697,-145.05896833633597
1698,-221.76564480173147
1699,-262.77523453332833
1700,-253.7278128138314
1701,-216.1634541588537
1702,-171.98223231025077
1703,-134.44422022941035
1704,-112.73949009057469
1705,-111.15811327411393
1706,-117.04016035980385
1707,-114.1457011201037
1708,-96.56480451340394
1709,-75.39753867729087
1710,-62.943970921751315
1711,-65.08416772243254
1712,-82.49819471383853
1713,-114.09611668255093
1714,-148.45799756040833
1715,-170.2239004177136
1716,-174.03388745638222
1717,-182.0480200031452
1718,-220.2063585026608
1719,-279.19896251071805
1720,-304.58589068731453
1721,-246.25720078982886
1722,-134.04294966611633
1723,-46.843193247623276
1724,-43.28798654248385
1725,-89.11738362861615
1726,-124.7514376467916
1727,-117.25020079372007
1728,-85.08372431509633
1729,-52.38205849866608
1730,-39.825252667249515
1731,-65.0033551718061
1732,-137.44641338443398
1733,-213.60447369139365
1734,-228.197581486118
1735,-151.49578116220982
1736,-51.91911610643365
1737,-12.817628691693244
1738,-53.011360270000296
1739,-112.14035116544983
1740,-130.84464066716646
1741,-106.59426702225755
1742,-68.48926742874028
1743,-40.239678028487106
1744,-24.105533900135924
1745,-17.296869052010152
1746,-16.903716415021336
1747,-19.846107835572184
1748,-23.09407406842547
1749,-25.09764476963028
1750,-25.29684848933539
1751,-23.651712664706793
1752,-22.262263612754396
1753,-23.84852652320842
1754,-27.6505254513213
1755,-26.238283310756742
1756,-12.251821866371756
1757,7.778838272948633
1758,15.703677661458642
1759,-3.337321976217936
1760,-43.704177737914506
1761,-92.55690553670138
1762,-134.2055200936702
1763,-146.7300349307061
1764,-109.23046236327718
1765,-37.666813493166046
1766,17.960901798736813
1767,15.482674859726103
1768,-30.011501727502036
1769,-81.58163413755574
1770,-113.14772729509605
1771,-124.18978486755259
1772,-117.74780925783307
1773,-95.66180159704527
1774,-58.56176173719177
1775,-9.187688243880984
1776,36.34042161099933
1777,56.60257185658702
1778,44.518767830364595
1779,26.469016185494183
1780,32.353324898134815
1781,63.37170327480271
1782,93.67416195969236
1783,99.83071294204638
1784,79.97136956349823
1785,40.31614652543249
1786,-3.944940103638146
1787,-18.16187288070978
1788,31.495367019091645
1789,115.11679980988993
1790,147.18244710245744
1791,64.94233191159765
1792,-60.69352133646498
1793,-114.38508679665756
1794,-48.06233719767806
1795,56.2347561654351
1796,106.95622343871946
1797,92.32209621668517
1798,60.93240754978251
1799,52.6471919518026
1800,60.83648540732065
