800,99.20488257587567
801,80.47684144628874
802,58.80764215246745
803,36.23759793831414
804,15.18702273384406
805,-1.9537688519412768
806,-11.96446153819852
807,-8.704739379507373
808,14.515714226894488
809,64.03721653392131
810,131.31008543727512
811,189.15463946815726
812,209.25119778587396
813,168.88008017056563
814,89.20160701570421
815,11.966099320728972
816,-21.05612131646194
817,11.315267293080979
818,77.93058792180818
819,139.48016391813144
820,158.2643191989555
821,127.72337824196438
822,70.04766607815691
823,8.437508284143405
824,-37.22676902549574
825,-64.63483920581348
826,-77.16637508929853
827,-78.20104899347643
828,-71.10853272872191
829,-59.098497605991724
830,-45.4406144445893
831,-33.304553579997446
832,-25.569984871654015
833,-24.866577710818092
834,-33.80400102843123
835,-51.93192330297461
836,-68.73001256840507
837,-71.72793642202305
838,-48.98536203243566
839,-3.7519561475128285
840,44.12261489764933
841,73.98868517274968
842,69.54658914428
843,40.78666166745825
844,7.499237978256133
845,-10.595346314701601
846,-3.5767552381948917
847,20.255347537524358
848,50.64129869059252
849,77.52143523946143
850,93.27609453473269
851,91.82561425103631
852,67.14033237887634
853,18.070587216410786
854,-41.063282638657256
855,-92.89093829734338
856,-120.57204058753996
857,-120.5962500622918
858,-102.95322700799443
859,-78.28263145264646
860,-55.88412317411712
861,-38.087361708407116
862,-24.952006357940263
863,-16.48771619983745
864,-12.414150094220531
865,-11.980966692550282
866,-14.387824445875594
867,-18.614381613260775
868,-21.890296270044928
869,-20.555226316209882
870,-10.898829484758608
871,9.369236649930826
872,39.24931466378621
873,77.26174727456964
874,121.6268773335978
875,165.74504781726137
876,199.4266018186463
877,212.3718825391843
878,198.0912332801745
879,163.67499743441294
880,119.34351847774815
881,75.16713996064209
882,38.97620549979911
883,16.1510587696539
884,11.942043493960227
885,29.449503437397652
886,60.50378239701968
887,93.24522419392451
888,115.97417266468983
889,124.67097165299492
890,126.52596500115033
891,129.67949654158292
892,140.90191008843976
893,157.23354942907463
894,171.32475831563352
895,175.80588045652985
896,167.77725950803142
897,152.8792390657327
898,137.75216265617928
899,128.91637372827972
900,131.45221564494568
901,149.61003167455783
902,187.61016498253593
903,242.24295862285362
904,291.5587555295933
905,310.74789850847446
906,277.50073022837023
907,204.66759321291465
908,131.03882983198855
909,95.98478229328612
910,123.46579263388412
911,188.7622027117759
912,257.5943541974266
913,296.9325885653525
914,297.2472470857101
915,269.9986708157667
916,227.32720059162966
917,180.37317701971187
918,136.2269404683102
919,101.05883105933754
920,80.82918865974352
921,77.60835287321243
922,89.34666303175618
923,113.80445818736916
924,147.47207710356452
925,181.06985824707954
926,203.6881397795005
927,204.76725954886933
928,184.33755508136528
929,154.85936357299215
930,129.48302188119123
931,118.24886651655834
932,115.15723363451252
933,109.15845902699948
934,89.52287811420683
935,57.800825936290494
936,31.30263714501052
937,28.318645995590487
938,62.159186338380096
939,118.25459161066101
940,172.42519482834905
941,200.9013285778492
942,197.01332500778517
943,177.24151582081686
944,159.7362322654808
945,159.4978051279686
946,173.08656472398434
947,190.52284089059685
948,201.84696297811752
949,201.68925984192902
950,191.02005983440904
951,171.2496907968307
952,144.18848005127074
953,114.0267543925147
954,85.7848400800649
955,64.42306282999198
956,50.94174780703179
957,40.88121961649449
958,29.40180229626276
959,13.163819308851089
960,-2.522406466610846
961,-9.296552742263884
962,0.9717021704855142
963,26.202679353060375
964,50.75669927185663
965,58.084081770248304
966,35.73514606084791
967,-6.539789282418496
968,-51.69040633215627
969,-82.9063878152665
970,-94.14741712081013
971,-92.70317830772547
972,-86.71335611262475
973,-83.05763595755707
974,-82.57570395771472
975,-84.29724692910531
976,-87.29195239631372
977,-92.73950860012701
978,-104.11960450514016
979,-125.05192980751599
980,-157.79617494246486
981,-198.9820310918949
982,-243.72919019197434
983,-287.0473449406927
984,-322.4861888053565
985,-342.06541603011283
986,-337.794721643455
987,-305.75380146568205
988,-256.92235211629304
989,-205.64007102148025
990,-165.87665642148932
991,-145.64180737800052
992,-147.86522378148948
993,-175.34660635855107
994,-224.3856566792383
995,-272.14207716430974
996,-292.26557109251735
997,-261.14584260780975
998,-190.74259672665357
999,-117.66553934508556
1000,-78.99437724598101
1001,-94.56881810616323
1002,-143.53857050350052
1003,-199.14334392410092
1004,-234.65284876924852
1005,-228.47679636252724
1006,-193.77489895685721
1007,-158.08686974143347
1008,-148.5624228487577
1009,-172.4012733615309
1010,-208.113137319604
1011,-231.98773172686924
1012,-225.51477455811983
1013,-198.52398476587405
1014,-170.44508228722407
1015,-160.26778805060167
1016,-171.83182398256758
1017,-191.30691301447223
1018,-203.82277908925607
1019,-198.42914716805535
1020,-180.7657432369233
1021,-160.87229431334708
1022,-148.27852845295274
1023,-142.77417475601396
1024,-135.0789633739987
1025,-115.5726255161062
1026,-80.6548934556995
1027,-45.65550053680636
1028,-29.664181180502055
1029,-49.61067089132848
1030,-94.40470626368915
1031,-133.3060249880873
1032,-135.23436585754098
1033,-88.93946877380222
1034,-28.26107475358731
1035,6.651074065121065
1036,-17.862765582976863
1037,-80.24233809679572
1038,-130.9973890148467
1039,-120.9776650214626
1040,-40.89291395280452
1041,54.757115197171515
1042,105.76267227058997
1043,67.19400593978207
1044,-20.54863629869942
1045,-87.63500812994607
1046,-66.61486442659952
1047,42.462038745310565
1048,165.5559441205769
1049,224.84709322903655
1050,169.92572638980346
1051,47.40208270556468
1052,-74.67359994305298
1053,-132.41108490318584
1054,-119.28013675534021
1055,-70.38052131891163
1056,-21.682005657807167
1057,6.375641914106382
1058,27.442651827463123
1059,59.65925325202261
1060,116.56567409122363
1061,177.16214097680495
1062,204.70887926344585
1063,163.29611302353442
1064,56.77406504180544
1065,-57.51704318982229
1066,-118.45699147750565
1067,-83.8055609306175
1068,8.797466033123783
1069,100.67230568256491
1070,136.22917296802916
1071,111.22828151627618
1072,62.899843625615176
1073,29.614070260795415
1074,35.30117104823148
1075,70.04135427103029
1076,119.10482686416799
1077,169.18179440970562
1078,218.00246113198227
1079,268.297029892914
1080,322.7057021872315
1081,377.72867813789344
1082,421.8661564914364
1083,443.13833461334434
1084,434.89540848354955
1085,411.21757269188674
1086,391.1250204336393
1087,391.98794350509706
1088,408.85653229911986
1089,421.0309758008225
1090,407.53146158323216
1091,362.0381758029689
1092,306.4113031960733
1093,265.73102707371436
1094,260.5875293180434
1095,285.55099037811306
1096,325.8315892656756
1097,366.7995035512504
1098,398.2049093599999
1099,414.06798136782163
1100,408.63889279735304
1101,379.0378154141363
1102,330.23491952270706
1103,268.43037396280124
1104,200.90434610554075
1105,143.14700184972753
1106,114.62850561812957
1107,134.2390203538016
1108,198.87870751648734
1109,277.6677270790169
1110,337.986237523779
1111,356.83439583921427
1112,344.0223575163691
1113,316.3202765454189
1114,289.20830541235773
1115,264.74659509563935
1116,237.08529506283958
1117,200.48455326743715
1118,159.5045161455928
1119,133.8753286129504
1120,144.5971340615215
1121,202.00007435660518
1122,274.32428983369755
1123,319.45991929550655
1124,299.36710000898165
1125,225.13596770238655
1126,139.8966565623632
1127,86.92929923121119
1128,80.57402680394443
1129,89.07096882561018
1130,76.4902532885535
1131,18.962006629742973
1132,-57.223646271871985
1133,-112.75658209794346
1134,-111.84667909327982
1135,-61.90381706835615
1136,0.9221225982182659
1137,40.271256957319565
1138,40.10370148686343
1139,16.529570089507615
1140,-11.501024909644912
1141,-28.237972765309678
1142,-30.70116431419592
1143,-19.09049197720742
1144,5.834150238435541
1145,36.96286673715804
1146,63.22576033293444
1147,73.60293224736961
1148,62.614482107703225
1149,32.80050794489944
1150,-12.698893808206776
1151,-68.11362831870792
1152,-118.36360235539178
1153,-146.42872429049748
1154,-138.4489041014167
1155,-109.62405337230302
1156,-90.60408529565757
1157,-111.37891467393638
1158,-174.86845792100212
1159,-251.47263306365494
1160,-309.7013597429759
1161,-327.8245592157764
1162,-310.9921543558812
1163,-268.92406965545524
1164,-212.14023122622893
1165,-156.17056680068345
1166,-118.71500573324738
1167,-116.47347900135355
1168,-146.07591920654522
1169,-185.68226057550783
1170,-212.80243896099273
1171,-216.1263918428158
1172,-206.90405832866236
1173,-199.04537915501714
1174,-203.1502966879125
1175,-214.1787549236833
1176,-222.49069948966644
1177,-219.3460776448992
1178,-206.06483828070486
1179,-190.62693192127335
1180,-180.97231072417344
1181,-178.9009284808635
1182,-177.76274061710137
1183,-170.3477041933511
1184,-153.17577790514042
1185,-133.93692208330322
1186,-122.411098694276
1187,-126.32827134033141
1188,-139.6784052596995
1189,-150.68146732668538
1190,-147.90742605177365
1191,-126.226251581611
1192,-85.96791569905326
1193,-27.762391823001963
1194,41.41034499161469
1195,103.24031805404957
1196,138.27754903789173
1197,132.11205798140873
1198,89.35386328772438
1199,19.06298172523384
1200,-67.90057157201227
1201,-145.66678310393763
1202,-180.78564100387302
1203,-141.7071350381084
1204,-41.721256605284
1205,61.15200126423588
1206,107.26264390897995
1207,72.05067503711325
1208,-0.07390327281609643
1209,-56.73109057104739
1210,-58.81088803586317
1211,-21.25329847255489
1212,27.341673687420553
1213,60.614022387460864
1214,72.52373994680966
1215,67.44081706170255
1216,49.985242806433234
1217,27.667004634575278
1218,10.926088380125293
1219,10.22247825883096
1220,26.456156869448023
1221,42.697105195176846
1222,40.07530260497151
1223,6.35072685504565
1224,-45.94664590967295
1225,-98.6268411539786
1226,-135.60988595077652
1227,-157.01580897950043
1228,-170.33464052440831
1229,-182.51641247283987
1230,-190.3311583134855
1231,-181.81891313455708
1232,-145.04971362184733
1233,-85.10359805694316
1234,-33.130606315200566
1235,-22.570779863730422
1236,-69.5041617593597
1237,-140.6007966465695
1238,-193.69073075529377
1239,-195.0340118987915
1240,-157.3006894713435
1241,-109.14081444605836
1242,-77.32443937243443
1243,-67.44161837409047
1244,-71.78240714627827
1245,-82.48686295346488
1246,-92.7250446267426
1247,-96.8770125613737
1248,-89.37282871408752
1249,-68.85255660051189
1250,-41.94626129239987
1251,-16.2040094149379
1252,0.934130856054253
1253,2.338089796976419
1254,-19.012203860685986
1255,-66.00682292742204
1256,-114.97584175272641
1257,-131.7793362220873
1258,-86.2973837538957
1259,0.32993670363066485
1260,72.09254467565188
1261,74.0103581638723
1262,2.883293649807456
1263,-85.59873390193025
1264,-132.7958110402651
1265,-112.7080258242895
1266,-61.31546781983343
1267,-21.568228095977247
1268,-22.78639922151706
1269,-49.81007526140456
1270,-78.48935177312524
1271,-87.87432580304812
1272,-75.69509588269648
1273,-46.23176202501054
1274,-3.964425720532745
1275,44.406810066418984
1276,90.94184090166527
1277,127.74056088506404
1278,148.27286265454313
1279,147.35863739009073
1280,119.98777481783327
1281,70.19016321414892
1282,15.38568940985715
1283,-25.875761205606977
1284,-42.06430467991231
1285,-38.55005849355075
1286,-23.18314155549524
1287,-2.9336741987935966
1288,18.658221823858185
1289,38.872423344564595
1290,55.158805784805736
1291,65.91724315997271
1292,69.96760808399631
1293,66.64977177397304
1294,61.01360405491141
1295,61.77897336445312
1296,77.44574675765762
1297,111.54378991186604
1298,162.9229671315734
1299,230.02314135331835
1300,303.1041741507106
1301,360.7659257393934
1302,380.74825498213613
1303,356.41101939391956
1304,314.9040751470893
1305,287.7672770765348
1306,296.0604786849508
1307,326.223532148073
1308,357.4662883200399
1309,372.60859673874074
1310,372.91030563122695
1311,365.5012619191657
1312,357.02131122434366
1313,349.7502978741977
1314,343.9380649073937
1315,339.81445407948195
1316,337.58930586853967
1317,337.4724594808904
1318,339.68375285687944
1319,345.30302267664956
1320,356.16010436600845
1321,374.11483210228107
1322,398.32703882027636
1323,424.28655621824873
1324,447.20321476389654
1325,466.17684370042844
1326,488.0472710526774
1327,520.5643236332289
1328,567.8878270485984
1329,623.9476057054926
1330,680.8634828170325
1331,734.3252804090989
1332,794.5128193266792
1333,875.3359192402531
1334,984.9643986522569
1335,1098.2180749035215
1336,1177.7967641798205
1337,1192.47028151845
1338,1162.35844081478
1339,1133.4410548289707
1340,1147.5579351926062
1341,1192.8188924154274
1342,1220.7437358921234
1343,1184.612273909166
1344,1085.8943136515918
1345,969.6896612099445
1346,881.6381215872025
1347,833.2094987057462
1348,795.0535954143888
1349,735.8502134954142
1350,652.3791536716708
1351,585.2902156137425
1352,578.8731979470576
1353,644.1378982592032
1354,724.0141131070923
1355,753.1116380243075
1356,696.7702675284163
1357,602.8097951283889
1358,532.7800133319615
1359,530.5307136531119
1360,577.5616866195815
1361,641.6327217803555
1362,695.0336077133034
1363,730.9341320327258
1364,748.4740813970529
1365,749.1432415165182
1366,748.4713971608835
1367,767.1683321672244
1368,820.993829447707
1369,886.9576709974644
1370,923.9696379024572
1371,895.4995103474175
1372,812.6670676237882
1373,714.3420881377169
1374,637.914349418119
1375,596.0236281247198
1376,583.6797000561928
1377,595.202340158281
1378,619.9213225320018
1379,642.8064204418515
1380,649.1674063240862
1381,636.5940517950221
1382,615.3461276593298
1383,596.1334039184367
1384,583.7956497789237
1385,575.9426336609977
1386,569.7241232069173
1387,562.3498852895391
1388,551.1496860208754
1389,533.4732907606704
1390,510.01046412502546
1391,487.2009699950686
1392,471.98457152562696
1393,466.87103115396894
1394,465.4601106085829
1395,460.28157091796675
1396,446.9351724194421
1397,428.05067476806653
1398,407.26783694550613
1399,387.3664172689896
1400,368.72617340027864
1401,351.36686235468005
1402,335.3482405100767
1403,320.8700636160138
1404,308.20208680281576
1405,298.07406459071353
1406,293.10575089903796
1407,296.25689905542094
1408,308.67726180503814
1409,323.9665913198951
1410,333.8946392081489
1411,333.1611565234052
1412,329.42589377414333
1413,333.95860093311785
1414,354.2190274467757
1415,378.83692224474726
1416,390.61203374932666
1417,375.99410988506133
1418,341.2428980882796
1419,299.32814531667464
1420,261.209598059002
1421,225.8170023446619
1422,187.70010375346828
1423,143.91864742532562
1424,107.65237806999721
1425,98.50103997689803
1426,131.59437702490322
1427,191.5321326922167
1428,250.11405006621135
1429,282.4898718533768
1430,288.81934038922554
1431,280.3021976482669
1432,267.85818525404466
1433,259.8970444890838
1434,263.67851630501536
1435,284.12234133262245
1436,307.6682598919833
1437,311.8660120025852
1438,278.8353373934915
1439,228.37597551358704
1440,198.8076655417135
1441,222.8301463970456
1442,284.74315674927493
1443,344.7764350289435
1444,367.69971943782366
1445,358.54274795921447
1446,342.5652583683841
1447,342.51698824297637
1448,358.55767497345005
1449,379.4770557735319
1450,394.294867690769
1451,394.4008476169911
1452,372.4047322988881
1453,323.39625834860635
1454,262.6651622542995
1455,215.40118039081062
1456,203.49404903028335
1457,221.7335043528583
1458,252.10928245736795
1459,277.52111937205336
1460,289.0687510653661
1461,281.551913456653
1462,252.47034242704103
1463,218.43377383021289
1464,204.5019435032591
1465,229.71458727758727
1466,272.17144098974313
1467,292.8622404923917
1468,259.9767216652326
1469,188.124620425966
1470,110.07567274126632
1471,54.34961463779109
1472,24.08618221323195
1473,13.195111647346494
1474,17.396139213029528
1475,42.339001287418796
1476,97.02343436299998
1477,183.23917505874851
1478,267.53596013128845
1479,305.663526486067
1480,268.4516111885605
1481,193.47995147547408
1482,136.8382847660032
1483,138.60634867309273
1484,175.69388101468576
1485,209.38061982506406
1486,210.10630336611212
1487,180.49067013870808
1488,130.17345889405988
1489,71.97440864504824
1490,28.513258677659906
1491,24.269748562375753
1492,66.883618165597
1493,118.80460766110627
1494,135.03245754152886
1495,95.18690862977382
1496,36.14770209058406
1497,2.7945794420411403
1498,13.7672825670561
1499,34.945553724948695
1500,26.239135563017044
1501,-22.2722288719051
1502,-68.33879612183955
1503,-65.22082230606975
1504,-2.878563109490642
1505,74.69772622900564
1506,119.98779092820769
1507,114.68137667624978
1508,77.12822964226507
1509,27.938096488127485
1510,-13.999275619877153
1511,-31.614138999259012
1512,-9.086745439690276
1513,47.49265380885845
1514,112.71380804778892
1515,161.78646714171555
1516,188.77038153024478
1517,201.52530223973736
1518,209.16098089517254
1519,230.43716973194387
1520,289.94362160770834
1521,407.55009001423605
1522,563.7063290892584
1523,719.6120936283405
1524,841.5271390967791
1525,928.3612216414731
1526,991.794098102826
1527,1039.13552602669
1528,1056.0352636762218
1529,1021.5730700438689
1530,924.9387048632889
1531,793.7419286212935
1532,664.6825025698017
1533,562.380188737814
1534,476.43474994337885
1535,390.0759498055777
1536,295.78355275649665
1537,206.56732405323055
1538,138.0770297898962
1539,95.46243690963092
1540,65.82331321658421
1541,34.7194273879868
1542,-3.6194510138702753
1543,-43.39355152956341
1544,-78.13310279052894
1545,-104.31833250700947
1546,-121.40946745599285
1547,-129.28673346919823
1548,-132.320355420954
1549,-138.32055721620054
1550,-153.56756177839998
1551,-167.77159103745362
1552,-160.97286591765805
1553,-118.32160632560772
1554,-61.568031138118386
1555,-28.19235819018286
1556,-47.014804262827965
1557,-103.59558507107431
1558,-170.07491525184741
1559,-224.553008351857
1560,-266.1000768155682
1561,-298.316331973052
1562,-320.87198402792274
1563,-323.64724204524464
1564,-295.1623139394469
1565,-237.96740646222315
1566,-179.31272519045524
1567,-148.4984745141046
1568,-155.86485762415032
1569,-187.7720765004742
1570,-228.9703318998072
1571,-262.71982334361746
1572,-270.9707491060435
1573,-238.3833062018275
1574,-181.6976903742252
1575,-138.244096082919
1576,-139.47271649198956
1577,-170.83374345782067
1578,-197.2873675170449
1579,-192.0237778744886
1580,-168.453162391128
1581,-151.98570757201378
1582,-158.7315985542591
1583,-175.0210190949947
1584,-181.36415155934083
1585,-168.08117690835206
1586,-146.20227468703888
1587,-129.09762301233786
1588,-118.28739856110042
1589,-98.4617765581097
1590,-54.180930764079676
1591,4.39496653633978
1592,42.47574454651112
1593,28.14123396978539
1594,-24.218732978537446
1595,-70.27432255924214
1596,-71.05569949728306
1597,-28.643026969853963
1598,37.47353340553309
1599,107.5438215829854
1600,161.11767910008348
1601,177.55494908980472
1602,148.2554762923828
1603,96.90910706718205
1604,52.37568940455094
1605,31.705072937649675
1606,31.8671089542986
1607,47.711650408789865
1608,69.86855193365773
1609,84.35766985156079
1610,78.06886218694126
1611,53.15198867786239
1612,22.426910787729867
1613,-2.2565082829423773
1614,-17.958403584863845
1615,-25.71890840823471
1616,-27.29815427104768
1617,-27.68627090744849
1618,-32.67338625603588
1619,-42.65962644827232
1620,-44.43511579682672
1621,-22.97997678397951
1622,16.345669949958392
1623,36.8717056182395
1624,1.3780132991960272
1625,-81.77552205219763
1626,-160.90901359284544
1627,-187.70257257997582
1628,-166.68630835972726
1629,-133.15032835566308
1630,-117.05473805734437
1631,-116.61964100888872
1632,-119.17513879762555
1633,-115.82133104267632
1634,-109.38831538363593
1635,-104.97618746921944
1636,-103.55504094596836
1637,-98.724967446964
1638,-83.70605658056229
1639,-62.11839591916214
1640,-48.642070987960324
1641,-56.987165253816784
1642,-83.53376011402725
1643,-113.7919348852156
1644,-132.61176679222626
1645,-122.14333095699112
1646,-63.59670038749391
1647,39.238054033277876
1648,112.36086355834777
1649,69.00166158775392
1650,-97.81961632054663
1651,-257.17303243964125
1652,-270.10864686287096
1653,-129.88651749287237
1654,39.31329996923887
1655,118.46075203468354
1656,94.34578743784732
1657,13.248357146996568
1658,-79.82158562497716
1659,-149.22408540983088
1660,-162.2291844733154
1661,-110.77692280455449
1662,-49.50733810539896
1663,-41.790465779860824
1664,-100.56633892360696
1665,-169.16498831337594
1666,-189.4464423965619
1667,-159.32072728072308
1668,-119.57786672319708
1669,-106.29788212069252
1670,-116.27079249898088
1671,-130.12661450254382
1672,-132.0253623843273
1673,-118.30704799550949
1674,-87.991680775227
1675,-51.31926774049498
1676,-37.91981347602996
1677,-77.3033201241451
1678,-157.21978737470636
1679,-226.8992124551114
1680,-241.10159012029908
1681,-212.03691264281952
1682,-179.91516980290544
1683,-172.27634887860768
1684,-166.78043463598806
1685,-129.24740931931592
1686,-57.04725264131412
1687,-7.69994177346598
1688,-42.285451336323604
1689,-146.78375338993646
1690,-232.84481742418575
1691,-221.58861034931397
1692,-144.41509648640567
1693,-88.92423755789787
1694,-114.89599267821177
1695,-170.88031834436697
1696,-178.6071684266608
1697,-108.96649415935099
1698,-25.248244131475076
1699,1.8676357223594096
1700,-36.34879786884267
1701,-89.9574855034225
1702,-112.43836509796165
1703,-102.9613718783221
1704,-82.26643837065058
1705,-69.64349439249054
1706,-78.97246704389545
1707,-122.64328069863768
1708,-191.33585699543255
1709,-240.09011482920687
1710,-224.0359703424583
1711,-154.40333691661363
1712,-87.82212516346408
1713,-72.96224291666294
1714,-100.25359522325743
1715,-137.6560843352454
1716,-160.3496097012503
1717,-163.52406795820207
1718,-145.93935292306196
1719,-114.70535558463598
1720,-87.51196409541444
1721,-81.04906376348663
1722,-92.79653704448356
1723,-108.4942635336156
1724,-116.47211995772159
1725,-117.61998016737198
1726,-116.21771512909982
1727,-115.99519291759498
1728,-119.58227870802148
1729,-128.9488347683655
1730,-135.81472045179544
1731,-122.7597921892193
1732,-77.14390348173038
1733,-20.716904893241008
1734,10.711355956918851
1735,-2.8089655987314472
1736,-37.487711268597195
1737,-62.664719794800476
1738,-70.23982694608276
1739,-79.74286551074692
1740,-109.1436652896773
1741,-145.00205308938166
1742,-156.39785271516666
1743,-122.36088496430602
1744,-60.10096761929526
1745,4.312084558790957
1746,48.688459836961556
1747,56.97834951678669
1748,16.101947940936952
1749,-55.00054750041818
1750,-114.81893636328823
1751,-129.94301514354083
1752,-107.82257727070828
1753,-68.06741310184225
1754,-31.497309915423102
1755,-21.172051905363332
1756,-57.501420175045496
1757,-110.99519273148326
1758,-110.60314447945348
1759,-6.2950472158590856
1760,126.21933037602139
1761,167.64022273207593
1762,70.49786741290154
1763,-55.60749489079171
1764,-85.98562035271607
1765,-13.60626200580009
1766,59.940830263083626
1767,47.43590971829326
1768,-22.860767219546688
1769,-78.56894096850374
1770,-73.72834878041613
1771,-24.36872473603944
1772,44.72020025973325
1773,111.86869848256174
1774,158.40704539333092
1775,170.36551964265163
1776,163.05440307533718
1777,163.2139807348285
1778,178.99454086747573
1779,174.9463749267925
1780,112.34977757761226
1781,15.21504670012655
1782,-33.09751660604161
1783,31.262391981988912
1784,139.00508001423805
1785,171.12085827161354
1786,80.46004076957615
1787,-22.09705523829325
1788,-11.57010925677605
1789,107.32120245440092
1790,216.70720688392248
1791,220.15823427206487
1792,158.49461811394576
1793,118.29669516253125
1794,143.03480543168553
1795,192.81929219902304
1796,220.3405020087739
1797,209.91878467448623
1798,169.8044932816665
1799,110.7179841903635
1800,51.469617037597345
