800,14.540231360875623
801,17.126920282504216
802,31.652669762603182
803,53.08472844465541
804,73.10734436983148
805,83.35876497513345
806,78.10723709156264
807,60.667006942327134
808,36.31232014101806
809,10.322421689845214
810,-11.610444022146112
811,-23.279033220800557
812,-18.448102748625388
813,7.824589933514289
814,50.382286744674275
815,99.31922898214725
816,144.7116573197818
817,178.20481180631396
818,195.41793186373616
819,192.5832562856467
820,166.42802323563956
821,123.39847024569826
822,78.90183421461734
823,48.67535140640939
824,44.49025744876417
825,57.44078733149581
826,71.89217540500613
827,72.32765537878004
828,52.974460319876016
829,24.808822651444643
830,0.4549741512437322
831,-8.468854049802758
832,-1.4004314690591855
833,15.370471726384494
834,35.45808471831333
835,53.29863603597187
836,65.98635355468105
837,71.13946449446303
838,66.55519541868489
839,54.61477223270049
840,42.703420182542686
841,38.45536385357627
842,47.30482716921142
843,61.406033389605
844,67.96720511039348
845,54.300564261417094
846,19.15233210547558
847,-17.460270762905566
848,-33.2180244187075
849,-8.313709607606143
850,48.26989225280704
851,109.19599907185693
852,146.84582808461346
853,144.1685958507387
854,117.45151825333414
855,89.54481049782589
856,82.52568711084314
857,100.20436193911155
858,127.70704814836427
859,149.31795822227468
860,152.27330396138495
861,139.43829648205428
862,118.83714621543186
863,98.43806290641623
864,83.22025561266673
865,73.42093270357873
866,68.85630185932132
867,69.28657006984031
868,73.99194363392598
869,82.00262815824681
870,92.34582855641202
871,105.23074904806163
872,123.6955931579505
873,151.18756371505697
874,190.53086285167956
875,235.2786920025901
876,271.90825190416217
877,286.7187425935135
878,271.66036340769097
879,238.9613129828358
880,205.40978925336822
881,187.28798945120434
882,187.75511010495757
883,195.83734703916525
884,199.86289537353878
885,190.37294952219963
886,169.49070319294697
887,143.11034938653756
888,117.15108039595725
889,98.8540878057338
890,97.38556249123758
891,122.0726946180148
892,179.15367364110716
893,252.0426883043965
894,313.92892663998646
895,338.089575967535
896,315.10782289366216
897,269.24185331133776
898,228.62885239926254
899,218.66500462132353
900,236.61149372598265
901,263.2105027457328
902,279.02521399654506
903,272.9768090773341
904,255.03946886941594
905,238.44437353600188
906,235.4727025217071
907,245.26663455202106
908,257.2763476328564
909,260.7250190500672
910,249.73282536898114
911,233.86094243395928
912,225.71154536795802
913,237.18680857209438
914,267.0809057252318
915,302.5130097835845
916,330.19929298030365
917,339.01492682511343
918,326.1210821039276
919,290.6709288784896
920,232.35963648602046
921,164.21437353887995
922,113.10430792423176
923,106.54460680373268
924,162.60043661322015
925,256.81896306241106
926,352.79635113461336
927,414.85476508646025
928,429.93836844763246
929,411.52732402060064
930,374.61179388039454
931,332.53193937434844
932,290.1279211218898
933,249.55489901432156
934,213.04003221462153
935,185.20547915722636
936,173.75239754788163
937,186.58094436344618
938,227.86827585172614
939,281.1765475313405
940,322.99491419154947
941,330.2205298921599
942,299.1935479633594
943,252.52412100562833
944,214.71240088963168
945,206.1785387561231
946,223.57268501585895
947,255.01498934953452
948,288.6356007077011
949,313.62466731073255
950,320.6323366487686
951,300.4287554816783
952,247.29406983903573
953,176.1484250201156
954,109.3799655938692
955,69.06083539893916
956,61.468177543674756
957,71.09613440613248
958,80.83384763414688
959,76.42145814533069
960,59.83110612715063
961,38.77293103697957
962,20.88107160216714
963,9.84466582011919
964,4.12885095837737
965,1.837763554731282
966,1.227539417312073
967,1.372313624708113
968,1.6152205260987103
969,1.277393741382184
970,-1.331033838678195
971,-9.146930052324024
972,-25.173163466595724
973,-51.270603377213774
974,-83.67611980836227
975,-116.92158351251783
976,-145.51386597024793
977,-163.36783939002453
978,-163.73137670797405
979,-139.80635158768928
980,-89.70163841997237
981,-32.33811232261178
982,7.827350859874059
983,7.344874556492869
984,-34.44141852995199
985,-95.74940642259207
986,-153.84096787020826
987,-190.8729823469348
988,-206.65133005196367
989,-204.950891909235
990,-189.5305495671255
991,-163.73718539810216
992,-130.58968249841564
993,-93.09592468774099
994,-54.40079650881853
995,-18.059183227127505
996,12.301029169519097
997,33.09595397132762
998,41.295703746913205
999,34.27039034369409
1000,9.44012488828048
1001,-31.03498221309019
1002,-73.67482127417134
1003,-103.37828332826393
1004,-105.0262601277791
1005,-67.56164414380873
1006,-7.229328565676042
1007,48.458792699526384
1008,72.32282502738963
1009,55.12287307668157
1010,13.419040789804058
1011,-34.20856860670392
1012,-70.89985260168214
1013,-88.93470939883628
1014,-83.69303791623315
1015,-51.00473778577543
1016,0.04029064731730614
1017,44.75214632504685
1018,57.5309274771771
1019,21.7667316217794
1020,-41.01034443419303
1021,-99.20020459436819
1022,-122.51275347236151
1023,-106.59789639120936
1024,-71.21553938277066
1025,-37.05558918714814
1026,-18.967953252058578
1027,-13.442539732266596
1028,-13.409257488929143
1029,-12.018016088990407
1030,-6.088725804544083
1031,5.068702387792655
1032,22.034356807547738
1033,43.88832507102052
1034,66.26069409196498
1035,84.27155008223235
1036,93.58097855247979
1037,94.55906431281073
1038,89.90589147349783
1039,82.36154344565693
1040,75.53610294195278
1041,74.42965197732701
1042,84.16227186968354
1043,107.95404324064293
1044,138.46504601625384
1045,164.70535942772767
1046,175.99506201219447
1047,169.82423161345469
1048,152.67294538272654
1049,131.48127977941476
1050,111.93931057188092
1051,95.24711283822398
1052,81.634760967072
1053,71.44232865835329
1054,66.70988892411697
1055,70.65751408931828
1056,86.53527579264664
1057,112.17324498733797
1058,133.5114919419866
1059,134.9200862413927
1060,104.56909678740158
1061,59.298591799730275
1062,28.978638816832245
1063,42.92930469674866
1064,104.70065561797855
1065,183.1527570803355
1066,244.6556739058342
1067,263.5494702395681
1068,247.79420955061687
1069,214.2199546328975
1070,179.23676760611306
1071,152.13470991663416
1072,136.4638423384149
1073,135.57422497392145
1074,148.89591725505852
1075,166.61897794408287
1076,177.61346513456738
1077,172.34943625233427
1078,153.54694805639338
1079,129.53605663991948
1080,108.65681743120695
1081,97.35928519463778
1082,99.68351403165252
1083,119.50955738173252
1084,157.37746802340007
1085,201.07729807518626
1086,235.3090989966513
1087,245.82292158937707
1088,231.89881599798173
1089,202.41683171113255
1090,166.46701756257062
1091,132.2294217321396
1092,106.11409174681467
1093,94.33107448174269
1094,100.71041616128969
1095,115.25216236009146
1096,122.98635800410375
1097,109.46304737166975
1098,72.09227409458981
1099,20.02408115918479
1100,-37.061489092617194
1101,-89.8543949621926
1102,-129.86459539315
1103,-148.7420499702166
1104,-140.33671891814083
1105,-116.03856310060291
1106,-95.72754401907878
1107,-98.90362381173509
1108,-128.29676525231298
1109,-165.54693174898784
1110,-190.91408734323886
1111,-189.91819670872064
1112,-165.78922515010527
1113,-125.5671386019385
1114,-76.9619036274944
1115,-34.933487417589276
1116,-18.71185778945619
1117,-47.166983185534264
1118,-117.68883267232013
1119,-195.91737593917787
1120,-244.88258329715427
1121,-239.41442567777995
1122,-200.72287463189605
1123,-161.46790232841704
1124,-151.59948155315942
1125,-168.44758570761223
1126,-188.0421888077217
1127,-186.3332654826736
1128,-159.71079097365873
1129,-137.07474113265744
1130,-150.25509242118824
1131,-218.98182190907391
1132,-312.554907273181
1133,-387.2043267961981
1134,-402.70005936534653
1135,-362.5220844711439
1136,-299.2003822061233
1137,-245.54493326356896
1138,-216.9357189362363
1139,-201.14272111508035
1140,-183.5259222879631
1141,-156.12530553836405
1142,-137.56085454408276
1143,-153.06255357595
1144,-223.81038749651452
1145,-325.61434175873546
1146,-406.15440240466705
1147,-413.47055606415233
1148,-337.96278995348075
1149,-230.80109187407834
1150,-147.8554502111656
1151,-127.06585393242494
1152,-144.1222925866532
1153,-161.29475630243178
1154,-145.4132357867602
1155,-105.25772232370036
1156,-71.93820777302972
1157,-75.91468456887378
1158,-119.04714571832847
1159,-168.85558480009786
1160,-190.88999596311805
1161,-167.67037392516067
1162,-128.51671397146856
1163,-110.71901195334613
1164,-143.71726428677175
1165,-203.50146795100773
1166,-243.84162048717917
1167,-220.98771999688688
1168,-142.39976514077352
1169,-62.857755137123604
1170,-38.68168976044035
1171,-92.02156934000595
1172,-176.2673947584808
1173,-236.50916745044378
1174,-231.10688940096952
1175,-180.24056314417794
1176,-122.18019176179223
1177,-92.6657788816974
1178,-96.9473286764678
1179,-120.38484586192862
1180,-148.0883356956765
1181,-168.68780397562477
1182,-175.66325703853
1183,-162.86470175850627
1184,-129.71214554557446
1185,-92.22559634414392
1186,-69.50506263154966
1187,-76.94055341656349
1188,-104.7220782378754
1189,-132.49964716262366
1190,-140.7932707848704
1191,-125.93296022410505
1192,-98.0587271237473
1193,-67.71058364959026
1194,-39.52854248832955
1195,-7.822616846016899
1196,34.20717955346481
1197,87.7008324699218
1198,132.78832714840246
1199,144.5796483207123
1200,102.73478020696894
1201,25.303706517142928
1202,-50.43358954739051
1203,-88.31712529229844
1204,-82.46691852874028
1205,-57.14298757179131
1206,-37.865351238902804
1207,-39.994028848312155
1208,-59.059040217483926
1209,-88.24040566152144
1210,-118.70814599160803
1211,-133.39228251340865
1212,-113.1528370254855
1213,-43.30983181771262
1214,51.73671033032224
1215,127.34676615090393
1216,140.49031188981098
1217,89.37732330790095
1218,12.907775682730062
1219,-48.40835618984056
1220,-72.63109799402991
1221,-72.54047589251059
1222,-64.71651652480432
1223,-62.40924700563119
1224,-66.61869492330516
1225,-75.46488833808144
1226,-86.62785578052899
1227,-94.08762624989686
1228,-90.19422921245678
1229,-67.95769459986332
1230,-32.938052807514396
1231,-1.2753346928730025
1232,10.740428426162907
1233,-1.360795227052222
1234,-23.919037886278602
1235,-41.72433224069573
1236,-44.486711433244636
1237,-36.02620905895674
1238,-22.6628591632616
1239,-9.13669624033355
1240,8.52224476862466
1241,37.26392847704847
1242,82.57831905470812
1243,133.42538022940244
1244,168.41507528865077
1245,166.80736708141194
1246,131.05221801975858
1247,89.07959008061698
1248,69.99944480745216
1249,86.96174331198563
1250,122.52644627593145
1251,155.75351395269536
1252,171.3929061691033
1253,173.8145823271334
1254,171.65850140563816
1255,172.9646219620845
1256,181.83290213429063
1257,200.83329964215227
1258,231.72577178940446
1259,266.020275465351
1260,288.28676714662106
1261,283.55520289891865
1262,254.37553837878295
1263,223.2477288353366
1264,213.64172911205605
1265,234.77749364853298
1266,268.804976482239
1267,294.8441312502964
1268,299.2849111912601
1269,292.3472691468851
1270,289.1111575639061
1271,300.84652849582744
1272,317.3133336047031
1273,320.66152416293335
1274,295.5010510550419
1275,252.19186477948097
1276,216.18391545043778
1277,211.94715279961747
1278,238.4015261780587
1279,270.37698455793
1280,282.01347653436096
1281,262.40095032723
1282,223.04935378299524
1283,177.27863437651285
1284,134.7987392128489
1285,96.54961502911829
1286,62.201208196302105
1287,32.903464721082855
1288,15.716330247667429
1289,19.149750059648795
1290,49.07366908181757
1291,94.13803188201928
1292,136.13278267299756
1293,158.4678653142364
1294,163.27322331382493
1295,164.38879983029256
1296,175.55453767448125
1297,203.9903793113972
1298,250.77626686207623
1299,316.46214210544895
1300,389.9879464802052
1301,443.60362108667687
1302,448.39910668868833
1303,397.5443437154645
1304,331.8192722634776
1305,298.2638320983642
1306,326.31796265677804
1307,387.18160304829325
1308,439.9846920573036
1309,451.41716814490064
1310,427.1389694507707
1311,385.23003379511283
1312,342.71029868051846
1313,307.9297012938823
1314,285.0681785083216
1315,277.5056668850775
1316,278.332102675422
1317,273.4774218225848
1318,249.39155996367117
1319,207.97445243156835
1320,166.53603425689653
1321,142.8762401699114
1322,146.38500460244722
1323,174.61226168983922
1324,224.16794527286947
1325,286.681988899707
1326,343.74432582782356
1327,375.79488902596677
1328,371.5636111761014
1329,343.3004246753371
1330,307.41526163789786
1331,276.8880538970807
1332,250.6487330071941
1333,224.05723024553117
1334,194.67347661433269
1335,172.91740284274783
1336,173.89893938879322
1337,209.42801644134488
1338,263.6445639220947
1339,306.75851148752736
1340,311.77978853090826
1341,288.3183241842544
1342,270.87404732032337
1343,292.3068865546029
1344,344.1467702472928
1345,380.51362650530245
1346,355.5573831842412
1347,269.7279678904215
1348,178.66530798285748
1349,140.6593305752558
1350,175.13996253804362
1351,240.76713050035505
1352,291.05076085205474
1353,301.04077974574466
1354,289.99711309878694
1355,282.5196865953112
1356,289.83842568824366
1357,287.1232556013383
1358,243.55410133118858
1359,144.49088764926273
1360,32.24353910393802
1361,-38.308019977466756
1362,-27.433865486649665
1363,34.8159264677015
1364,98.3412795619679
1365,121.85211725963745
1366,116.99836281334501
1367,114.98993926693583
1368,141.73676945751868
1369,181.45877601750362
1370,198.87588137668354
1371,163.53800776427852
1372,95.67507721101356
1373,44.99701155116418
1374,56.923732424647824
1375,114.0051612790885
1376,153.98121937187716
1377,117.64182777227143
1378,19.836907363456703
1379,-60.653621155363
1380,-45.90983726687773
1381,66.7481793664083
1382,201.93034890427043
1383,282.006591330859
1384,278.18682645679473
1385,222.07097392125434
1386,148.8189531940934
1387,83.7906835779304
1388,38.006084210266636
1389,21.285074065584922
1390,35.18757195746912
1391,67.18349654071062
1392,103.37276631342684
1393,131.43529961918648
1394,142.3310146491276
1395,127.41982944408483
1396,87.83166189670737
1397,47.40642975360424
1398,33.224050617462126
1399,58.514441949197135
1400,99.38752107006985
1401,125.73320516385684
1402,119.9014112789664
1403,102.61205633059217
1404,101.94505710288286
1405,133.65033025105913
1406,169.89779230359272
1407,173.347359664358
1408,121.07894861478417
1409,47.712475316033306
1410,2.167855811141635
1411,20.82500602721484
1412,84.12384177757122
1413,156.96427876394046
1414,209.78623257862273
1415,240.42961870667204
1416,255.18435252808194
1417,259.2503493199565
1418,251.9175242587189
1419,230.42579242227657
1420,193.9350687922324
1421,152.6652682560707
1422,120.93630560936072
1423,112.85809555794913
1424,141.2705527201706
1425,218.4935916290451
1426,349.4171267345009
1427,488.0710724055789
1428,567.075342932636
1429,533.0398525295823
1430,434.75451533608793
1431,366.2592454198111
1432,407.51395677861547
1433,529.1285633428142
1434,651.1829789773856
1435,703.277117484211
1436,693.2908926043183
1437,666.5242180201203
1438,663.1370073576454
1439,679.2891741887888
1440,689.5306320335767
1441,671.4412943623902
1442,629.1310745982428
1443,579.9398861190075
1444,540.7076422597256
1445,522.8842563148082
1446,535.2296415403489
1447,584.2337111563666
1448,657.4663783490942
1449,732.9275562732255
1450,789.4571580542306
1451,813.2150967905964
1452,794.0712855561324
1453,725.405637402253
1454,629.5880653602562
1455,543.1284824436298
1456,498.1068016503268
1457,490.41293596508876
1458,498.726798361713
1459,503.2783018053833
1460,497.3973592549646
1461,480.35388366530424
1462,452.31778798956657
1463,419.3489851815157
1464,390.15738819786566
1465,371.95291000058023
1466,361.93546355920626
1467,353.1049618531906
1468,338.9213178742266
1469,316.1244446285673
1470,282.6842551393747
1471,238.24066244905953
1472,192.28357962161135
1473,157.88291974496133
1474,145.42859593330832
1475,150.88052132948542
1476,165.32860910731324
1477,178.062772473957
1478,169.59292467227715
1479,117.71897898320822
1480,12.324848728110737
1481,-103.22955272885156
1482,-170.79731197833462
1483,-151.69251556344352
1484,-84.24424997736241
1485,-25.824601660948247
1486,-16.79865700037044
1487,-37.9585023247073
1488,-57.062223903552876
1489,-53.45790794463392
1490,-42.17364059140891
1491,-45.070507920650925
1492,-72.23559594006474
1493,-102.19699058586048
1494,-108.27677772035531
1495,-79.06304312955945
1496,-38.73487252074301
1497,-16.45835152003019
1498,-29.0745656699728
1499,-68.65560042712059
1500,-124.24054115958643
1501,-180.70947314461955
1502,-215.76248156615839
1503,-206.81465151240627
1504,-155.19706797336767
1505,-97.45681583841906
1506,-72.19397989384197
1507,-89.24464482037547
1508,-122.4148951907664
1509,-143.81281546729952
1510,-140.4714899993287
1511,-115.20000302081462
1512,-71.96843864786752
1513,-22.225880876245355
1514,15.954586421103159
1515,25.919879496530484
1516,14.076914730167118
1517,3.7556086324257194
1518,16.103877846468095
1519,44.68263915072748
1520,66.4298094613896
1521,61.399305834906045
1522,36.9810454704857
1523,13.922945712620276
1524,8.026924053590847
1525,3.172898135981086
1526,-29.213214244789924
1527,-106.7664951379611
1528,-193.38102643489037
1529,-236.48388986652208
1530,-201.56516700086104
1531,-122.54293924042395
1532,-49.52428781970593
1533,-16.723293802631815
1534,-12.128038079999897
1535,-15.408601366943913
1536,-14.359064200352805
1537,-14.90850693633729
1538,-25.348009747644028
1539,-46.4386526210983
1540,-65.99651535502562
1541,-70.9256775566846
1542,-63.19621863967404
1543,-64.70021782136428
1544,-97.35575412030448
1545,-151.09790635362333
1546,-183.38775313444603
1547,-153.7873728692939
1548,-75.99384375546288
1549,-5.553243778453179
1550,6.234349290672981
1551,-37.379142102106925
1552,-101.43879529115657
1553,-153.16368738855817
1554,-178.09589528148354
1555,-169.62349562957024
1556,-125.83456486228533
1557,-67.99117917627518
1558,-24.552414532747207
1559,-15.18434665480163
1560,-28.712051024789616
1561,-47.21760288166115
1562,-57.656077218302016
1563,-59.04854877887192
1564,-52.302092056153924
1565,-42.20778128884376
1566,-40.41169045892093
1567,-58.996893288940555
1568,-99.69746323935578
1569,-151.1704735058429
1570,-201.08099701659012
1571,-234.4541064296136
1572,-233.9178741300566
1573,-184.5883722274848
1574,-101.47167255317072
1575,-18.771846657396964
1576,32.70903419328715
1577,49.63089901875719
1578,40.895677128060925
1579,15.993298122137276
1580,-13.078308103438758
1581,-33.56021135572337
1582,-36.695481141670825
1583,-26.41718666536326
1584,-9.178396825278469
1585,8.567819788484485
1586,20.369394896946687
1587,19.913260535027803
1588,7.5583490543194785
1589,-6.84240687415695
1590,-13.217074257147033
1591,-12.486719776403334
1592,-16.1674097858795
1593,-34.723210308944545
1594,-61.18418703559837
1595,-77.29740531962852
1596,-67.53893017586051
1597,-36.844826277296306
1598,1.173842047664948
1599,33.333010818079856
1600,48.4986164032598
1601,36.072595525616634
1602,-5.059114736508491
1603,-50.70457694600918
1604,-72.68385330415367
1605,-60.88700564775354
1606,-35.90709544629681
1607,-20.531183799095743
1608,-15.3623314324268
1609,3.311401303351886
1610,57.5889544366637
1611,131.7242683776003
1612,183.26228392077974
1613,177.2179422482841
1614,137.24718493249748
1615,112.96595393904863
1616,140.6561916296887
1617,199.1488407652032
1618,251.98384450833873
1619,272.3551464267093
1620,257.93369049571993
1621,210.330421101502
1622,139.55128304385107
1623,68.50122153914526
1624,20.799182223316166
1625,11.218111154776125
1626,46.111954817386504
1627,128.55066012342104
1628,231.68717441650915
1629,311.2114454746297
1630,331.58442151307645
1631,307.1310511874435
1632,269.2962835966009
1633,241.6990682857031
1634,223.51935524916735
1635,209.22809493369823
1636,196.28623824127317
1637,187.49673653217178
1638,186.19454162798502
1639,194.85460581464577
1640,215.04488184546062
1641,247.87332294413136
1642,289.8528828078124
1643,334.59451561014976
1644,376.3721760043318
1645,413.59081912614965
1646,446.1294005970576
1647,473.8348765272476
1648,496.4482035187157
1649,513.7183386683537
1650,528.2722395710207
1651,547.6998643226489
1652,579.3221715233303
1653,612.7891202804276
1654,620.2866702116753
1655,577.8547814483045
1656,506.64441463816365
1657,453.1685309488239
1658,451.37209207074375
1659,472.44206022038816
1660,468.5273981433693
1661,418.22606911761613
1662,367.32203695651333
1663,371.09726601205875
1664,436.8267211780658
1665,505.4593678932961
1666,517.0821721446664
1667,472.23610047042166
1668,417.76011996334273
1669,394.1841982739279
1670,391.3763036136115
1671,378.3224047579679
1672,332.91647104993353
1673,263.02247240302677
1674,182.77637930457968
1675,107.43816281897489
1676,54.16479459089351
1677,39.32624684854454
1678,59.16049240694883
1679,91.31950467118259
1680,114.86925763964973
1681,126.3437259073471
1682,130.785884669167
1683,130.68770972316997
1684,118.42517747387501
1685,84.05826493557652
1686,32.88694973563361
1687,-0.7077898822044517
1688,18.789024945519486
1689,77.3453737052987
1690,111.84623650998947
1691,66.68559410216221
1692,-30.435572142561796
1693,-109.31028021214661
1694,-119.13654745479471
1695,-86.79939057555748
1696,-58.061825632987166
1697,-57.311868035731095
1698,-68.75753253916628
1699,-72.77383324198308
1700,-62.9727835828071
1701,-45.4913963367635
1702,-26.901683612082707
1703,-13.189656846665457
1704,-10.088326804661847
1705,-20.04270357303176
1706,-34.056796558090355
1707,-40.68361448207361
1708,-32.511165379670274
1709,-8.757456594561518
1710,29.899505224058885
1711,69.22771412495968
1712,84.0251648583544
1713,54.179852879397004
1714,-6.456225648298641
1715,-70.91807384917774
1716,-116.33869413221328
1717,-131.22808818738304
1718,-106.61725698213922
1719,-56.74920075787122
1720,-25.585919026361807
1721,-53.618410566228704
1722,-121.66867341936813
1723,-173.92970488738683
1724,-168.7455015280193
1725,-129.41305915154953
1726,-96.9573728172254
1727,-92.5834368296455
1728,-99.3422447351677
1729,-96.44778931828841
1730,-73.25206259801053
1731,-28.172055824230483
1732,34.87024052590277
1733,77.5178367516437
1734,47.33574393229355
1735,-71.29302606913552
1736,-192.48146060225554
1737,-215.4235462256056
1738,-127.05926870300391
1739,-21.800612999824807
1740,9.48243672069475
1741,-25.301102898838508
1742,-63.25121440626026
1743,-58.64287953611165
1744,-32.47807920591731
1745,-20.991793512446748
1746,-36.78100172794257
1747,-55.1366822963937
1748,-50.130812829742354
1749,-23.479370104125337
1750,3.6376699439169897
1751,13.789332221225777
1752,9.418642481825373
1753,-1.1863726692608907
1754,-13.85968577220956
1755,-32.33226850855863
1756,-60.60109169737734
1757,-91.96912529143628
1758,-110.84933837333301
1759,-106.57469915165348
1760,-97.7791749570988
1761,-113.24773223860029
1762,-164.06933655945068
1763,-222.61395259339406
1764,-257.253544120731
1765,-259.68507402440446
1766,-243.14650428609093
1767,-219.68779598224683
1768,-188.86290928020208
1769,-145.45580343417896
1770,-87.72943678137017
1771,-22.08876673795021
1772,43.523250204891156
1773,93.43065848492915
1774,104.50150347289491
1775,60.27683147648895
1776,-11.147310255628327
1777,-64.24187352980698
1778,-73.48180920337472
1779,-60.34206718060341
1780,-52.06859640866969
1781,-55.43334487358152
1782,-57.869259596136544
1783,-49.7272866278181
1784,-43.81137104674235
1785,-61.28345695353528
1786,-103.6874874672485
1787,-129.50340472124117
1788,-94.79514985905735
1789,-17.290663030291398
1790,31.463116613544116
1791,-4.7757490768162825
1792,-89.31919724424733
1793,-154.47016402104236
1794,-161.53858452475833
1795,-127.97239285400428
1796,-77.13052208424597
1797,-24.791904263611286
1798,18.997529591346392
1799,45.87084949987366
1800,54.414126521247454
