800,198.11880983368792
801,189.38044140241982
802,173.99345252593957
803,151.66797812594996
804,121.59415345757043
805,82.94211411061588
806,38.00199601082568
807,-0.20606457896246866
808,-16.331931057666225
809,4.504533515098956
810,61.34346642007404
811,133.33500527934484
812,198.39928805725685
813,236.9564530613534
814,248.99663894317564
815,243.68998469910184
816,230.25662967108292
817,214.6767135473583
818,194.76037636311048
819,167.0377585011047
820,128.40900069223972
821,83.14424401608994
822,42.263629901382956
823,17.0873001264481
824,16.55539681960545
825,37.52806245952888
826,72.87543987553181
827,115.48767224786025
828,157.3049031078972
829,188.61727633835653
830,199.58493617340355
831,181.9880271987622
832,145.76669435176882
833,112.06108292137833
834,102.21133854812979
835,127.6776072240882
836,168.2400352927234
837,197.32876944874442
838,189.27395673793762
839,142.51574455690752
840,81.87428065279346
841,33.439713122988906
842,18.412190414757788
843,28.241861324855563
844,43.29887499909091
845,44.09338093186125
846,24.37552896563102
847,2.565469290395413
848,-0.24664755690901075
849,34.59932930696414
850,97.82355111091056
851,162.34616942879438
852,200.80733617867918
853,195.75720362208085
854,160.9759243631397
855,116.38365134779269
856,81.4005378628608
857,62.886737535161956
858,54.932404330531426
859,51.02769255284693
860,46.16275684298489
861,43.257752177783914
862,47.832833868922535
863,65.30815756180527
864,94.09387923439499
865,121.5801551959994
866,134.14714208606347
867,120.26499687287651
868,86.47387685229114
869,48.613939646369545
870,22.625343202038493
871,19.848245789673456
872,40.662806001670106
873,83.81918275098178
874,147.38753526961955
875,219.68802310713545
876,281.59080612903927
877,313.746044515221
878,303.8038987583277
879,264.4045296621098
880,213.81809833973057
881,169.95476621205125
882,141.49469500589112
883,127.13804675224674
884,125.11498378447868
885,132.95566873650023
886,144.62026454088118
887,152.89893442697576
888,150.71184191898465
889,138.09915083402302
890,125.51102528011688
891,124.22762965420588
892,143.58912864010927
893,178.39568720644274
894,216.96747060456437
895,247.60464436640177
896,263.09737430234964
897,264.905826499069
898,255.47016731729855
899,237.59056338962182
900,217.31718161820936
901,202.6201891725541
902,201.48975348713793
903,216.14604225912626
904,234.26922344600098
905,241.3094652631571
906,224.08693618153484
907,189.0018049251521
908,156.82424046866072
909,148.66441203486647
910,176.78248909221293
911,225.47864135226155
912,273.56303876713173
913,300.675851526923
914,302.0972500571115
915,287.0274050159351
916,265.1564872917279
917,244.17466800027432
918,224.16211848208695
919,203.31901029971777
920,180.01551523501075
921,156.0418052863315
922,136.77805266580071
923,127.72442979649168
924,133.4211093095837
925,153.84826404155865
926,187.73606703129008
927,233.66469151718047
928,286.144310934249
929,334.8150989112146
930,369.08722926751943
931,380.1008760103905
932,367.82621333184034
933,335.07341560565146
934,284.81265738436923
935,227.31411339623628
936,182.13795854214186
937,169.484367892539
938,203.36351668432326
939,263.67558031774024
940,318.60073435323284
941,336.8091545082825
942,310.39101665423914
943,263.066496813135
944,220.8557711544654
945,205.22901599197576
946,211.44640778040775
947,225.30812311224327
948,232.74433871443398
949,226.6252314450976
950,209.42097829021805
951,184.30175636032436
952,154.8677428871324
953,127.10911522021706
954,107.8960508236105
955,103.93872727244161
956,114.33732224951746
957,127.7420135419161
958,132.00297903755018
959,117.43039672171653
960,88.10444467366324
961,53.01530106308019
962,21.053144146631894
963,-2.5518477355435607
964,-17.449496163357253
965,-23.629622640291927
966,-21.66204859694153
967,-15.266595394576143
968,-9.193084328695477
969,-8.081336632607417
970,-11.661173481037622
971,-13.602415993711475
972,-7.214885238992792
973,10.651597762518577
974,25.84721203431218
975,19.022136640347526
976,-28.393449318626153
977,-111.62936670874296
978,-199.74543636669478
979,-260.4314791034285
980,-269.0273157078591
981,-233.54276695058252
982,-170.65765358759018
983,-97.09179636402223
984,-30.635016017899034
985,9.932866716117132
986,5.742031102950932
987,-51.38734359664522
988,-131.2650781298853
989,-195.05099325573246
990,-206.09490974871915
991,-165.2466484027318
992,-104.88603003484604
993,-58.36287548914697
994,-48.03700564055907
995,-63.808241398701284
996,-89.5964037117119
997,-110.11131357013983
998,-120.17279201077872
999,-121.6206601205613
1000,-116.44473904042025
1001,-106.55484996917949
1002,-93.69081416745757
1003,-79.54245296154659
1004,-65.82958774734107
1005,-53.89203999422534
1006,-42.61963124900649
1007,-29.892183139827466
1008,-13.7195173801083
1009,2.1385442275313835
1010,5.59217978732886
1011,-16.088432693566574
1012,-70.72311530904517
1013,-139.49169025798437
1014,-194.5739798482191
1015,-208.8198065004908
1016,-177.3289927524329
1017,-121.3613612625195
1018,-63.65673481407066
1019,-23.11493631920348
1020,-2.255788822836621
1021,0.6908844933368528
1022,-12.234739693147276
1023,-34.652484849526445
1024,-56.112174591780786
1025,-65.98363268866342
1026,-58.846683065683465
1027,-45.541149809121634
1028,-40.14685717002067
1029,-55.20362956821191
1030,-83.05129159631542
1031,-101.84966802376584
1032,-89.53858380080601
1033,-38.99786406252133
1034,22.932665867156174
1035,64.71318047141358
1036,59.703854036548364
1037,23.304860647944224
1038,-7.773625813944818
1039,2.968568322370629
1040,64.78161651540722
1041,143.4256920066764
1042,200.71096781665983
1043,206.08761674079688
1044,171.31581134545013
1045,122.80572396389107
1046,86.36752669227099
1047,71.54139138560276
1048,69.91748965374063
1049,72.20599285736716
1050,70.7870721039526
1051,64.00089824376118
1052,51.48764186581684
1053,33.20747329390542
1054,13.400562582553903
1055,-0.602920486997391
1056,-1.4028064107733371
1057,14.161074033905606
1058,40.048889784431594
1059,68.96080948888812
1060,94.2570015020774
1061,113.99763388150132
1062,128.42287438337553
1063,137.79289045864243
1064,143.1278492489546
1065,146.49791758274478
1066,150.04326197118644
1067,155.46404860424627
1068,162.58044334671285
1069,170.71261173420498
1070,179.0807189692223
1071,185.30492991718165
1072,185.70540910245109
1073,176.61232070439655
1074,156.75582855343782
1075,130.70609612710723
1076,103.82328654610319
1077,81.25756257035391
1078,66.53908659509034
1079,62.44802064692885
1080,71.60452637993876
1081,90.79876507174413
1082,109.24089761960386
1083,115.63108453650784
1084,102.43948594730136
1085,76.64626158475949
1086,48.6815707857495
1087,28.25557248730729
1088,15.098425222804508
1089,1.8602871180519287
1090,-18.908684112528135
1091,-48.94833116977861
1092,-79.07849717363388
1093,-98.8490256669611
1094,-99.96976061939677
1095,-86.70054643115145
1096,-67.81122793685245
1097,-51.941650409315116
1098,-44.30165956336896
1099,-46.71110155963652
1100,-60.87982300832118
1101,-85.52767097297692
1102,-111.52449297428211
1103,-128.43013699378207
1104,-127.46445147766462
1105,-113.35728534046939
1106,-97.36848796884806
1107,-90.56790922526852
1108,-96.03539945173361
1109,-106.78080947349008
1110,-115.13399060270967
1111,-115.2747946422096
1112,-107.4030738890815
1113,-93.0586811383946
1114,-74.40146968683439
1115,-60.22129333635348
1116,-63.21800639781031
1117,-95.83146369459791
1118,-154.7915205662557
1119,-213.5680328720664
1120,-243.7508569946749
1121,-227.52984984364775
1122,-189.04486885907318
1123,-162.7557720150926
1124,-179.62241782346973
1125,-228.7146653371401
1126,-271.7823741537286
1127,-270.48540441906334
1128,-215.1936168306911
1129,-142.01687264136308
1130,-91.17503366254277
1131,-92.25796226783677
1132,-130.64552139648913
1133,-180.22757455680585
1134,-216.3639858296101
1135,-232.83461987164628
1136,-235.60934191900378
1137,-230.85801779050053
1138,-220.6305138910884
1139,-200.58669721520346
1140,-165.80643535014133
1141,-115.88959647939555
1142,-68.37604938599907
1143,-45.33566345582767
1144,-65.97830868093115
1145,-118.2638556628026
1146,-170.7121756156739
1147,-191.97314036977696
1148,-173.17662237459626
1149,-137.7024947021091
1150,-111.42063105000125
1151,-111.19090574489383
1152,-122.58319374552957
1153,-124.37737064594694
1154,-98.91331267866917
1155,-60.540896717833675
1156,-40.70000028234608
1157,-69.98050153900658
1158,-145.96227930560417
1159,-226.55521305401817
1160,-267.3591829133002
1161,-243.66406967273542
1162,-184.96975478489185
1163,-130.0161203686548
1164,-111.66304921223491
1165,-122.91042477618794
1166,-140.12813119639213
1167,-140.75605328701022
1168,-123.63407654346156
1169,-107.49208714535416
1170,-111.70997195939708
1171,-141.49761854233293
1172,-173.64491514379552
1173,-181.52175070921658
1174,-148.01801488266392
1175,-100.62359800968079
1176,-79.86839114013128
1177,-121.73228603098323
1178,-208.18517514911946
1179,-285.90695167410195
1180,-301.8475095009326
1181,-243.1567432427837
1182,-152.01454823374297
1183,-74.62082053149788
1184,-43.30545692003034
1185,-49.29835491229824
1186,-76.24941275287529
1187,-108.28852942058984
1188,-132.82560463114714
1189,-138.69053883973174
1190,-115.54323324357028
1191,-69.2335897845278
1192,-19.601511151624436
1193,13.153099216415285
1194,19.08033712867109
1195,6.41029763952065
1196,-14.776924953823254
1197,-35.65123711376873
1198,-51.98254606478986
1199,-60.66075979583184
1200,-58.4857870627111
1201,-41.567537390496
1202,-5.7059210758725385
1203,52.62915081052961
1204,121.52776642179015
1205,173.63001313242603
1206,181.09597753608068
1207,135.47574544328563
1208,66.46940187918699
1209,8.177031081342648
1210,-14.171283502482765
1211,-11.475459216520903
1212,-3.7654141991442884
1213,-8.851067385036004
1214,-24.80233850728837
1215,-39.5591480995281
1216,-41.38141749800343
1217,-28.889068843624045
1218,-10.962025084047127
1219,3.129790024333488
1220,9.366451914371282
1221,13.508035206183195
1222,22.41461370516663
1223,38.58626040009767
1224,48.543047461173046
1225,35.1050462381354
1226,-14.277672741634888
1227,-76.90503977494882
1228,-113.97698598467105
1229,-89.04344332151959
1230,-8.224344565875072
1231,86.30037667045508
1232,151.57078594247832
1233,168.41694797028322
1234,154.23892663734296
1235,129.54678498881003
1236,108.79058522984997
1237,89.09038872400743
1238,64.4662559915796
1239,31.66824670800088
1240,2.4964197022891312
1241,-6.049167044540809
1242,20.861543599005017
1243,74.0286079133839
1244,129.12208132652268
1245,162.3120184123436
1246,169.31847288932113
1247,167.4014976190665
1248,174.86114460491262
1249,198.9674649905337
1250,225.94050905860422
1251,239.59032622944687
1252,230.6169650597276
1253,213.58047324116887
1254,208.19089759928647
1255,229.9782840921307
1256,267.30267780908616
1257,297.84412296966
1258,301.3026629223132
1259,282.8183401433107
1260,264.92119623559483
1261,269.63127192767206
1262,294.4386070725359
1263,308.8832406466154
1264,281.20521074873614
1265,205.86455459910758
1266,127.14130853833194
1267,94.89550802645317
1268,138.9871876420002
1269,224.0963810810863
1270,301.60312115650595
1271,331.55743979686304
1272,323.27936804574347
1273,303.5289360608731
1274,297.0461731133346
1275,307.31110758678915
1276,325.30376697672364
1277,341.88417788973675
1278,348.5423660428278
1279,337.3783562627232
1280,300.70217248523295
1281,241.68383775460825
1282,179.74337422294957
1283,135.610803149626
1284,122.00614490071166
1285,132.38941894847085
1286,157.4106438708459
1287,187.92983735096823
1288,215.69701617672035
1289,232.67219624028985
1290,232.8853925377698
1291,223.80661916877943
1292,218.31588933609783
1293,228.2732153453453
1294,253.9986086046738
1295,288.63207962446904
1296,325.42363801712054
1297,362.45329249677525
1298,402.4410508791316
1299,448.05692008125334
1300,491.31090612143635
1301,508.9830141190487
1302,476.7532482944516
1303,392.71161196889807
1304,303.23810756450257
1305,261.06273660418265
1306,297.26549971167515
1307,371.3363966115685
1308,427.895426129322
1309,424.2225861913612
1310,382.5378738251693
1311,345.81128515941055
1312,351.34281542408644
1313,390.98245895070613
1314,434.80020917249385
1315,454.38605862461554
1316,443.5099989444243
1317,411.3920208717591
1318,367.69211424922287
1319,325.34026802255175
1320,300.46647024093545
1321,308.97070805741896
1322,348.9129677293149
1323,393.25323461863445
1324,413.17149319254713
1325,396.87772702388065
1326,366.45191879161575
1327,348.02405028144676
1328,357.6441023863408
1329,382.79205510712745
1330,405.8978875531211
1331,414.27157794277446
1332,415.25310360434196
1333,421.26244097657764
1334,441.50956560946724
1335,466.3144521649847
1336,479.16707441785366
1337,466.3474052563615
1338,437.64541668320635
1339,414.67107981632034
1340,417.2343648897968
1341,441.1552412547535
1342,466.0136773803224
1343,472.05964085457344
1344,459.36309838552734
1345,445.9440158021662
1346,449.8723580554797
1347,469.4480892195443
1348,479.3411724926027
1349,453.2715701982106
1350,390.48924378638003
1351,330.27415383476
1352,315.2262600498343
1353,363.0655212681704
1354,440.6318954576618
1355,508.5353397188301
1356,539.1458102861307
1357,536.393262529291
1358,509.4676509546953
1359,468.5089292067514
1360,426.90705006933786
1361,398.82196546724117
1362,394.98362646763417
1363,410.5419832815769
1364,436.11698526555665
1365,462.5885809230258
1366,482.35671790600645
1367,488.40134301669605
1368,474.8524022090969
1369,444.95984059069633
1370,406.22360242415016
1371,366.3536311290045
1372,334.69986928345315
1373,321.5422586260938
1374,336.20074005774404
1375,374.1952536432782
1376,421.27573861345627
1377,463.1621333668372
1378,489.1043754716775
1379,491.4224016678618
1380,463.1461478688816
1381,412.17554916383233
1382,361.8705398194088
1383,335.8310532819851
1384,341.68702217966165
1385,367.24837832438425
1386,399.17505271407754
1387,426.9369755347798
1388,444.1740761628498
1389,444.90628316717084
1390,430.11352431138585
1391,412.6957265561723
1392,406.6928160615262
1393,418.0947181890915
1394,436.8813575045024
1395,451.09265777976725
1396,452.6585419956664
1397,442.60893234417745
1398,423.2337502309492
1399,397.67291627777195
1400,371.36635032510094
1401,350.16397143457834
1402,338.24569789163615
1403,334.74144720804907
1404,337.82113612459034
1405,345.4046806136648
1406,354.591995881985
1407,362.34299637328695
1408,365.92759577105244
1409,364.1657070012716
1410,356.1872422352262
1411,342.44211289231316
1412,329.0202296428706
1413,323.60150241106203
1414,332.63584037776127
1415,356.38315198348755
1416,393.22334493132803
1417,438.7363261899591
1418,473.412001996614
1419,472.60027786013416
1420,419.1910585640271
1421,340.6942481695405
1422,280.9897500188017
1423,276.59746673793416
1424,316.487300240231
1425,370.8991517293762
1426,413.232921702629
1427,438.9485099541016
1428,452.7358155780257
1429,460.0747369720648
1430,471.7651718406396
1431,500.95701719828685
1432,557.8501693730541
1433,629.7945240099016
1434,693.589976074154
1435,728.816419854953
1436,737.6237489687792
1437,732.941856362937
1438,726.6706343191399
1439,721.6999744570603
1440,716.4697677379427
1441,709.3399044682355
1442,698.0502743032448
1443,680.0507662508171
1444,654.0412686750569
1445,629.4416693000494
1446,621.0318552136523
1447,641.121712871256
1448,680.7411280996184
1449,720.1999861007153
1450,741.2081714556007
1451,737.9455681283089
1452,710.8120594697903
1453,661.2975282218486
1454,599.5318565211273
1455,539.9149259031183
1456,495.2566173061914
1457,466.00681107564924
1458,446.68538696782343
1459,432.892224154175
1460,429.0372012254502
1461,443.54019619582687
1462,481.01108650711285
1463,518.259749032979
1464,519.866060083179
1465,458.06989540784707
1466,357.8411302017794
1467,266.14963910875304
1468,222.9552962259022
1469,223.14797510806602
1470,243.9475487722175
1471,263.3738897018666
1472,264.4168698515423
1473,231.88636065125866
1474,158.55223301102887
1475,80.24435732539678
1476,47.232603477999874
1477,93.44684084615074
1478,172.39693830545912
1479,212.99276423446827
1480,164.0641865193047
1481,62.6510725583903
1482,-29.776710732852735
1483,-65.28929691725534
1484,-49.436820031143725
1485,-0.9894145795315126
1486,59.722784468694954
1487,107.12964168561848
1488,114.45102118916293
1489,69.1767866479986
1490,2.5468012864530465
1491,-45.7990721105416
1492,-50.770971192454454
1493,-26.499034038191894
1494,6.376600848967428
1495,30.405794546382822
1496,35.54840771715317
1497,12.904300615213288
1498,-31.83666690955215
1499,-63.6246354061459
1500,-44.30974581728515
1501,31.647860525796204
1502,113.40804190857853
1503,145.33065623851144
1504,112.77556105027725
1505,61.68261351110232
1506,41.85167042608555
1507,66.14258824353601
1508,101.18522306036539
1509,111.87943062748855
1510,93.29506635522557
1511,72.35198531878268
1512,75.970042263707
1513,101.51909161139702
1514,120.2589874646128
1515,104.879583613043
1516,60.87073353886808
1517,17.782290422352162
1518,2.9341071474755154
1519,13.866036307570539
1520,30.187930211002822
1521,33.879640886860216
1522,28.54102009066264
1523,28.371919310124213
1524,44.30218977089862
1525,66.2116824423847
1526,75.7702480435346
1527,58.707737048702256
1528,20.733999693478836
1529,-26.321114019388915
1530,-70.177754314107
1531,-96.80607163589957
1532,-91.77621664504659
1533,-50.64834021090974
1534,2.047406594072527
1535,36.620872500419864
1536,37.121906047648736
1537,18.40035559036005
1538,-0.6239306956777
1539,-9.70110480740368
1540,-13.461318908313842
1541,-17.984725322308805
1542,-29.441476527483246
1543,-54.03172514994003
1544,-97.06562395753099
1545,-141.75332585361502
1546,-148.8949838707722
1547,-82.4107511644961
1548,31.29921899312467
1549,117.52477321976039
1550,108.71575802921325
1551,23.712019837796106
1552,-68.49659502923168
1553,-107.17024033123562
1554,-94.55906990574658
1555,-59.94323766198431
1556,-29.522897574339368
1557,-13.678203675846817
1558,-17.899310051658176
1559,-44.24637083245034
1560,-82.75954018784068
1561,-120.84897231977084
1562,-148.01482145587943
1563,-159.00724184282808
1564,-149.42638773964427
1565,-122.952413411007
1566,-97.48547312052506
1567,-92.0357211240007
1568,-112.65331166265969
1569,-148.93839895637575
1570,-189.5911371968523
1571,-225.72168054080066
1572,-250.7301831030927
1573,-258.5467989498884
1574,-248.93168209175383
1575,-225.37498647673783
1576,-191.8268659834539
1577,-155.12747441411375
1578,-123.42696548757704
1579,-103.51549283233362
1580,-95.72320997950192
1581,-98.45027035580097
1582,-109.14682727649051
1583,-122.2330339382952
1584,-131.55904341231508
1585,-134.75500863691013
1586,-137.4510824105746
1587,-146.0074173847661
1588,-155.29416605675397
1589,-143.78148076240905
1590,-90.38951366899892
1591,-10.988416767961098
1592,42.87165813235333
1593,23.38055941395396
1594,-56.371864343511334
1595,-143.91576435543539
1596,-192.12129162493693
1597,-196.0985969354915
1598,-168.84783084360788
1599,-124.65914367138976
1600,-82.88268549918212
1601,-64.24860615811667
1602,-78.01705522269731
1603,-102.71818200330927
1604,-112.00213553878166
1605,-96.28906458886013
1606,-74.5791176267121
1607,-67.7824428313852
1608,-74.00918808027382
1609,-66.38950094153006
1610,-20.29352866649242
1611,41.538581817916565
1612,63.03668391680367
1613,-0.15936862502348959
1614,-101.51972171545276
1615,-154.31452090735547
1616,-97.6339113909089
1617,18.19196201410341
1618,113.24295486603114
1619,136.92892310907882
1620,112.77972308107746
1621,75.65521152126348
1622,46.80524557804165
1623,26.449682816832137
1624,13.348381227862774
1625,11.861199234032028
1626,31.757995698746527
1627,80.46862993381
1628,139.7529617073087
1629,176.3908512515045
1630,164.23215927077217
1631,117.38674694953079
1632,63.78447596019032
1633,26.285208471130318
1634,11.79880715467334
1635,24.075135195091207
1636,55.49405629661669
1637,78.17543469147313
1638,63.56913514791995
1639,22.59502297830477
1640,8.10296404716064
1641,67.85282477926194
1642,168.47447216775618
1643,225.55777378226776
1644,174.75259777704014
1645,72.4488128990688
1646,18.36628849628505
1647,71.30489452571055
1648,162.484501561652
1649,198.99498080392186
1650,147.5962040860304
1651,78.19804388343618
1652,68.00037332177635
1653,125.57306618513758
1654,191.53599692432
1655,210.2690406651309
1656,191.8220732166683
1657,183.09497107963944
1658,215.97761145469667
1659,247.1998722507542
1660,210.6716320933465
1661,82.22277033299906
1662,-55.81683294641334
1663,-105.91729691926412
1664,-41.87874000978445
1665,63.96872011634696
1666,135.684966560435
1667,152.2798831991986
1668,134.84335469322286
1669,104.435266495404
1670,74.61550485944099
1671,55.863956848301314
1672,53.3805103427203
1673,54.875054049707614
1674,44.48747751105657
1675,18.757671111876334
1676,-4.494473910868692
1677,-6.479065459821868
1678,8.833789431340847
1679,16.46398460646742
1680,-5.218585204487681
1681,-43.76402437687284
1682,-70.0724363827303
1683,-65.44392378220437
1684,-51.768588214899864
1685,-60.57653039127763
1686,-98.94785008398503
1687,-127.30264611924031
1688,-103.19101636813866
1689,-40.62305773801745
1690,-9.438866163753119
1691,-70.47853659909379
1692,-185.62216300795808
1693,-266.2498383557231
1694,-252.4716546005311
1695,-198.787702684549
1696,-187.36807252525978
1697,-251.20285300669275
1698,-330.752131970723
1699,-358.56599620827546
1700,-316.3245314505966
1701,-232.25782236046143
1702,-136.0959525234066
1703,-54.2590044389508
1704,-11.687059511796178
1705,-23.360198043030323
1706,-69.60849922132184
1707,-123.21204111411316
1708,-160.41090065879507
1709,-163.17515365387044
1710,-116.42487475014241
1711,-44.3701374418597
1712,-2.99101405788133
1713,-36.567575752811535
1714,-110.09989249816135
1715,-158.00803307346723
1716,-145.15206505741662
1717,-120.08205481901314
1718,-144.13806750864387
1719,-221.70016704922637
1720,-284.2384161273112
1721,-266.0628761841781
1722,-185.5336074069437
1723,-112.62066871966272
1724,-101.02411777438829
1725,-129.16401094229332
1726,-154.8304033047316
1727,-152.85334864430843
1728,-130.73289943597956
1729,-100.04910683808885
1730,-79.00202068345425
1731,-91.72168947041973
1732,-153.81816035391967
1733,-222.6314791365221
1734,-231.6616902594942
1735,-150.07883679383121
1736,-45.552960431332394
1737,-0.8141014756038203
1738,-35.25229883313659
1739,-90.5975900043195
1740,-109.83001107447126
1741,-94.39959670490316
1742,-78.28638012390547
1743,-84.50039311781984
1744,-93.57166602204052
1745,-76.4602277120448
1746,-28.376105594416003
1747,17.17067440212304
1748,26.03008783570658
1749,0.6521117602878803
1750,-30.733275265372868
1751,-46.086093168718435
1752,-55.40636035443276
1753,-78.05409369544395
1754,-118.06930852394544
1755,-150.20201862242175
1756,-147.45223621465084
1757,-110.06997195674012
1758,-60.99523492812477
1759,-22.7480326226123
1760,-11.288370939369997
1761,-40.256254173984416
1762,-105.05168500944274
1763,-161.3646645071858
1764,-161.68519209811166
1765,-101.77326557362721
1766,-17.268881076635807
1767,56.437966907393275
1768,95.61728555942318
1769,80.97908373579594
1770,13.513371977218412
1771,-58.4798374822949
1772,-82.06053070645612
1773,-51.258692047738805
1774,-5.394304138435473
1775,19.112652118308688
1776,16.392197557417603
1777,-7.445645239138685
1778,-41.210851933430604
1779,-62.00339642261679
1780,-46.51325083001757
1781,0.6796145038260875
1782,48.65523103005398
1783,69.56363200043597
1784,60.954852476261294
1785,29.928929337271256
1786,-8.504098709447135
1787,-21.96419112055264
1788,21.218694492437862
1789,97.6446023720473
1790,135.81357862372715
1791,83.73567122472741
1792,4.020930032969773
1793,-2.7605932040696644
1794,92.0711551594868
1795,178.4162306767721
1796,139.93469081703188
1797,3.8165949744652607
1798,-93.9679955229476
1799,-51.739017404606784
1800,65.65359455150428
