800,49.84779266680107
801,58.44093130224246
802,82.12530397048977
803,116.11113058071169
804,151.83463036258945
805,180.68102186171836
806,195.66852293504326
807,195.43435074637546
808,179.82672176194956
809,148.84785174604895
810,107.8429557566933
811,68.85224814137018
812,44.33394253284041
813,44.59725184498711
814,63.198388268727285
815,85.80756326798564
816,98.07898757572366
817,91.25087119001182
818,70.71742337016894
819,44.0738526329651
820,18.772366748864442
821,-0.5258272616702016
822,-11.7355231318179
823,-12.867515351981638
824,-3.111599173324066
825,12.203429388761833
826,25.743773551214872
827,30.246635759957826
828,23.73121768656256
829,13.298720224992394
830,6.9463434883955415
831,11.935286805946816
832,27.484748719731215
833,47.82092698170527
834,67.10501855068378
835,79.82121958939388
836,81.50872546157825
837,67.90973072913675
838,35.1254291493442
839,-11.42398632791901
840,-56.1353235628394
841,-82.89539122833412
842,-79.10499881265059
843,-53.30195662189999
844,-21.9140757825744
845,-1.285168243984117
846,1.4709532193328414
847,-3.609524994740241
848,-4.621417318206113
849,9.321460984790065
850,37.47629381574643
851,71.69326423964776
852,103.70055448284165
853,126.81134593097522
854,139.33581912696718
855,140.5641537690326
856,129.91152870875612
857,109.78712194919808
858,85.65811064306126
859,63.128671090897114
860,46.72697873935158
861,35.29020817946366
862,25.777533145003872
863,15.18512651085257
864,2.8491602914455143
865,-8.181194360779955
866,-14.532767156849332
867,-13.314388672705718
868,-5.845890350598893
869,4.372895499551305
870,13.834135698840328
871,21.544996198119406
872,32.56064207674626
873,52.8212375414123
874,87.69494592499723
875,134.09592968544894
876,182.48235040473628
877,223.15736878781263
878,247.96914466164344
879,254.3528369742544
880,240.98760379383566
881,206.87160230787322
882,159.27598882233087
883,114.38191876086421
884,88.8045466640724
885,94.89602618879599
886,122.71551010744679
887,155.05415030738095
888,174.90809779030587
889,175.749502671727
890,166.43851418043323
891,157.05328065801768
892,156.51494955843555
893,165.13466744760171
894,179.36158000302203
895,195.6338320134646
896,210.7785673786584
897,222.377929109045
898,228.10505932554588
899,225.9800992593755
900,217.57818925189713
901,206.5704687544985
902,196.6480763285108
903,189.97214964515842
904,184.8608254855526
905,179.04123974070626
906,170.43252741159176
907,159.6958226092229
908,149.51725855478708
909,142.6259675797928
910,141.1640811262605
911,145.4057297469426
912,155.2670431055767
913,170.6061499771704
914,190.26317824832495
915,212.17725491757938
916,234.25350609579073
917,253.3820570065527
918,262.5700319866355
919,253.88355448646416
920,219.94374707062343
921,166.92173141839248
922,115.05762832431355
923,85.24555769878953
924,92.74963856871182
925,127.48898907811417
926,172.2627264888597
927,210.14196718136282
928,232.93982665531803
929,242.71641953049675
930,242.10685954752626
931,233.1252595687356
932,214.62173157900816
933,184.43538668666952
934,140.64233512440205
935,90.21968625018417
936,51.55754854826864
937,43.78702963016622
938,79.74723623568207
939,137.43327423395658
940,182.86724862454776
941,182.7322635385317
942,133.1674222396323
943,70.24582712537722
944,32.90157972827819
945,51.329780717039284
946,105.03652989778311
947,155.29992621531528
948,163.97606775439908
949,120.95805174106863
950,55.114974543950666
951,-1.7970683243729582
952,-23.32198220598366
953,-14.06367329623663
954,10.094951357684295
955,33.39698385819793
956,46.532515458816306
957,49.0946365656273
958,41.325436738824465
959,24.50300469424201
960,5.8014283049224105
961,-5.521205397296399
962,-0.38381022017347277
963,22.696699190568324
964,55.11940735288681
965,87.58739795010752
966,111.65475383261037
967,123.49255701954462
968,120.79988870057241
969,101.42882923762409
970,68.33145816667366
971,30.780854199541864
972,-1.5479047742828698
973,-21.153741685816385
974,-31.079580284702388
975,-37.55734513734933
976,-46.67796162502782
977,-60.328355941950576
978,-75.67645509333852
979,-89.64618689346571
980,-99.4914799636872
981,-103.87326373044561
982,-101.82846842326217
983,-92.45702507270016
984,-76.34686550833521
985,-55.540922356676674
986,-32.148129039091145
987,-8.948419769703833
988,8.86027044671755
989,15.534005816897661
990,5.733849761201782
991,-18.893135084198548
992,-50.83888686513819
993,-82.4093445072649
994,-106.6484477138165
995,-118.77213696339913
996,-114.39335350773308
997,-89.89103936938864
998,-51.47913733951464
999,-12.19959097553874
1000,14.785655401133226
1001,21.21265670745106
1002,10.410467101048198
1003,-12.621860017397921
1004,-42.8832720018072
1005,-75.30071695830702
1006,-104.36014374284605
1007,-124.36450195877296
1008,-129.75274195443126
1009,-121.71481482070703
1010,-111.14867238859097
1011,-109.70426722670891
1012,-125.7625526388465
1013,-149.90948266146916
1014,-166.70001206120742
1015,-161.14109633235512
1016,-132.5006916943421
1017,-96.8127550891868
1018,-71.078244178957
1019,-67.33611734320584
1020,-76.62133367639399
1021,-84.42785298530544
1022,-76.63363578645749
1023,-47.06664330348667
1024,3.077162535468233
1025,72.32181910039435
1026,155.06836306204514
1027,232.75283039459282
1028,284.25025637828367
1029,290.2436756021161
1030,255.1951219665225
1031,200.24562868604698
1032,146.8662282920668
1033,108.86895263548831
1034,82.66683288946479
1035,62.2628995521427
1036,42.76818244938113
1037,28.731710737508365
1038,29.487512906080156
1039,54.2506167806323
1040,101.0550495254738
1041,150.09583764644776
1042,179.94700699373152
1043,173.5765827646419
1044,138.38758950642114
1045,90.22405111907028
1046,44.73299085815597
1047,11.7484313376508
1048,-5.268605467242196
1049,-3.1820982172375807
1050,18.540973793878038
1051,51.245630642103606
1052,84.24489177609121
1053,107.27377602000706
1054,115.95330157641911
1055,110.17148602917041
1056,89.93734634627526
1057,60.1988988828125
1058,36.704159383823026
1059,36.63914298722102
1060,73.45386422670072
1061,132.4643370346639
1062,186.1935747451289
1063,207.56259009667247
1064,190.05839523535178
1065,154.82100171764887
1066,124.95142051341372
1067,117.7906620088088
1068,126.33873600925835
1069,137.17265174241038
1070,137.49441786109674
1071,124.82304244628995
1072,105.01653301007809
1073,84.1758964986393
1074,67.96313929520693
1075,61.02026722306073
1076,67.8442855484991
1077,91.58719898383606
1078,125.12401169037821
1079,156.59072728142473
1080,174.30434882525788
1081,174.90387884814754
1082,165.81431933734257
1083,155.18767174407367
1084,149.0009369865702
1085,144.8681154530541
1086,138.4002070047527
1087,125.45021097891367
1088,105.11812619181819
1089,78.79395094178562
1090,47.92368301220722
1091,14.28731967454496
1092,-19.698142308633578
1093,-51.53370668064326
1094,-78.24337768765963
1095,-94.03816007569276
1096,-92.12305908756662
1097,-66.34608045989353
1098,-25.185230420053813
1099,8.469484316836315
1100,11.123056550946785
1101,-27.530521399244208
1102,-82.63125769391718
1103,-123.50716096889391
1104,-123.88324033260051
1105,-92.99750536305419
1106,-57.264966104829
1107,-42.74963306603422
1108,-58.24551721529133
1109,-90.81762997871192
1110,-126.13298323686467
1111,-151.7995893217685
1112,-162.02146101386006
1113,-152.39461153898083
1114,-120.38605456535424
1115,-82.63380420057547
1116,-67.06687498858355
1117,-101.20628190665866
1118,-182.68904036240383
1119,-264.9831661907392
1120,-297.9706756508913
1121,-249.08158542337787
1122,-155.02191260702057
1123,-69.58567471592414
1124,-42.19088967649168
1125,-70.04457582441773
1126,-116.25175190169557
1127,-143.65443705362668
1128,-137.672650825828
1129,-119.73641316124758
1130,-114.51374439717893
1131,-139.3256652622831
1132,-180.94119687360308
1133,-218.17936073360306
1134,-231.5661787271847
1135,-222.46167311872432
1136,-206.09286654911193
1137,-197.76578203278223
1138,-201.8244429547667
1139,-205.29187306773565
1140,-193.65509648905754
1141,-158.12513769783527
1142,-112.70302153198827
1143,-77.0697731852988
1144,-69.08741820449268
1145,-86.40998248629876
1146,-114.11849227453968
1147,-137.19997415719536
1148,-145.92245506350991
1149,-138.13096226106518
1150,-112.25752335288689
1151,-69.88916627454
1152,-23.535919291236496
1153,11.91918900505516
1154,22.77112969848713
1155,6.096873552224679
1156,-35.28660898869475
1157,-98.19734779448845
1158,-169.36337304776134
1159,-223.41571524066057
1160,-234.27240517201517
1161,-191.89147394449537
1162,-130.28095296177707
1163,-90.97687392570333
1164,-107.65626883345703
1165,-160.59716997474698
1166,-207.87960992898934
1167,-209.53062156250144
1168,-166.55523802569678
1169,-117.80449275029423
1170,-103.40541944652978
1171,-138.95705210037067
1172,-190.76042497074468
1173,-219.19357258676882
1174,-194.97452974498992
1175,-137.26333150663413
1176,-79.36301319485301
1177,-52.18261039198387
1178,-57.9681589368256
1179,-80.26469492190154
1180,-102.42525469075281
1181,-114.37187483521393
1182,-115.01559219272531
1183,-103.91844384362685
1184,-81.52446710847016
1185,-50.883699545345735
1186,-15.53817894720487
1187,20.69605666080588
1188,52.10596902399902
1189,72.18351966079172
1190,74.99266986535258
1191,65.0233807102295
1192,55.83161304897749
1193,61.1663275187675
1194,84.53048454300642
1195,111.34904433391966
1196,125.19996689515938
1197,114.88821202437157
1198,88.92973931577944
1199,60.47250816274118
1200,41.16247776031378
1201,29.862607107794247
1202,19.011855011257467
1203,1.394180086092092
1204,-21.177459240488133
1205,-37.891104726922094
1206,-37.61479831480574
1207,-18.725582126403424
1208,1.7595015378474272
1209,4.646410201803519
1210,-22.714898783920944
1211,-66.46546823948756
1212,-106.03234115340274
1213,-122.7685606800651
1214,-115.08417013735016
1215,-90.19721300418678
1216,-55.52573291815406
1217,-21.2567736730698
1218,-0.3083792166189596
1219,-5.602593647967296
1220,-37.224461215389965
1221,-71.25202631391403
1222,-81.11433348297578
1223,-49.728427404072136
1224,4.97464710155964
1225,56.966845075266065
1226,82.86312142328643
1227,79.31343091904273
1228,52.10972820543793
1229,7.658967797126934
1230,-37.94389591721392
1231,-60.36990867263012
1232,-35.42911632564483
1233,36.71743514798254
1234,118.49269965547228
1235,169.12563098924602
1236,162.52618282913318
1237,114.63830874455198
1238,48.87696219670397
1239,-12.383903459258363
1240,-52.60033497207132
1241,-57.21237919221221
1242,-14.004083069755325
1243,63.02250634775555
1244,143.40234191741638
1245,197.07237640308358
1246,212.55956247745326
1247,198.81485272415648
1248,165.85719963982865
1249,125.86055563616719
1250,95.1238730419891
1251,90.42010410526836
1252,121.23520099515918
1253,171.81211580401396
1254,220.92780054939703
1255,250.01320717606723
1256,257.5342875579672
1257,248.66799350019028
1258,228.73027674094828
1259,204.4630889535074
1260,183.59038174813395
1261,173.6431066740197
1262,175.69021522118783
1263,183.46165882240166
1264,190.30638885505323
1265,192.46835664304035
1266,191.70151345863542
1267,190.372810524339
1268,190.38419901472207
1269,192.12663005826198
1270,195.67205473915965
1271,200.76542409914418
1272,205.20368913927632
1273,206.1018008217252
1274,201.04171007154582
1275,192.43936777843828
1276,185.55372479849666
1277,185.43873195594097
1278,191.97334004485128
1279,200.1474998308695
1280,204.82616205290924
1281,204.6452774248346
1282,203.87679663715062
1283,207.2526703586509
1284,217.39484923808595
1285,231.84428390578978
1286,247.39892497531673
1287,260.12672304505577
1288,263.2436286998354
1289,249.25559251250525
1290,213.415565045535
1291,168.84449685256277
1292,135.82433847996072
1293,132.88304046837584
1294,158.55955335425733
1295,198.8938276713825
1296,239.9488139523537
1297,272.6014627301038
1298,292.31572453936224
1299,294.85654991814135
1300,282.1528894091807
1301,264.9376935614
1302,254.59691293132528
1303,256.85649808451853
1304,265.2013995969719
1305,271.53056805651795
1306,270.2229540642029
1307,263.9295082356657
1308,257.0061812024851
1309,253.34192361354053
1310,254.3986861363328
1311,260.8744194583196
1312,272.516074288209
1313,281.5476013572743
1314,276.5779514206224
1315,247.53107525847736
1316,201.74692367743592
1317,158.71244751171525
1318,137.55759762439175
1319,143.14332490862307
1320,166.11958028885238
1321,196.54431472202032
1322,225.37047919873567
1323,244.8090247444652
1324,247.20090242067909
1325,229.35506332601926
1326,196.97445859741583
1327,156.8340394112256
1328,116.7937569843416
1329,87.8245625752952
1330,81.44940748533645
1331,103.77424305952263
1332,138.78702068776693
1333,164.83169180590085
1334,164.76820789671183
1335,147.9685204909656
1336,133.40358116842526
1337,137.97734155885337
1338,160.9027533429944
1339,192.51076825357086
1340,223.31233807623084
1341,246.99841465051395
1342,259.4209498707869
1343,256.66089568717507
1344,238.57920410648603
1345,208.45182719310378
1346,169.84071706989198
1347,131.66382591907404
1348,109.20910598310002
1349,117.8615095655041
1350,155.13498903175605
1351,190.59949681008675
1352,191.5199853923159
1353,146.1944073346649
1354,85.98971525854449
1355,47.5298618513516
1356,49.48079986723951
1357,62.296482127875606
1358,48.411861523207335
1359,-12.754108987816835
1360,-81.97547637651132
1361,-106.83928754373301
1362,-49.841589319184095
1363,57.83557153928177
1364,165.24814834634162
1365,228.39609448987176
1366,245.00236343160213
1367,228.22090870777356
1368,190.7706839297589
1369,141.7056427846901
1370,88.36773903607991
1371,38.025926524406714
1372,-2.7518408322839605
1373,-27.805609037810427
1374,-31.7124240172825
1375,-18.902331616550327
1376,-0.8413776016577685
1377,11.385392341690931
1378,16.349932608647578
1379,20.969197675731266
1380,32.2031421013362
1381,51.05672052621139
1382,72.34988767393588
1383,90.60859835139308
1384,100.07380744922193
1385,94.64846994225809
1386,68.39354088997516
1387,25.13797543689725
1388,-17.04427118697822
1389,-39.087243665789174
1390,-33.345986597410956
1391,-11.770544493082525
1392,11.786038222967363
1393,28.21771721387813
1394,37.929448230499474
1395,42.449187111741594
1396,42.296889784886844
1397,35.609512265918056
1398,20.198010659822103
1399,-3.053658839118725
1400,-25.01653994703156
1401,-35.182676290183736
1402,-26.771111404723342
1403,-4.522888736408277
1404,24.601948359631933
1405,53.76735661912517
1406,76.5982928688909
1407,86.8117140270515
1408,80.87757710324149
1409,66.20183919880037
1410,52.91445750695766
1411,48.61738931301443
1412,49.64759199450691
1413,49.221023021365
1414,43.20663995605901
1415,40.62540045373589
1416,54.55626226235927
1417,92.97118322281221
1418,136.0651212690209
1419,154.63503442804995
1420,127.68188082019878
1421,82.887618659076
1422,65.80020625168527
1423,112.26860199848034
1424,195.70576439342312
1425,264.9106520240348
1426,277.05822357142824
1427,247.3504378103471
1428,215.31925360917285
1429,216.27062992994888
1430,253.93252582837886
1431,318.0849004538204
1432,397.58071304928035
1433,474.75592295138085
1434,528.9284895903402
1435,543.0373724899291
1436,529.0585312674266
1437,512.8479256335659
1438,517.2265153924691
1439,539.2362604415839
1440,563.2891207715938
1441,575.8550564663483
1442,581.4810277027536
1443,593.7239947506832
1444,622.8449179728595
1445,650.6497578247445
1446,644.6454748544165
1447,578.8410297024302
1448,483.29838310168907
1449,416.24149587729335
1450,427.1673289463879
1451,490.51484331800566
1452,543.3520000928947
1453,531.6247604633545
1454,476.46508571304
1455,435.77893721679357
1456,458.29427644043517
1457,517.7320649405683
1458,552.093264364371
1459,509.1428364493877
1460,412.8897430233046
1461,322.3839460037225
1462,288.0254073979231
1463,295.98808930264204
1464,304.21295390380965
1465,277.6379634763125
1466,229.92308038372448
1467,195.03626707806143
1468,199.33448609949755
1469,220.23470007610376
1470,215.97587172355998
1471,155.29596384487922
1472,69.06193933011036
1473,10.779761156055429
1474,21.307392385949242
1475,72.95579616917985
1476,115.02793574095722
1477,106.7147744220083
1478,55.97827561826034
1479,-14.289597179491466
1480,-82.39488039590833
1481,-132.00361037144194
1482,-148.25282336266991
1483,-123.89755554264048
1484,-81.82084300122278
1485,-52.35572174544359
1486,-55.99322769986156
1487,-78.73839670691086
1488,-99.05226452726492
1489,-101.71586684020895
1490,-90.98523924400706
1491,-74.84641725626989
1492,-61.22343631434069
1493,-57.86233177566646
1494,-72.45213891819003
1495,-104.7108929407259
1496,-135.79562896336301
1497,-144.2963820278419
1498,-120.76818709796134
1499,-79.821079059976
1500,-38.91609272298956
1501,-11.849262819363503
1502,-6.084624005120531
1503,-28.264210860358617
1504,-74.65505788964765
1505,-126.23319952245856
1506,-163.02667011356243
1507,-175.82550394345617
1508,-168.8857352187797
1509,-147.41239807272996
1510,-118.89752656548717
1511,-93.2631546846369
1512,-80.24631634559228
1513,-83.91404539201721
1514,-103.32037559626224
1515,-136.6623406597837
1516,-172.6659742135671
1517,-193.1113098185706
1518,-182.07938096614453
1519,-149.98222107846323
1520,-123.09886350895977
1521,-124.31834154274839
1522,-146.9366883970706
1523,-169.8009372217075
1524,-174.9691210994306
1525,-165.5352730464174
1526,-152.79042601268975
1527,-146.0516128825484
1528,-144.85886647499228
1529,-145.75321954415904
1530,-146.2317047797451
1531,-147.40635480744186
1532,-151.23420218935462
1533,-158.66627942443392
1534,-167.6946189488981
1535,-175.77225313665895
1536,-179.1122142997383
1537,-171.17953468869655
1538,-145.17024649304403
1539,-103.7013818416599
1540,-65.55297280320701
1541,-50.74505138654604
1542,-64.05064954114732
1543,-90.08679915749053
1544,-112.53853206748227
1545,-126.20688004484964
1546,-137.17687480554832
1547,-151.53354800815032
1548,-167.78793125424818
1549,-178.58705608883884
1550,-176.75495400072123
1551,-158.5606564228674
1552,-122.27119473281618
1553,-68.25260025304397
1554,-11.461904251342276
1555,26.868862058818195
1556,31.47566751791328
1557,16.844481020015337
1558,6.684271512418491
1559,15.80300799530778
1560,27.782659521390997
1561,19.405195195566193
1562,-17.521415825415716
1563,-53.99020433329042
1564,-55.58820106861276
1565,-11.58043672106487
1566,46.99305807021574
1567,85.35425271632266
1568,89.30611667827907
1569,70.68961946673244
1570,42.78673064166833
1571,14.394419812112574
1572,-9.768343364145949
1573,-25.52158918083387
1574,-33.305347883459035
1575,-36.51964966957348
1576,-37.929524689032405
1577,-35.267003044236844
1578,-24.01511479038345
1579,-1.7408899356896654
1580,23.892641558372816
1581,42.19744977686332
1582,46.6605048511592
1583,44.040776958756396
1584,43.70623632306342
1585,51.86385321322905
1586,68.05659794394796
1587,90.92044087530485
1588,115.77635241260668
1589,133.24230300622457
1590,134.06626315145968
1591,119.76220338840449
1592,102.21309430181464
1593,92.59190652099369
1594,88.77061071969456
1595,79.99617761601348
1596,58.033577972307285
1597,33.13878259511421
1598,23.42076233509306
1599,41.20348808696235
1600,73.80393078945326
1601,101.83106142528231
1602,113.75785102111968
1603,119.08727064758114
1604,130.67929141922377
1605,150.9558844945559
1606,164.61702107605925
1607,155.58967241022037
1608,134.37380978757756
1609,140.5864045427752
1610,210.64342805463184
1611,318.69785174622575
1612,394.9886470849806
1613,380.9117855827817
1614,306.2342387960889
1615,239.83397832606443
1616,233.3269758187298
1617,263.78820296511367
1618,288.47163150143297
1619,280.01523320926754
1620,250.0099799157697
1621,216.0518434938731
1622,192.10579586252243
1623,186.53180898691244
1624,206.5468548787503
1625,245.13190559651775
1626,281.7139332457673
1627,297.32990997942034
1628,295.1338079980769
1629,291.1515995503569
1630,299.10825693324387
1631,319.0347524924464
1632,346.2700586227784
1633,373.9731477685582
1634,388.5989924240157
1635,375.46056513371786
1636,336.68383849302063
1637,304.5477851485275
1638,313.15237779856216
1639,361.3155891936758
1640,410.3153921371495
1641,423.5267594855304
1642,409.0806641491763
1643,403.25407909282967
1644,434.0459773361881
1645,478.86533195452284
1646,496.9971160792893
1647,466.07230289877043
1648,420.9258656587317
1649,407.20377766310594
1650,443.16501227468325
1651,499.71554291583107
1652,543.9353430692281
1653,563.7743862786219
1654,567.8556461495991
1655,564.6530963503901
1656,552.6207106126767
1657,524.5814627324344
1658,476.49232657078755
1659,419.9182760548856
1660,371.15728517880416
1661,339.57432800446713
1662,316.8773786625907
1663,292.1334113536386
1664,259.907400348814
1665,222.37731999107382
1666,182.56814469614164
1667,147.8008489535805
1668,128.69140732785036
1669,132.8067944594195
1670,146.64598506587845
1671,148.00195394308594
1672,123.63767596633807
1673,90.3351260915606
1674,71.01727935652252
1675,76.76611088207574
1676,98.2925958734204
1677,124.44970962139178
1678,147.6574275037765
1679,163.62372498664627
1680,168.44557762572367
1681,160.48696106776697
1682,139.20785105199138
1683,107.50722341149867
1684,81.52005407475099
1685,80.46031906705957
1686,107.51399451209909
1687,135.26705663345638
1688,133.65348175620238
1689,91.6592463084844
1690,17.14332682315853
1691,-78.7783000605632
1692,-164.09065759542773
1693,-196.09176892444066
1694,-150.634657079122
1695,-76.7833449777454
1696,-41.25785542354879
1697,-70.96721110290582
1698,-118.01643458348008
1699,-128.16754831234903
1700,-88.73057461408916
1701,-26.38853568884315
1702,31.89154638965374
1703,69.49264967606268
1704,74.65175235547576
1705,45.24983274547321
1706,12.717869298210644
1707,15.449840602535915
1708,63.0637253861496
1709,117.95050251777411
1710,139.88315100937507
1711,118.19765001840096
1712,66.13397885006634
1713,-0.6238830403426618
1714,-55.61895604512665
1715,-68.22726040180623
1716,-27.688816190696343
1717,22.274356667508982
1718,29.768238414231746
1719,-13.66619054450075
1720,-60.84894963550232
1721,-65.89105811586705
1722,-37.370535070345795
1723,-17.292399408718666
1724,-35.83466986310759
1725,-68.7753649852666
1726,-77.07850314383813
1727,-43.2441025215694
1728,8.783818887512098
1729,50.94024328094201
1730,67.08915305071332
1731,51.78653078621119
1732,3.8923592771543554
1733,-51.51837848338528
1734,-78.64169929595482
1735,-56.518619751651386
1736,-5.22615622900139
1737,48.506675109179014
1738,91.00985831896924
1739,124.64137767857846
1740,151.2212176915973
1741,158.12736309030515
1742,124.68379883900707
1743,43.85151013741506
1744,-40.1175175759372
1745,-71.49729862022923
1746,-31.71284706886854
1747,39.205823254062125
1748,97.97369877736674
1749,127.29976618636829
1750,128.17101242656008
1751,103.36042470730808
1752,62.26399050558939
1753,16.25069756978064
1754,-24.842466076524033
1755,-54.10751213063941
1756,-65.26645200688563
1757,-57.183296832638916
1758,-33.016057444331636
1759,1.7602556165838905
1760,29.453632107706653
1761,28.156062089823536
1762,-7.8054640689360895
1763,-48.631955688878406
1764,-61.08442177449524
1765,-37.87087101017096
1766,4.330688244178418
1767,48.208247957482854
1768,78.36080043195125
1769,80.1243383075589
1770,51.31785456657235
1771,18.908342538114994
1772,12.305795902791033
1773,22.829208697347894
1774,5.084575319388023
1775,-74.2671094678717
1776,-162.0348505307993
1777,-171.2156523604899
1778,-64.26951906786326
1779,80.32154562127744
1780,170.56853837125254
1781,181.9234562415395
1782,153.59229669188062
1783,123.63605758741596
1784,107.4807372038822
1785,112.03433423285605
1786,132.06284778704048
1787,135.7602774056104
1788,90.05762305960798
1789,4.386885157381585
1790,-74.72593544991287
1791,-106.4038374627753
1792,-87.45581912775924
1793,-27.444878231824077
1794,49.953987903369125
1795,93.93078242720549
1796,55.657508965923626
1797,-37.95882837152658
1798,-102.6132249875709
1799,-76.43567579004684
1800,-4.948175186183107
