800,158.63757192757657
801,172.6611458484258
802,174.06585270876712
803,163.19896504259668
804,144.56875435234906
805,122.73149110225859
806,101.17544471187102
807,79.70088354963264
808,57.314074926591275
809,33.1322850901779
810,10.30977921811973
811,-2.936178587586255
812,1.9236746934293478
813,31.30860099408892
814,75.13086115415535
815,115.54371491461825
816,134.69142091216236
817,123.10923667375027
818,92.60841861127301
819,58.312222016335
820,34.84590105509233
821,27.186708763216302
822,31.41689704091914
823,43.29171664809837
824,58.69341719957083
825,74.19024716036802
826,86.57845384117172
827,92.66428339379672
828,90.59998080677178
829,80.82678990103886
830,64.01695332570671
831,41.12371255391008
832,16.228307878753185
833,-4.6500215906744415
834,-15.46403793315585
835,-12.045504419158533
836,3.738814485452167
837,28.806153115796405
838,59.975744604431384
839,91.13582087789837
840,112.99861265335312
841,116.11734943527154
842,93.46025951224146
843,52.58456995384586
844,6.4745066076066
845,-31.913705903954906
846,-53.667844186218645
847,-57.39868607525386
848,-42.52801064054074
849,-9.128598187624448
850,35.304769739352196
851,78.54731035513578
852,108.29923963097463
853,115.90577229227893
854,104.18412181639178
855,78.21050043038849
856,43.13811910899312
857,5.797187572559778
858,-25.247085714891
859,-41.359493547524835
860,-35.74482997951236
861,-11.36089032673226
862,25.622528831558157
863,69.03262965114664
864,112.73561302138478
865,150.65167856370317
866,176.71702463030488
867,185.44184830282938
868,176.3663453911504
869,151.65071043222997
870,113.45513668901003
871,67.56981614943106
872,28.374939525454465
873,11.50069625222568
874,31.217274487213217
875,81.24486110951693
876,139.67364171917325
877,184.17380063652854
878,198.62552090172903
879,189.0989842742074
880,166.67437123231684
881,142.2218609729298
882,121.96163141119723
883,107.07385918030559
884,98.46871963132071
885,97.07638683310506
886,103.66703357227743
887,119.01083135324734
888,143.81795039829376
889,176.78855964773356
890,213.66282676012634
891,249.9409181125484
892,281.19299880091967
893,303.4892326404133
894,313.0697821658814
895,306.2848086323738
896,284.8844720157231
897,261.24893101313864
898,248.97834304391108
899,259.8828642501321
900,287.32264949750606
901,313.84785237618416
902,321.8886252016928
903,302.58511901585734
904,268.88748358785415
905,237.16586741525498
906,222.65041772516634
907,224.971280475389
908,232.25860035565347
909,232.39252078891514
910,217.96318393265938
911,196.5007306803127
912,178.47530066265426
913,173.80703224933131
914,181.83606255036648
915,192.5325274177685
916,195.56656144714907
917,183.90829797942388
918,163.3178691025405
919,142.655405653255
920,130.50103721897722
921,129.44489213963425
922,135.78709750959933
923,145.5477791796675
924,155.6770617590755
925,167.15506861755603
926,182.12192188745212
927,202.55774246587316
928,225.0926500168971
929,240.16676297380036
930,237.8101985413614
931,211.51307269818426
932,172.12550019907212
933,135.99759457743858
934,119.11946814778275
935,123.31123200817274
936,132.22299604279942
937,128.3348689245595
938,98.91695811766476
939,57.77936988033616
940,27.892209267478393
941,31.74558013344904
942,72.37958513482045
943,126.39432573321938
944,168.4699021981869
945,177.78641361005975
946,159.44395786294444
947,127.8626316676382
948,97.30253055469439
949,74.4337488774363
950,55.3363798150549
951,35.330515375724644
952,10.80624639976304
953,-15.356337437180628
954,-37.987147620897304
955,-51.9160967953685
956,-54.67309875945466
957,-47.44806846357824
958,-31.67092200636762
959,-9.391576631249336
960,14.120049276973077
961,32.38403619557721
962,39.090463467400696
963,33.719409304390865
964,23.4409507911314
965,15.965163888444295
966,17.062123436995535
967,22.261903160944712
968,23.60457567161393
969,13.4002124711933
970,-7.851116043510046
971,-29.5093405773423
972,-40.264392932984265
973,-32.37620600714581
974,-15.174713786707798
975,-3.219851344876588
976,-10.691554837263539
977,-41.77976149794449
978,-89.41440963554487
979,-145.92543862921957
980,-202.90278892468086
981,-248.64640203016097
982,-270.61622051233644
983,-257.1021879922737
984,-215.4542491413158
985,-171.76234967695382
986,-152.9164363586824
987,-175.80645698381704
988,-221.242360383294
989,-261.934096417468
990,-271.9816159718557
991,-250.25487095286553
992,-216.33381428353277
993,-190.4583998991875
994,-184.47858274315877
995,-185.4043187623829
996,-175.705564903079
997,-139.4622791063248
998,-82.094420303667
999,-23.75194841269331
1000,15.115175667426229
1001,22.26699006039962
1002,4.8735319172883464
1003,-27.10516257897325
1004,-63.719058209066134
1005,-95.68812071275352
1006,-118.45231678432538
1007,-129.39161406801577
1008,-125.97598115342407
1009,-109.20538757090071
1010,-85.26980378694316
1011,-60.7192011995412
1012,-41.743552133542835
1013,-32.42282983597215
1014,-36.12700847135784
1015,-56.03606311702424
1016,-89.17996975840288
1017,-125.37870528428903
1018,-154.05224748212095
1019,-167.17057503320575
1020,-167.51366750798297
1021,-160.7615053612244
1022,-152.2140699272677
1023,-140.06134341519646
1024,-115.90330890403857
1025,-71.08995033793508
1026,-3.921252521317001
1027,65.33279888595825
1028,112.09221737344706
1029,113.92701558499539
1030,76.48720532362313
1031,25.152797556389487
1032,-14.346197580687658
1033,-25.64977077774347
1034,-13.807913546135751
1035,13.159381786468657
1036,47.4721220810261
1037,83.20031339205889
1038,115.37396097259807
1039,139.0430692791506
1040,151.5276419766451
1041,153.73768194341392
1042,146.91319127616953
1043,132.45417129498128
1044,112.60062254825971
1045,89.94254481777534
1046,67.06993712362237
1047,47.69279772926711
1048,36.69112414651863
1049,39.0449131405785
1050,56.67416073503591
1051,80.75886221691144
1052,100.12901214168232
1053,104.43460433830114
1054,94.97563191425252
1055,81.47208726058307
1056,73.80396205694524
1057,77.73124727664253
1058,89.87393319168768
1059,105.67200937783673
1060,120.93546471965601
1061,134.16428741557138
1062,145.1184649829247
1063,153.57798426303816
1064,160.12283142625893
1065,166.36299197702647
1066,173.98845075895042
1067,184.1891919598329
1068,195.89519911676507
1069,207.48645512117218
1070,217.3429422238696
1071,224.0346420401347
1072,226.33153555475656
1073,222.99360312709177
1074,213.800824496142
1075,200.9131787855713
1076,186.81064450879785
1077,173.9631995740201
1078,164.54082128927075
1079,160.57348636747338
1080,164.0011709314731
1081,172.38385051908335
1082,177.63150008812954
1083,171.2840940214719
1084,149.11160613203538
1085,123.11400966785368
1086,109.18127731706954
1087,121.6133812129774
1088,153.080292939012
1089,180.98198353377848
1090,182.4684234960423
1091,148.38958278974496
1092,95.88543084897356
1093,45.16593658297097
1094,13.631068381118894
1095,2.630794117892947
1096,7.755081157849418
1097,24.32389636059088
1098,42.75720608572192
1099,48.634976197789
1100,27.307172071232344
1101,-25.736241404669272
1102,-88.04529982088934
1103,-132.70003924371485
1104,-136.78049620984166
1105,-109.50670772146441
1106,-75.67871124139128
1107,-59.676544688138165
1108,-67.45024643105899
1109,-81.68985528547273
1110,-83.5854105078015
1111,-61.806951790715175
1112,-30.344519258294895
1113,-8.578153461186957
1114,-14.13789537179764
1115,-46.83378637945316
1116,-95.96586828561885
1117,-150.67418329910288
1118,-199.49877403125174
1119,-230.08968349120914
1120,-230.0069550811313
1121,-194.3006325914448
1122,-147.56076019611464
1123,-121.65738244790191
1124,-145.01054427365852
1125,-205.0002909696268
1126,-262.2066681967335
1127,-277.1297219759199
1128,-239.42949868347569
1129,-185.1560450463803
1130,-154.5294081376651
1131,-175.97963537176838
1132,-228.6967744999456
1133,-279.1208736056469
1134,-296.2219810999268
1135,-280.29014571688094
1136,-252.4254165090788
1137,-233.90784284300935
1138,-232.68747439454273
1139,-235.60436114443837
1140,-227.65855337379253
1141,-200.90010165959757
1142,-175.53905687022416
1143,-178.81547016098375
1144,-234.18939296967255
1145,-323.36087701214274
1146,-402.05997427788316
1147,-426.2467370256254
1148,-384.88121777893866
1149,-314.2334693219018
1150,-254.27354469470083
1151,-232.07149718932305
1152,-230.17738034523063
1153,-221.49124794504496
1154,-182.42315401027372
1155,-121.22315279702161
1156,-63.14129879175562
1157,-33.077646707055465
1158,-40.092251477390164
1159,-74.23516825492698
1160,-124.37645240532765
1161,-177.94615950359366
1162,-218.27434532991902
1163,-228.01106586553942
1164,-194.4163772886368
1165,-136.2003359702212
1166,-85.17299847007598
1167,-71.90442153267577
1168,-101.5346620831624
1169,-155.72377722330202
1170,-215.24182422750164
1171,-263.0888605388009
1172,-286.77494376492905
1173,-274.33013167433455
1174,-220.4144821922746
1175,-150.4980533968901
1176,-99.11090351532948
1177,-97.28309091987467
1178,-134.34467412408048
1179,-172.45571177895727
1180,-173.9162626691541
1181,-130.61638570916875
1182,-74.93613993958024
1183,-42.21558452328827
1184,-52.89477874180375
1185,-83.21378199151332
1186,-101.28265378001015
1187,-81.57145372242121
1188,-42.08024153775659
1189,-18.91907704528967
1190,-45.848020160939996
1191,-111.88713089371049
1192,-167.20646934210527
1193,-161.05609569059015
1194,-79.98607020609052
1195,23.643546765533756
1196,90.77269480294126
1197,81.91131341277651
1198,31.529342033087232
1199,-8.543279963232635
1200,6.653386734908054
1201,63.76928138018593
1202,120.1543431702139
1203,134.34851125083696
1204,97.99172471945349
1205,35.65392262828573
1206,-26.684956012362818
1207,-70.29497223088401
1208,-90.58618709115035
1209,-84.59866168932058
1210,-52.27245715069694
1211,-5.24763462656847
1212,41.905744708899874
1213,75.717619661762
1214,92.62792902136061
1215,94.18661156337475
1216,82.00360605284004
1217,57.468851247153
1218,21.772285899047347
1219,-23.826151240453328
1220,-71.04652141911902
1221,-98.45888588058187
1222,-83.20330586147793
1223,-13.819842588587562
1224,78.98144272401987
1225,154.75048887775847
1226,178.25723469234072
1227,153.90161900853127
1228,104.16358069087255
1229,51.08305863041278
1230,6.929991747378153
1231,-24.33568100615048
1232,-39.02402064361195
1233,-35.055088141334636
1234,-12.858944435967715
1235,26.954349578105393
1236,79.7647330512882
1237,129.62214518130168
1238,158.53652521565527
1239,153.1778124541379
1240,126.08594625123442
1241,98.62086601856026
1242,90.55251122722439
1243,103.15082141022685
1244,126.0957361647761
1245,148.9771951546154
1246,164.00513811230303
1247,166.29950484147957
1248,151.19023521911004
1249,122.82726919769812
1250,102.23054680746282
1251,112.36000815850821
1252,165.76559344296402
1253,238.86724293709267
1254,300.27489700337355
1255,323.8884960925643
1256,317.57798074573293
1257,302.58329159627283
1258,298.9243693718763
1259,310.6511548965027
1260,330.9335890923012
1261,352.7816129815128
1262,370.2051676883639
1263,378.40419444091094
1264,372.6986345728674
1265,355.7784295254078
1266,344.32352084894774
1267,356.57385020488255
1268,400.8393593673245
1269,452.93999022479693
1270,482.1056847819036
1271,464.69638516097075
1272,417.7720336036764
1273,372.80257247264126
1274,358.05794425299246
1275,368.6680915539109
1276,380.23295711014
1277,369.1624837834879
1278,333.69661456427093
1279,292.7252925727753
1280,265.74846106064615
1281,260.0060634122801
1282,264.4680431461984
1283,266.61434391634793
1284,258.8449095134456
1285,245.43968386622873
1286,232.41861104272357
1287,224.93163525147065
1288,224.56870084272487
1289,232.06975230963326
1290,248.21473428938225
1291,274.0235915643225
1292,310.60626906307516
1293,358.69271186158403
1294,414.482865184169
1295,471.3266744045559
1296,522.5140850468579
1297,560.255042786539
1298,575.7294934513666
1299,560.3673830223161
1300,518.2986576344647
1301,471.9232635778535
1302,444.941147298312
1303,449.5122553982983
1304,472.69653463764917
1305,498.3439319343579
1306,513.824394365307
1307,518.3378691669677
1308,513.5243037360815
1309,500.9936456303203
1310,482.24584256891285
1311,458.7308424332423
1312,431.8085932674403
1313,402.04904327891745
1314,369.62214083890285
1315,334.93783448293834
1316,301.4660729113584
1317,274.7768049897404
1318,260.2799797493117
1319,258.2455463873721
1320,263.8634542676482
1321,272.09365292064103
1322,279.236092043966
1323,283.3907215026193
1324,282.8374913292773
1325,277.77635172451664
1326,272.3472530570598
1327,271.1501458639432
1328,276.51498085071034
1329,284.36170889154346
1330,289.50028102937904
1331,288.1406484760191
1332,282.2727626121814
1333,275.38657498755674
1334,270.6420373208239
1335,269.3991014996427
1336,272.3477195806299
1337,279.9578437892942
1338,290.67942651997146
1339,301.9324203357028
1340,311.1667779681211
1341,315.8224523172885
1342,313.3993964515248
1343,301.6675636072014
1344,284.3569071885195
1345,270.5373807672531
1346,269.1189380824799
1347,277.2915330402793
1348,278.14511971341744
1349,254.26965234098316
1350,205.19508532803593
1351,157.0113732452046
1352,137.98847082825705
1353,159.93633297769338
1354,200.83491475822484
1355,234.54417139834368
1356,244.5140582897693
1357,239.9145309869291
1358,234.22554520640188
1359,236.16705682632164
1360,237.80902188578693
1361,227.5413965842272
1362,199.12413728074353
1363,171.2472004934516
1364,169.72054289876542
1365,213.68412133068523
1366,282.2478927800603
1367,339.68181439381624
1368,354.6058434741735
1369,329.7699374778331
1370,283.8740540151375
1371,235.33815084924208
1372,198.50218589520227
1373,185.3261172191069
1374,206.0399030371409
1375,248.00350171464743
1376,282.2068717651655
1377,280.6299718494374
1378,239.51276077442526
1379,176.05519749224186
1380,108.22724109913906
1381,55.308850834428085
1382,37.96998607936621
1383,76.06060635607719
1384,157.59067132639393
1385,231.2901407907084
1386,244.218974686808
1387,184.09713308866594
1388,98.05457620523885
1389,37.621264379213244
1390,30.307158085768606
1391,62.412217931292616
1392,116.186404652075
1393,173.3196791130067
1394,214.4320023062428
1395,220.07333534983627
1396,185.37363948636812
1397,139.41287608155835
1398,116.1110066228448
1399,132.70799271796022
1400,161.623796093465
1401,167.85837859329877
1402,131.31170217726321
1403,77.93372891954095
1404,42.56442100715867
1405,48.76374073843908
1406,80.57165052143864
1407,113.32811287237382
1408,128.49309041401648
1409,131.91654587408084
1410,135.50844208358285
1411,149.16874197519974
1412,173.79740858158402
1413,207.81440503369595
1414,248.31969455908802
1415,286.11324048019196
1416,310.035006212569
1417,310.4949552631715
1418,286.43305122855963
1419,239.6992577931269
1420,175.99353872728898
1421,123.92585788566066
1422,120.49617920523087
1423,193.62446670350255
1424,312.8606844766364
1425,424.73479669756125
1426,483.496767614075
1427,496.7465615469391
1428,494.4641428879513
1429,504.3294760979861
1430,536.6125257050717
1431,593.8832563023789
1432,676.2116325462612
1433,765.0276191542544
1434,833.1411809030415
1435,857.4922826264501
1436,848.7108892133947
1437,833.4769656058252
1438,835.7304767966543
1439,855.8113878276909
1440,882.4696637875222
1441,904.8352698094241
1442,915.5481710692311
1443,909.0383327832023
1444,881.4757202058827
1445,843.690298627942
1446,813.9120333740029
1447,808.7408898004614
1448,830.3868332932998
1449,873.8798292658612
1450,931.7098431566574
1451,975.8968404271345
1452,968.2507865594216
1453,878.2516470541086
1454,738.8293874279516
1455,613.9739732116395
1456,559.6753699474848
1457,566.6035431871551
1458,594.318458489357
1459,606.4400814175387
1460,598.9683775375634
1461,582.8133124153846
1462,566.754851614709
1463,543.5629606946459
1464,499.01760520736934
1465,423.2887506957268
1466,336.92636269089417
1467,273.15040670998496
1468,257.8708482536531
1469,270.17765280372805
1470,270.8307858207809
1471,228.82021274172985
1472,161.88589897741622
1473,105.55780991020038
1474,88.21591089150388
1475,99.6201672393945
1476,116.55054423613365
1477,119.52700712572187
1478,107.59952111146777
1479,85.47805135350245
1480,58.382562966327896
1481,33.67302101633686
1482,19.329390519353183
1483,20.651636438136848
1484,32.37972367990369
1485,46.67361709384204
1486,57.933281468607674
1487,68.52868152983683
1488,82.57978193765666
1489,98.85654728414374
1490,99.70894209085964
1491,64.34693080632132
1492,-11.339522196514736
1493,-86.70045262276108
1494,-113.73589625811474
1495,-73.25588897138368
1496,-13.220466717002637
1497,9.06033446244328
1498,-30.44352156630339
1499,-88.93207102969973
1500,-115.91535024993755
1501,-92.23339564745038
1502,-52.69624374345585
1503,-37.03393116247025
1504,-58.866494634850824
1505,-93.4239709993144
1506,-113.33639720545943
1507,-109.843810316288
1508,-97.51624751075542
1509,-91.98374608625272
1510,-98.07634346116902
1511,-109.23407717737427
1512,-118.41698490275485
1513,-119.41510443374682
1514,-106.80847369779985
1515,-76.10713075593594
1516,-35.8211138052302
1517,-3.9904611813108204
1518,2.8247886391254724
1519,-13.5654029641737
1520,-40.33107475750876
1521,-65.27226565570709
1522,-82.93901472462676
1523,-91.15136118361261
1524,-89.28934440798184
1525,-86.53300393148129
1526,-95.84237944875713
1527,-125.91751081780421
1528,-164.38843806242767
1529,-192.40520137467138
1530,-196.62784111725523
1531,-184.50639782600956
1532,-168.38091221230206
1533,-156.52142516543972
1534,-145.20797775508254
1535,-128.61061123363834
1536,-107.40936703865736
1537,-96.79428679520606
1538,-113.71541231825722
1539,-156.5627856150204
1540,-191.92644888732684
1541,-184.06644453395347
1542,-132.6528151529801
1543,-84.11560354407447
1544,-86.27485271084697
1545,-142.71060586311978
1546,-212.13290641923413
1547,-253.2287980083329
1548,-256.0153244726116
1549,-234.66452986958393
1550,-202.75845847432902
1551,-161.3741547817117
1552,-104.3666635086065
1553,-29.316029596096996
1554,39.177701788328704
1555,64.90448524860585
1556,22.32427515792733
1557,-60.752974343404276
1558,-139.9973093501012
1559,-181.80277619403387
1560,-190.21142144629084
1561,-177.51429191932039
1562,-154.656434668952
1563,-129.26689699647795
1564,-108.43472645069596
1565,-96.92997082990769
1566,-95.4126781839459
1567,-104.09289681615337
1568,-121.76067528534986
1569,-145.35206240777734
1570,-171.6371072590573
1571,-196.09985917607082
1572,-213.0733677588796
1573,-217.5046828725899
1574,-212.05485464921549
1575,-204.32993348950367
1576,-200.82797006475084
1577,-199.2890153186163
1578,-193.54512046887248
1579,-179.4043370091713
1580,-162.31071671076825
1581,-150.59131162424273
1582,-149.39117408116363
1583,-153.6943566957816
1584,-156.50191236664432
1585,-152.43689427822756
1586,-139.57135590253165
1587,-116.50735100064412
1588,-86.86993362429348
1589,-61.42215811736787
1590,-51.05607911740117
1591,-57.62875155706752
1592,-74.28323066560552
1593,-93.79657197025517
1594,-108.776831297635
1595,-111.73006477511626
1596,-96.87132883217237
1597,-70.31868020168258
1598,-43.24517592120719
1599,-26.730873334270655
1600,-31.309830091562617
1601,-67.36710415215566
1602,-133.1187537846763
1603,-194.264837568433
1604,-211.42841439454423
1605,-171.10254346700822
1606,-103.75028430375824
1607,-43.30469673769221
1608,-0.5128409176468267
1609,39.28522269063615
1610,90.02243330357669
1611,138.8097298188859
1612,153.86705081467335
1613,111.71433454864564
1614,52.56151895729636
1615,44.79454165514835
1616,130.91533993402663
1617,242.33185076236623
1618,280.8980107845546
1619,199.38375632031057
1620,79.17902336407678
1621,20.659747584510114
1622,56.45286432392095
1623,114.99130859782417
1624,119.33401509448777
1625,68.57491817451773
1626,34.13695187051417
1627,81.60004988672699
1628,187.25614559875976
1629,275.34417205334466
1630,284.3110619680974
1631,234.82674773137114
1632,175.83116140211132
1633,143.3842347097634
1634,133.43589905423323
1635,134.15608550585603
1636,137.46472480545162
1637,141.87174736438283
1638,146.75708326467247
1639,156.08066225916627
1640,178.64241377173494
1641,221.87226689752242
1642,274.84015040321356
1643,315.04599272740234
1644,326.0597219809388
1645,327.61126594736743
1646,352.3905520834014
1647,415.937507519413
1648,480.4020590600194
1649,497.9441331846865
1650,455.39365604836894
1651,399.5905534822159
1652,381.5747509943394
1653,411.2361737705887
1654,457.78474667541195
1655,491.09039425274386
1656,504.9930407269567
1657,506.7726100038526
1658,502.09902567171775
1659,488.20221100239905
1660,459.71208895246673
1661,415.8585821644265
1662,367.49161296792954
1663,327.0911033811244
1664,299.5969751119792
1665,279.3891495597054
1666,260.4575478162187
1667,241.75409066765314
1668,226.03069859594325
1669,216.12129178043688
1670,214.663790099592
1671,224.21011313269082
1672,239.8371801616704
1673,231.67691017294055
1674,165.1122218593082
1675,44.60803362193292
1676,-58.11873642763567
1677,-68.76817046539327
1678,3.4596490472740697
1679,72.2806393657811
1680,60.53571746460693
1681,-10.007199960395155
1682,-69.32519648960624
1683,-67.80735597719831
1684,-36.23576254865293
1685,-24.590500598171275
1686,-54.056654786068975
1687,-90.78731003607209
1688,-96.55855153257835
1689,-75.42646471781882
1690,-73.32113528901027
1691,-130.07664919538365
1692,-217.18109263519
1693,-271.26055205261946
1694,-250.7201141346577
1695,-200.69686580788948
1696,-187.23389423521257
1697,-231.8972868125038
1698,-272.69713116521416
1699,-241.62451514488566
1700,-139.6555268256052
1701,-33.164254500396055
1702,17.103213322467127
1703,15.525787923223106
1704,-2.7916196255755494
1705,-11.430098455142797
1706,-15.051737896499617
1707,-24.905627476451627
1708,-38.028856913455456
1709,-28.166516113453326
1710,29.797304834397437
1711,107.00451566204538
1712,130.9380259269492
1713,45.452745016558765
1714,-94.89241784712613
1715,-192.86555360293278
1716,-190.24675334580752
1717,-136.17110832204162
1718,-96.93370992438577
1719,-95.67964968715023
1720,-100.25601928116703
1721,-78.84691050869333
1722,-43.08541529825925
1723,-31.274625699395983
1724,-70.9846338773259
1725,-140.60853210752794
1726,-205.04941277025682
1727,-237.27436834497894
1728,-225.78749140468972
1729,-162.41887461020997
1730,-69.0236107043329
1731,5.61020749405543
1732,20.019487095980367
1733,-11.616864851559512
1734,-52.37994135943154
1735,-75.20783549011867
1736,-80.49564035141157
1737,-73.30544908997581
1738,-58.38935488485731
1739,-40.09845094089542
1740,-22.948830482042467
1741,-13.026586744608721
1742,-17.31881297039763
1743,-38.25660239976787
1744,-61.23304826460662
1745,-67.82424378119686
1746,-51.849282143015444
1747,-26.416256513419285
1748,-5.345260018248155
1749,10.853614261654002
1750,31.05927329802944
1751,60.672624122877096
1752,87.6885738362289
1753,95.03602961400247
1754,77.11689871596536
1755,50.338088493790565
1756,32.711506399202335
1757,27.129059992215844
1758,23.88665694950214
1759,14.302205072799552
1760,-2.3203877025189286
1761,-23.896213298834482
1762,-48.48336348753037
1763,-74.46392988015941
1764,-100.0160039195016
1765,-118.55167687055291
1766,-119.07303981135192
1767,-94.45018362376686
1768,-62.65319898413509
1769,-51.194176353837975
1770,-67.9892059697413
1771,-75.08037783453256
1772,-30.39378170699638
1773,54.36049290788469
1774,115.63435676886365
1775,98.98172090852313
1776,21.935496643453007
1777,-69.77340441548404
1778,-139.42207035272259
1779,-171.64958893753283
1780,-154.919047613379
1781,-94.62753348720071
1782,-12.19213331861647
1783,69.10206649106658
1784,118.77897990986276
1785,103.77952128629659
1786,25.947605360652233
1787,-36.313852723602395
1788,-0.010937408349491307
1789,113.34326729080385
1790,191.03667779626812
1791,144.69621098029165
1792,34.70278417693589
1793,-29.007684805854296
1794,5.898722325937342
1795,80.40092436471059
1796,126.5918406136716
1797,134.24639089937955
1798,136.8334955844075
1799,157.01507558012418
1800,164.07705235960202
