800,185.92430324938323
801,167.67338778760313
802,152.2928032494583
803,140.98273646091366
804,130.1033742564632
805,115.9749034780325
806,96.34751097390472
807,74.02138359758465
808,52.886708206675394
809,36.86367166175478
810,30.402460825209346
811,38.71326256008979
812,67.02626372891609
813,118.52165119251731
814,180.1196118088119
815,231.14033243163067
816,250.89399990945276
817,229.24080108423186
818,182.87092279009448
819,132.63455185214298
820,98.58187508514493
821,85.40307929229493
822,83.56835126390251
823,83.04787777611273
824,75.94184558958841
825,65.6604414482008
826,59.26385207769272
827,63.75226418434795
828,79.76586445363318
829,97.04483954884017
830,104.26937610973073
831,91.5096607511332
832,64.2358800615657
833,37.428220601834255
834,26.226868903624563
835,39.50201146807922
836,65.95383476436655
837,90.22252522824238
838,97.3382692606101
839,82.5812532260461
840,52.33166345134123
841,13.569686224027464
842,-26.60449220911687
843,-60.24068564355548
844,-79.07870791851019
845,-74.91837291845331
846,-46.09949457466428
847,-3.101886866714267
848,42.25463617594323
849,78.85026047245992
850,103.18517188901569
851,116.66955623726608
852,120.77359927275938
853,117.43748669334673
854,110.15140413760855
855,102.68553718323892
856,98.67007134544474
857,98.75519207533034
858,100.51108475828005
859,101.33793471230638
860,99.04592718642562
861,93.35524735901708
862,84.65608033615172
863,73.35861114993531
864,62.683024756843224
865,60.2795060360404
866,74.17823978768865
867,110.46941073127527
868,157.96320350388487
869,196.58980265850732
870,206.23939266233901
871,179.12215789503352
872,137.0982826469899
873,106.3879511176201
874,111.38134741359318
875,149.63865554711992
876,198.2700594341586
877,233.8457428926704
878,239.30588964086382
879,220.33068329540401
880,187.75030736964254
881,152.2749452718217
882,122.38478030328952
883,104.07999565670798
884,103.28077441423011
885,122.65729954570088
886,147.9497539068434
887,159.42832023742812
888,137.72318115944836
889,83.93451917529273
890,29.222516665897274
891,7.117355888904058
892,44.92921897681299
893,123.76828793512868
894,204.0847446404896
895,246.37877083881722
896,233.97054814342846
897,194.44025803318073
898,160.48808185056077
899,161.55420079983378
900,193.54879594513113
901,232.7020482085536
902,255.02413836828237
903,246.94524705667754
904,221.1355547583462
905,194.33524180825225
906,182.28448838978693
907,187.26347453285234
908,201.62238011193404
909,217.48138484415722
910,229.25066828737727
911,238.6404098382136
912,248.79078873012986
913,262.6519840314704
914,279.81417464351944
915,296.8375392985399
916,310.21225655782473
917,315.4085048097295
918,304.26646226769844
919,267.696306968317
920,197.4882167693213
921,107.35236934762906
922,33.68894219736467
923,13.988112627874216
924,72.66005776173733
925,175.5049545327838
926,271.8029796841038
927,312.11430976604424
928,287.03912113423576
929,234.0675899475591
930,193.3798921661728
931,195.7462035494882
932,223.96669965418369
933,245.70155583216547
934,229.29094722858463
935,170.2150487798117
936,98.68403521140681
937,47.18808103611809
938,41.59736055185385
939,71.0820478396563
940,112.17231676168922
941,141.72834095918915
942,149.8302938504603
943,144.5383486288174
944,135.18267826057672
945,129.4834554830104
946,125.78085280231062
947,119.04504249154888
948,104.38619658865719
949,82.32448689434568
950,61.000084970113676
951,49.113162136165556
952,53.51388946937914
953,70.34243780126599
954,91.83897771592638
955,110.28367954798341
956,120.61671338055203
957,121.37824904319314
958,111.4084561098407
959,90.3275038967713
960,62.29556146054347
961,33.11279759595891
962,8.47938083398185
963,-8.984520560290548
964,-20.798738589686764
965,-28.753105527021035
966,-34.30745391714481
967,-37.251616579003894
968,-36.80542660767969
969,-32.15871737646921
970,-21.841322538919485
971,-3.5530760308902245
972,25.066187927390274
973,63.0566348292723
974,93.47842987962576
975,94.4917379928047
976,45.27672379055002
977,-46.53644840001289
978,-141.43761454846026
979,-198.21661092310933
980,-187.5932740930857
981,-131.0474409303497
982,-63.5689486117717
983,-19.1876346211684
984,-10.573336751354873
985,-29.335893106193907
986,-66.19514210265334
987,-110.78092247282257
988,-148.82307326599948
989,-165.18143385069743
990,-146.0158439167153
991,-99.66614347716313
992,-53.16217287050313
993,-34.073772762607405
994,-57.93078414876254
995,-104.583048355742
996,-147.31040704381667
997,-161.18270220879458
998,-144.1297761840451
999,-109.99147164255919
1000,-72.90763159892776
1001,-43.468099411415096
1002,-23.92271878394422
1003,-15.271333768145269
1004,-18.573788765375866
1005,-33.92992852871794
1006,-55.50959816500108
1007,-74.95264313684129
1008,-84.05890926461507
1009,-81.76824272849262
1010,-77.22049007043825
1011,-80.3454981962077
1012,-97.87311437735843
1013,-118.98318625325737
1014,-126.94556183304849
1015,-105.60008949767689
1016,-58.18661800186783
1017,-10.734996476101514
1018,9.42492557136211
1019,-15.596701747448606
1020,-63.67972870223093
1021,-102.1340059463837
1022,-99.81938451896167
1023,-57.05571584665449
1024,-3.3128517457771522
1025,30.839355575813897
1026,25.381053516717657
1027,-6.32761091995053
1028,-44.346491128524576
1029,-69.70544090271324
1030,-75.56431443757356
1031,-63.62296633145161
1032,-35.771251587899314
1033,2.8009743823658937
1034,39.44385575952947
1035,60.4775363127701
1036,54.67215939831476
1037,31.927867957532726
1038,12.83480451500327
1039,17.873111176615566
1040,53.36292962765947
1041,103.02440113090779
1042,148.51766652473816
1043,173.89286622121108
1044,176.51014020419643
1045,158.29962802748378
1046,121.4114688128866
1047,73.92580124837878
1048,30.41276358621326
1049,5.7624936410447845
1050,8.915128788081347
1051,27.68080596121399
1052,45.219661651159186
1053,45.8118319036148
1054,29.597452317397256
1055,8.166658042633571
1056,-6.650416221116757
1057,-6.963636226655581
1058,6.377131818995622
1059,31.352021252798295
1060,65.3511649538741
1061,101.08469534167853
1062,129.10274437422413
1063,140.18544354625556
1064,133.6329238874623
1065,120.28531596068751
1066,111.77274986014709
1067,115.82535520965212
1068,123.45326116083561
1069,121.3165963913616
1070,97.08548910320678
1071,55.61006702086888
1072,15.600457389631629
1073,-3.85321302619559
1074,6.239182055007404
1075,31.39776843041909
1076,53.80267141105287
1077,58.1140158200451
1078,48.33192599092763
1079,37.32652576592409
1080,37.73793849424328
1081,50.62628703039263
1082,62.081693732478016
1083,57.164280460521695
1084,27.314168574774158
1085,-11.578521065925088
1086,-37.74366810585161
1087,-31.3411526940381
1088,1.6991445140847645
1089,37.217342355017536
1090,50.793559155577896
1091,33.12791273125731
1092,4.170520384588599
1093,-12.808501096467808
1094,-0.14903544012304337
1095,27.11903310761045
1096,42.19581978135102
1097,19.43143929472535
1098,-40.91399416120839
1099,-113.04036691951114
1100,-170.01756583895985
1101,-193.23547830562165
1102,-186.1039922343698
1103,-155.67299607046516
1104,-109.69237879108732
1105,-61.39202990687227
1106,-26.701839463419674
1107,-21.101698042853968
1108,-43.8014967652889
1109,-73.52112729036344
1110,-87.67048181872815
1111,-72.51945309353323
1112,-44.44793440191097
1113,-26.22581957645525
1114,-38.21300299667746
1115,-75.95937959047478
1116,-120.35484483558321
1117,-152.3392947609991
1118,-163.1126259484372
1119,-159.14473553374955
1120,-148.13552120835266
1121,-136.81488122060728
1122,-128.1427143772653
1123,-124.12892004483365
1124,-126.44339815097555
1125,-132.17604918587494
1126,-135.4667742036272
1127,-130.4954748235832
1128,-116.82205323170638
1129,-102.67641218192148
1130,-97.05845499745374
1131,-106.75808557215169
1132,-129.3452083718057
1133,-160.0297284354656
1134,-193.9715513767369
1135,-225.97058338508577
1136,-250.61673122710636
1137,-262.48990224780573
1138,-257.97000437188944
1139,-236.15694610498576
1140,-196.4306365349221
1141,-142.58098533296652
1142,-96.10790275503496
1143,-82.88129964295149
1144,-125.22108742562887
1145,-205.64717812029448
1146,-281.93948433368496
1147,-312.0579192632176
1148,-283.3123966981857
1149,-225.04283102092995
1150,-169.8991372079854
1151,-142.13123083122082
1152,-137.03902805901998
1153,-143.66244565736451
1154,-151.8914009910095
1155,-159.45581202453104
1156,-168.2655973234996
1157,-180.1306760555126
1158,-193.3409679913202
1159,-201.84639350589168
1160,-199.36687357945266
1161,-182.80232979858192
1162,-157.74268435723206
1163,-131.287860057766
1164,-109.59778031199494
1165,-92.64236914218418
1166,-77.81155118205788
1167,-62.86525167781474
1168,-52.653396489085935
1169,-58.68591208993712
1170,-92.60272556981727
1171,-153.59376463452827
1172,-215.84895760716427
1173,-250.5582334290466
1174,-236.3915216606565
1175,-187.2087524825456
1176,-127.14985669625094
1177,-79.10476572516927
1178,-51.09341161546763
1179,-41.42572703694532
1180,-48.14164528390211
1181,-64.4111002759837
1182,-76.7440265590376
1183,-71.19035930594146
1184,-43.34003431742349
1185,-17.052988022880527
1186,-21.43915748116342
1187,-78.68848038139913
1188,-163.65089504373827
1189,-231.4663404201383
1190,-239.4747560951364
1191,-186.66608228656332
1192,-108.23025984631931
1193,-40.39723026107458
1194,-2.1169356529917422
1195,18.200681219561375
1196,35.23567696133978
1197,58.21810753950194
1198,75.84802828298052
1199,71.98549388178617
1200,33.440558386375415
1201,-28.12672479298635
1202,-88.52630288686669
1203,-124.1181237672572
1204,-125.87213594821333
1205,-99.27828858641988
1206,-50.54653148178295
1207,8.423184921994107
1208,54.550909536857944
1209,63.466690629853474
1210,22.11057582258036
1211,-36.617387909320314
1212,-68.15715423669099
1213,-34.348677477353704
1214,46.84808740339031
1215,128.47318479228852
1216,164.87665842766728
1217,146.198551398973
1218,98.01890614632612
1219,47.327764460089384
1220,12.635167480446398
1221,-3.4688443030099734
1222,-0.13423105167021276
1223,20.30904642169662
1224,43.811026652570945
1225,53.61174752433362
1226,36.08124626788049
1227,1.2195594613294816
1228,-30.173276970346706
1229,-38.2272277556076
1230,-20.292258276673238
1231,11.691665430218563
1232,45.39457667449278
1233,75.19650811099928
1234,105.6974917397547
1235,142.3975589056845
1236,185.4967402984057
1237,220.12506595201194
1238,228.71256524485216
1239,199.01926689934953
1240,148.16519898181468
1241,103.39038890227675
1242,89.68486341432799
1243,106.83864861498296
1244,138.78176994453133
1245,169.46425218644436
1246,189.37611946724064
1247,196.32739525640318
1248,188.48810236630197
1249,170.47826295211235
1250,159.2078985117805
1251,172.97702988594028
1252,219.12567725791996
1253,267.03386015370234
1254,277.841597441924
1255,222.3589073338735
1256,133.35580738352655
1257,67.97231448756065
1258,78.418444885403
1259,153.48421415930352
1260,238.789637234373
1261,280.4247283787008
1262,263.8495012034291
1263,219.3639686628594
1264,179.5781430545885
1265,165.78203601963287
1266,177.6456585425749
1267,212.41902095172736
1268,262.6821329193117
1269,305.7650034616272
1270,315.90764093926737
1271,274.82005305732673
1272,206.9822468656239
1273,151.98422875893993
1274,145.4560044772752
1275,181.7475791061097
1276,230.90895707668278
1277,263.62014216628995
1278,270.5311374985704
1279,261.15194554384834
1280,245.63256811944484
1281,230.59300639003595
1282,217.2932608680021
1283,206.57333141379786
1284,198.90321723635316
1285,193.9029168934394
1286,191.11242829211915
1287,190.10174868914146
1288,190.75087469139362
1289,193.0098022563525
1290,196.6685266925415
1291,200.43704266001987
1292,202.6053441708773
1293,201.91342458972395
1294,202.2712766342229
1295,210.79889237561656
1296,234.29626323928824
1297,271.1133800052994
1298,311.570232808981
1299,345.65681114152176
1300,362.1731038505586
1301,348.28909914079486
1302,291.13478457464225
1303,196.89014707284514
1304,112.86517291514974
1305,91.73984774097516
1306,163.76415655008532
1307,284.79808370330284
1308,395.2916129232108
1309,445.75472729487774
1310,438.5374092666116
1311,392.54964065069544
1312,326.9614026241652
1313,262.94267572959325
1314,222.6634398758706
1315,225.89367433904044
1316,261.173357763093
1317,295.2124681608293
1318,295.7509829147002
1319,264.11887877767003
1320,235.13613187410374
1321,244.452717700653
1322,298.1386111271768
1323,360.65378639765004
1324,393.478217131109
1325,379.0018763226035
1326,341.2247363441493
1327,309.0867689457227
1328,302.3279452562401
1329,314.46823578458134
1330,334.40761042059603
1331,352.3760384361467
1332,363.9634884861607
1333,366.15992860969527
1334,357.1653262310065
1335,342.6396481606571
1336,330.8928605966157
1337,329.76492912538197
1338,342.9058187231203
1339,371.8554937568115
1340,417.1139179854199
1341,466.3410545610732
1342,498.4068660302546
1343,493.27131433500836
1344,455.1543608141783
1345,410.21596620461787
1346,384.75609064246964
1347,383.48469366441896
1348,385.3617342089692
1349,368.13717061775424
1350,329.81096063683435
1351,300.0530614180261
1352,311.1834295202407
1353,373.8520209108374
1354,454.41879096699813
1355,513.8336944770999
1356,525.3366856421217
1357,495.2377180770545
1358,435.336744812319
1359,359.153718295227
1360,286.2385903914237
1361,237.47131238634756
1362,228.79183498675593
1363,253.31010832217544
1364,297.5460819464588
1365,347.91970483928344
1366,390.29092540772217
1367,410.31969148778626
1368,396.2859503459986
1369,357.07964868100134
1370,311.26073262513273
1371,276.4391477460631
1372,260.3348390484407
1373,264.8977509755023
1374,291.0078274107673
1375,326.17501167971386
1376,348.38924655145274
1377,336.9304742404511
1378,298.48863640825584
1379,263.37367416521374
1380,261.6055280722521
1381,295.4241381426182
1382,338.2494438436752
1383,362.68138409870335
1384,359.7098972886906
1385,342.98492125419034
1386,327.41639329714417
1387,318.75425018273563
1388,309.43842814126947
1389,290.92886287006877
1390,263.5254895353519
1391,242.70824277416614
1392,245.3470566963224
1393,274.861864886323
1394,307.74260040535046
1395,317.33919579322173
1396,292.5615830703846
1397,258.6696937399356
1398,246.03345878962864
1399,267.802808693923
1400,290.767673416025
1401,274.0179824099632
1402,197.76366462266014
1403,107.38464849604134
1404,60.81086196915021
1405,95.83223248025024
1406,179.35868696900616
1407,262.73015187860256
1408,307.2565531579421
1409,314.0578162638285
1410,294.1438661631564
1411,259.7146273351482
1412,228.36002377357545
1413,219.13997898901107
1414,245.5844160110937
1415,293.78325739079264
1416,341.3264252027311
1417,369.0438410474617
1418,375.3154260538158
1419,364.43110088122376
1420,341.53078572208506
1421,316.6544003041272
1422,301.6418638927953
1423,305.9430952936491
1424,323.6780128547798
1425,342.93653446924327
1426,353.928577577497
1427,361.8340591698652
1428,378.08289578902077
1429,411.79500353246294
1430,455.22029805503735
1431,493.1386945714439
1432,512.3901078587896
1433,516.1344522591226
1434,515.0416416820117
1435,518.4715896071211
1436,524.894209086815
1437,527.5894127487645
1438,521.317112798577
1439,513.30722102244
1440,516.9296487897718
1441,542.7643070559134
1442,577.8911063647993
1443,597.6599568516685
1444,581.7407682457851
1445,547.2634498731622
1446,530.2079106593319
1447,561.094059132085
1448,623.0018034242821
1449,675.2210512766069
1450,680.9217100404221
1451,637.7636866805624
1452,560.5568877781843
1453,465.7812195336337
1454,382.2865877693039
1455,344.98289793252843
1456,381.25005509847506
1457,458.00796397307386
1458,513.4265288959414
1459,495.1756538433401
1460,424.9052424311212
1461,358.24519791771854
1462,342.3454232071399
1463,361.25582085196766
1464,371.2862930563915
1465,336.35674167923935
1466,273.23706823703833
1467,220.75717390707905
1468,210.84695953050505
1469,230.89632561540566
1470,250.85517233993596
1471,244.58339955544943
1472,209.23090678962944
1473,150.40759324967257
1474,78.00335782544425
1475,24.818099092673947
1476,31.341715316175396
1477,119.85410445304115
1478,223.31516415591614
1479,247.254791776204
1480,129.10288436736664
1481,-52.55066131179592
1482,-180.05594879386263
1483,-168.50308189946736
1484,-62.52216473398221
1485,61.26669831583604
1486,141.29340258519733
1487,168.7878431346562
1488,146.51991475348768
1489,84.83951196311136
1490,17.206529020490052
1491,-18.429140078433193
1492,-2.517601595274755
1493,35.10103795424584
1494,56.42667180378339
1495,39.88919293984691
1496,2.088494105346399
1497,-34.95553219692374
1498,-55.202993700715524
1499,-54.663998372794595
1500,-30.878654409361843
1501,9.46292976753466
1502,43.990645513596974
1503,49.104383965883244
1504,20.57403604645151
1505,-17.27050753401454
1506,-38.27935627252555
1507,-34.03261987011865
1508,-18.240408228184606
1509,-5.602831444732146
1510,0.8900001892980072
1511,10.577976193801078
1512,32.69098590322574
1513,63.678918470368444
1514,88.63166287012609
1515,93.2791079033068
1516,77.96114220044183
1517,53.687654225599545
1518,30.718532280219733
1519,8.483664506991772
1520,-20.077061106294423
1521,-59.3337567228682
1522,-90.62653465306903
1523,-84.07550735043515
1524,-19.530787407768003
1525,60.85751244678977
1526,90.69927935374108
1527,23.924400326188334
1528,-85.32723774617625
1529,-152.2857480930652
1530,-120.51124405956762
1531,-41.013839102137354
1532,9.776353215476774
1533,-15.800780773735823
1534,-81.82535483592801
1535,-137.32748283235014
1536,-149.92727871520583
1537,-128.80485652356037
1538,-88.7303303791814
1539,-43.09381448239583
1540,-2.9054231079317105
1541,21.174729399266653
1542,24.0865286282351
1543,8.07986010620698
1544,-23.74539069718412
1545,-61.34933836564596
1546,-87.62209753198658
1547,-86.81378287383268
1548,-68.84450910936721
1549,-63.43439099300849
1550,-96.47354331111637
1551,-149.1220808776634
1552,-176.60011852988464
1553,-142.237771123926
1554,-69.10515353047958
1555,-5.942380630402113
1556,9.110432689700247
1557,-8.996828458124583
1558,-28.884278958754294
1559,-29.89203368953531
1560,-29.030207515828806
1561,-51.508915286560295
1562,-106.82827182969777
1563,-165.4883919477743
1564,-192.35939041337951
1565,-175.06138196460597
1566,-141.44448130053934
1567,-122.94880307666062
1568,-132.10446190031143
1569,-157.45157232608835
1570,-186.13024885123923
1571,-207.5706059110653
1572,-213.34275787427032
1573,-196.3968190383439
1574,-165.07290362487402
1575,-137.62112577490188
1576,-130.25159954421179
1577,-142.98443889865484
1578,-168.61975770941353
1579,-199.64766974829035
1580,-227.3682886829538
1581,-242.72172807218885
1582,-238.87810136110966
1583,-216.04752187640588
1584,-175.9301028215159
1585,-125.69595727181513
1586,-84.16519816981236
1587,-71.21793832028743
1588,-86.47429038543487
1589,-100.8243668800169
1590,-84.52828016644526
1591,-41.97614244992474
1592,-10.448065773503913
1593,-24.684162013183595
1594,-73.23454287295681
1595,-114.769319879857
1596,-114.5886043790033
1597,-87.60250752861612
1598,-69.75114029501674
1599,-87.3646134476221
1600,-124.89303755392939
1601,-155.57652297447203
1602,-159.81517985778555
1603,-137.24911813532162
1604,-90.82844751638731
1605,-33.293277483055135
1606,5.946282714945482
1607,-2.789875934660813
1608,-51.50186220154865
1609,-90.909784607662
1610,-73.98375142205987
1611,-11.753870655733408
1612,43.80974994358439
1613,48.07700289659806
1614,16.497780997679
1615,-8.868022679920614
1616,3.899485221178111
1617,42.94019834773826
1618,84.77401064115656
1619,111.43081634276132
1620,119.02050999908352
1621,105.85298646719093
1622,72.73814091998247
1623,24.315868851535924
1624,-33.69393391756057
1625,-80.00137123483546
1626,-78.49654661056411
1627,0.8004367876092147
1628,119.06947614007368
1629,197.42046898066837
1630,175.41331320209974
1631,97.76790706137763
1632,45.32414918529139
1633,68.66193857582584
1634,124.10117461568916
1635,150.01175707377297
1636,118.1735861106572
1637,60.32656228414271
1638,13.860586554757901
1639,0.265560291320071
1640,24.031385276477522
1641,86.3979637122884
1642,161.0051982257828
1643,204.14299187457618
1644,183.12124815246534
1645,130.85987099504382
1646,103.76876478534541
1647,135.29783435947866
1648,187.27698501227678
1649,207.97612250299062
1650,178.48515306094123
1651,136.59398339124346
1652,124.22252068049238
1653,148.17067260249314
1654,180.45834732398362
1655,194.1454535103967
1656,187.0519003315967
1657,170.8975974676614
1658,155.15245511466856
1659,137.3163839904737
1660,111.31929534053415
1661,78.3911009437179
1662,58.31171311813705
1663,73.32104472699757
1664,124.14900918444619
1665,181.88552046144287
1666,216.81049309163973
1667,220.54384217727784
1668,201.0254833950894
1669,167.10533300220777
1670,130.87330784211372
1671,105.74932535055268
1672,99.17330356151069
1673,98.52516111315526
1674,87.08481725384081
1675,57.19219184807298
1676,16.767205382513566
1677,-24.780221027986045
1678,-59.03016563438905
1679,-78.50270604742582
1680,-76.8579192315392
1681,-57.11588149883028
1682,-26.8566685029964
1683,5.679644766778438
1684,29.752983991875226
1685,34.11327553039882
1686,17.470446423252724
1687,-2.425575599714648
1688,-6.714862113563868
1689,-0.4474839921203966
1690,-12.403511401807918
1691,-66.51301379547294
1692,-136.24605990620148
1693,-169.33271774110835
1694,-131.4830545751429
1695,-59.82713694486483
1696,-8.875030642208003
1697,-6.63680070823284
1698,-31.422511426877463
1699,-56.882226318701214
1700,-74.89600813458856
1701,-94.64391884947872
1702,-123.58601965604612
1703,-150.41237095841825
1704,-154.92303236583575
1705,-126.73806268631415
1706,-89.97751992031408
1707,-76.02146125439322
1708,-94.41994305482149
1709,-118.90302086122028
1710,-121.64074938017438
1711,-103.55318247881951
1712,-88.8103731784613
1713,-98.43237364813467
1714,-129.2692351981823
1715,-168.88100827381095
1716,-203.62774244865614
1717,-216.7094864182891
1718,-191.3262879937829
1719,-131.54819409520132
1720,-68.21525074512283
1721,-31.64750306212227
1722,-27.21499525427498
1723,-44.94777061262357
1724,-72.93587150464555
1725,-91.60933936770016
1726,-79.44821470249371
1727,-32.72253706648553
1728,18.097654932651494
1729,39.98232364364958
1730,26.631432378215322
1731,-4.4050545823447464
1732,-35.717171980524654
1733,-57.144953575978434
1734,-61.45843213889748
1735,-46.17763944336184
1736,-21.942606260681714
1737,-1.5333623527349118
1738,5.870063534704968
1739,-4.462356321333573
1740,-35.58064861434832
1741,-76.66483900163985
1742,-109.14495209760207
1743,-117.81101146701258
1744,-100.393039618275
1745,-57.81105799670331
1746,-3.7250869777453772
1747,28.094854139753807
1748,5.508747140345804
1749,-58.973425101256
1750,-121.3216786133853
1751,-146.13602832061042
1752,-142.20648803695804
1753,-131.36307045904869
1754,-127.25578715932352
1755,-127.89464857915846
1756,-129.08966402205806
1757,-119.85084164678847
1758,-83.51818846050082
1759,-10.851710311882925
1760,64.65858811573344
1761,94.642703311265
1762,57.39063294276821
1763,-10.557624135650258
1764,-66.20206787691859
1765,-92.1426970340708
1766,-94.6395091533268
1767,-82.02250056713092
1768,-69.95166638721093
1769,-76.84700049762796
1770,-108.19849554778739
1771,-139.25614294549268
1772,-141.69993284992233
1773,-104.46985416467578
1774,-33.155894530738806
1775,60.23195968049549
1776,127.04372337427776
1777,104.42941273949873
1778,-23.14095474426358
1779,-160.28736029969514
1780,-200.16978384471258
1781,-131.49820398537668
1782,-33.32259800886459
1783,21.777058123645475
1784,22.83078978402773
1785,-17.991376315691014
1786,-74.75941211622921
1787,-91.61328820394738
1788,-13.492973803740824
1789,125.67156322809387
1790,214.2403564109809
1791,164.98344064720004
1792,37.33085222903537
1793,-60.38737115407457
1794,-71.68119040837882
1795,-40.33056502864201
1796,-18.34545309097666
1797,-9.255811245655423
1798,20.088405290067385
1799,88.24724273916581
1800,144.3007487720315
