800,62.487550059835485
801,60.02339012504126
802,43.4251452579947
803,17.68804031712716
804,-4.880700802675165
805,-11.878855175501485
806,4.208799150235791
807,34.02048314655622
808,64.55441680074182
809,83.0698191102556
810,85.86690807775358
811,80.57690070618264
812,75.54101299395006
813,77.6464599302044
814,82.45945549017779
815,80.21821263062611
816,61.15494328534169
817,22.44985836077103
818,-21.093832268309598
819,-51.93891976302348
820,-53.42619632453261
821,-26.277455198114694
822,12.771509322867132
823,46.39590189303908
824,60.76692611121598
825,60.303784516646374
826,55.370678585352834
827,56.246808726551535
828,66.22937427913348
829,76.62757350825905
830,77.5616036019901
831,60.47166066802947
832,31.244939730524493
833,4.720634726947537
834,-4.137061494947375
835,14.022042819914532
836,50.46313833103795
837,92.81441459953294
838,128.86906008538335
839,150.54226214477785
840,154.25120702751065
841,136.64207987446662
842,96.3490647151666
843,43.974344465399554
844,-5.412899075088717
845,-36.81048522482433
846,-42.043234422766545
847,-25.6349682304035
848,6.508490666235048
849,48.22731845461294
850,90.388690193824
851,121.96577981275641
852,131.90876010836928
853,114.21180274400467
854,78.78307824777403
855,38.666756011031794
856,6.570004286882977
857,-12.681009811217336
858,-22.317120310803148
859,-25.937162381683265
860,-26.205972337151252
861,-20.851387635130777
862,-5.974246879259226
863,22.26661018008781
864,63.815342644850716
865,112.46110846837837
866,161.44906445461402
867,204.06536625731133
868,233.90616837933976
869,244.73062417203528
870,230.3268858346146
871,191.63110441365734
872,146.7544298026387
873,116.33001074152435
874,119.32199481643238
875,150.10152845935045
876,184.261756947898
877,196.9298244051679
878,172.2058737996149
879,126.44604694500413
880,83.24548450041038
881,65.50932597028532
882,77.98370970457017
883,105.86877289887616
884,133.40165159470416
885,147.28248067973072
886,147.10039388815312
887,136.6395238010773
888,119.72400184696289
889,102.17795830212799
890,92.76752229130125
891,100.48782178822512
892,132.12098361631888
893,178.04113344938742
894,221.26839581238528
895,244.8718940822264
896,241.59575048865372
897,223.02208611514834
898,202.9070208999019
899,193.88067363682785
900,197.07516197662153
901,206.86560242788164
902,217.54911035826535
903,225.03979999570402
904,229.32778442965446
905,231.03417561241167
906,230.7090843604583
907,227.9646203558632
908,221.71989214772748
909,210.8740071536813
910,195.31107166141373
911,178.00519083026302
912,162.54246869283634
913,152.3810081566935
914,148.5929110060497
915,150.13027790355227
916,155.86820839206757
917,163.66880089654478
918,167.4931527258923
919,160.3713600749188
920,135.7745180263055
921,98.1327205526186
922,63.258060518374805
923,47.48862968213052
924,62.615518698629785
925,99.97681712097892
926,145.15461340286856
927,183.92299490083224
928,208.07704787653802
929,216.47285749914317
930,208.3655078476495
931,184.07408191333434
932,149.33666160218854
933,111.60132773741952
934,78.24316006197023
935,53.61223724108004
936,38.18563686489597
937,32.19443545109607
938,34.852708447570876
939,39.81753023512829
940,38.829974130234405
941,23.8711123877938
942,-2.6949837960401055
943,-24.413244281016887
944,-23.8195999799118
945,11.578017144392106
946,65.44367408184644
947,111.07843677821802
948,122.1803701381059
949,91.73153802797697
950,39.51500327924623
951,-12.698172308611902
952,-45.8959279649298
953,-57.25320394467872
954,-49.82394152525649
955,-26.76008300327794
956,4.485428308709743
957,30.53864808549406
958,37.58063099253195
959,15.306430689292938
960,-26.57490016736665
961,-71.27030991979427
962,-102.17074790611241
963,-110.9591644567563
964,-100.3175108909818
965,-73.68473951335818
966,-35.9148036102215
967,0.6193425538922384
968,21.033743739841157
969,10.878443737499765
970,-28.799514630595695
971,-77.75808950558167
972,-114.55623998856845
973,-122.9789261369151
974,-112.1961089604938
975,-99.0657504179162
976,-99.95081341273999
977,-116.71326178966046
978,-134.96906033066443
979,-139.46917475117243
980,-119.82457169615463
981,-86.33121873623077
982,-54.78308436372754
983,-40.5381379887458
984,-49.1443499351808
985,-76.48469143673356
986,-118.03613463290094
987,-167.35265256493676
988,-211.08321917180456
989,-234.3158092861031
990,-223.34339862997695
991,-185.09496381100234
992,-143.82448231805847
993,-124.32393251717895
994,-141.07129364738375
995,-178.05254581649478
996,-213.642669996937
997,-227.4996480215059
998,-215.9014625791442
999,-186.64709721068084
1000,-147.76753630455823
1001,-106.7427650925465
1002,-69.72776964543846
1003,-42.69253686873344
1004,-31.611054498297563
1005,-40.68631109601847
1006,-62.22729604543201
1007,-83.63699954735421
1008,-92.47941261547203
1009,-85.17152707194873
1010,-70.84533554298923
1011,-59.62483145441274
1012,-59.749009027197644
1013,-69.2238632730232
1014,-82.59338998978637
1015,-94.48858575712256
1016,-102.59544793190253
1017,-108.18597464370941
1018,-112.73316479033292
1019,-116.58401803322067
1020,-115.2955347929319
1021,-103.17271624458408
1022,-74.85456431328112
1023,-32.03708166953402
1024,17.05472827532776
1025,63.9438613737575
1026,100.89731274659516
1027,122.53407678769418
1028,123.93114716854325
1029,101.19051684290662
1030,63.837178051465344
1031,30.816122326476034
1032,21.23234049642815
1033,43.10182269072084
1034,79.24255834433552
1035,108.98253620251671
1036,114.3977443254762
1037,101.10317009308528
1038,86.64380020957651
1039,88.46062070826883
1040,110.22761695627378
1041,133.61677365922606
1042,138.31007486601357
1043,108.79950397351604
1044,56.32304373133502
1045,1.352676246559895
1046,-36.0166170115026
1047,-46.548855206557164
1048,-32.91805813056635
1049,1.5927538010118951
1050,51.4235595539958
1051,102.99733748025119
1052,140.9590653224659
1053,151.05272021892233
1054,134.20127870828765
1055,102.34371673438727
1056,67.65400965100434
1057,39.036132226654445
1058,18.225058649382845
1059,6.003762531554457
1060,3.195216914653429
1061,10.891394274065533
1062,30.299266523890765
1063,62.56080502172517
1064,105.62498057347148
1065,153.1587634381267
1066,198.52212333258467
1067,235.31502943643954
1068,258.1684503967772
1069,261.9793543329761
1070,242.21670884150262
1071,203.5694810007135
1072,158.1916373756403
1073,118.44614402279876
1074,93.46796649496537
1075,84.85006984598022
1076,93.11141863553257
1077,117.77197693394646
1078,150.70470832696446
1079,180.26557592053632
1080,194.966542345589
1081,190.62656976281596
1082,172.53961986743525
1083,146.63365389397586
1084,119.60263262103035
1085,101.0575163760268
1086,101.30926503998762
1087,129.09783805227562
1088,172.2371944153574
1089,203.72929269954057
1090,196.3990910477196
1091,142.30554718010808
1092,70.56561839897404
1093,14.543261593368698
1094,1.1214332438394194
1095,19.527089427147985
1096,45.43218582098325
1097,55.23267770866278
1098,42.183519983825136
1099,16.15366715512573
1100,-12.274926649079134
1101,-34.149307676059834
1102,-44.841522544040345
1103,-40.44061823753236
1104,-18.527642102685604
1105,11.239358157363313
1106,33.36533448713271
1107,32.69623848342508
1108,8.266021399954298
1109,-23.048365848037065
1110,-43.21697267917625
1111,-41.43084884135351
1112,-31.393044407134767
1113,-32.01060976918234
1114,-59.76859563567905
1115,-106.1660530257659
1116,-148.00803326498863
1117,-162.1945879807563
1118,-141.63776909780154
1119,-102.90162883365974
1120,-64.47121969415548
1121,-42.33059446889729
1122,-42.57580622678324
1123,-68.8709083115209
1124,-123.28695433715166
1125,-189.01699818359248
1126,-236.92509399218488
1127,-238.01029616125834
1128,-187.364659341697
1129,-118.4862384325279
1130,-68.33108857652405
1131,-64.14926515579646
1132,-92.77682378743066
1133,-130.54382031910336
1134,-155.1923108247438
1135,-161.83935160017336
1136,-157.1479991587903
1137,-147.94631022724116
1138,-137.87834174112686
1139,-125.55715084070016
1140,-109.15179486659599
1141,-89.02733135556446
1142,-74.28181803621464
1143,-76.19431282478763
1144,-104.43387382092351
1145,-150.8545593034596
1146,-196.22042772622444
1147,-221.37153771386784
1148,-219.56994805768863
1149,-201.90671771148482
1150,-180.85390578740953
1151,-165.81157155186156
1152,-155.53477442136318
1153,-146.4725739584801
1154,-135.50902986773235
1155,-123.47620199154244
1156,-113.31115030618639
1157,-107.88893491775707
1158,-107.46861605815684
1159,-109.16525408109464
1160,-109.90690945810456
1161,-107.84564277457775
1162,-104.48351472581362
1163,-101.89458611308237
1164,-101.34791783971104
1165,-98.62157090717938
1166,-87.20960641123929
1167,-61.20708553804434
1168,-26.87306956030261
1169,-1.7096198334384098
1170,-3.564797791784258
1171,-37.68666494477657
1172,-84.02128287317373
1173,-119.4597132252984
1174,-125.87701771329102
1175,-108.46525810937783
1176,-79.2234962421644
1177,-50.0087939929399
1178,-30.847213292015113
1179,-30.575816115054295
1180,-57.738664479445106
1181,-108.67182044067704
1182,-162.98234608874736
1183,-199.06230354457784
1184,-201.9577549564474
1185,-176.47576249646045
1186,-131.0673883570098
1187,-75.33769474728524
1188,-26.67574388977937
1189,-5.731598016820499
1190,-31.42231936713506
1191,-90.86497018241607
1192,-143.53361270390815
1193,-148.28030916903026
1194,-92.28112180801054
1195,-12.670112840522961
1196,48.29665552762799
1197,60.18212110781042
1198,37.06422173186911
1199,3.4898952553739946
1200,-17.73292043911988
1201,-18.612287438852036
1202,1.4047322023461675
1203,42.251076467244275
1204,90.98268337836816
1205,121.81849100114505
1206,108.56743744703272
1207,45.851460876607234
1208,-30.937500497342626
1209,-81.65050840677031
1210,-78.47262452532505
1211,-43.594910465339126
1212,-11.885427774830532
1213,-13.762237934535733
1214,-40.603402354955506
1215,-63.585982373424486
1216,-55.0080392512009
1217,-16.619634170588142
1218,20.718171767939566
1219,25.108317548567356
1220,-11.012257757029147
1221,-49.72261498689204
1222,-48.0878148860038
1223,19.336081896464748
1224,113.38501480988634
1225,179.97292340488912
1226,173.18174733603792
1227,108.9904263644994
1228,31.637900360686217
1229,-16.260890693130932
1230,-23.586006700222242
1231,-5.91350744682768
1232,20.43054740039406
1233,45.306098296889104
1234,68.08508582271588
1235,88.9464506850245
1236,106.72813372051587
1237,116.43507589787532
1238,112.38721832018473
1239,91.93450222730917
1240,69.14586899826372
1241,63.834260153558716
1242,93.22261735750726
1243,145.35188242052755
1244,189.9479973014204
1245,197.45590410959994
1246,166.53654510733122
1247,126.82786271192526
1248,109.43079949791809
1249,127.66829819921986
1250,160.78330171124708
1251,184.14375309302795
1252,181.74559556927943
1253,167.46977253247223
1254,161.66922754485404
1255,181.21290434047023
1256,220.63074682713705
1257,265.6446990884133
1258,302.5317053855324
1259,324.8387101593162
1260,331.0716580320641
1261,320.07049380941316
1262,297.9581624821876
1263,279.1336092282063
1264,278.3847794140793
1265,301.81561859697104
1266,339.04707252635035
1267,377.8430871456967
1268,407.3566085942066
1269,421.28058320845685
1270,414.2149575240519
1271,383.35367827723985
1272,340.5806924065173
1273,302.98794705419186
1274,286.0993895679321
1275,289.1609675022937
1276,301.8396286202087
1277,313.9103208944671
1278,320.06799250916265
1279,319.6585918611099
1280,312.21606756125493
1281,297.82536843603884
1282,277.38344352875265
1283,251.8602421008627
1284,222.80171363330646
1285,193.13380782777404
1286,165.98947460794716
1287,144.89266412074267
1288,134.88432673749867
1289,141.38141305515455
1290,168.27287389740195
1291,209.46766031581865
1292,254.87472359095773
1293,295.5210152334348
1294,335.081486984971
1295,385.1530908194327
1296,456.48577894381924
1297,539.2915037992543
1298,604.2452180619266
1299,621.7128746440249
1300,585.7614266946412
1301,524.3318276006494
1302,467.9330309875495
1303,436.2399907203089
1304,425.5336609041615
1305,429.0439958853858
1306,439.9899502520584
1307,451.5554788347845
1308,456.9175367074058
1309,450.9450791876743
1310,437.21706183791594
1311,422.09444046565386
1312,411.5471711242153
1313,408.3552101133182
1314,413.7795139796208
1315,428.0710395172582
1316,438.59074376834815
1317,423.6945840234721
1318,362.90551782213606
1319,266.92750295320275
1320,177.4934974552989
1321,137.06145961720176
1322,157.67834797819796
1323,208.60112132841823
1324,255.93773870914993
1325,276.8151594131241
1326,270.32234298477215
1327,238.15624922046754
1328,187.1688381687418
1329,138.8400701304672
1330,117.24490565902488
1331,138.5643055604487
1332,186.73823089353027
1333,237.4826429699242
1334,270.11550335420725
1335,285.0957738639254
1336,290.5324165696129
1337,293.5373937947861
1338,292.56966811592065
1339,281.7492023623863
1340,256.21695961638943
1341,224.30590321285763
1342,203.31899673931912
1343,209.5312040357603
1344,235.7894891944452
1345,253.72181655973054
1346,235.00415072783744
1347,178.2194565466134
1348,114.04369911526646
1349,74.77984378407473
1350,75.33285615407112
1351,103.40470207670933
1352,144.34134765349972
1353,185.08075923563865
1354,215.8599034235849
1355,227.31874706663802
1356,215.62025726248703
1357,191.75240135673448
1358,169.16614694239342
1359,156.47246185936547
1360,145.18631419390113
1361,123.06667227802791
1362,83.48650468896085
1363,45.68678024849032
1364,36.348468022342786
1365,75.52253731952533
1366,143.52595769164418
1367,205.95469893219797
1368,232.36273107586112
1369,223.38502439772037
1370,194.19454941251934
1371,159.35127687385375
1372,126.23717777336788
1373,98.05922333990384
1374,77.42538503866035
1375,59.622634570292576
1376,34.70894387002318
1377,-6.2347148932858545
1378,-51.70836931808117
1379,-72.54904677108607
1380,-40.46377438828313
1381,36.65642092406233
1382,113.38151248838494
1383,143.6194738547547
1384,120.24327879980774
1385,84.22890132565044
1386,78.97731565874165
1387,118.01449624875295
1388,171.27341776741196
1389,205.41305510732673
1390,203.28638338078235
1391,175.5153779185148
1392,135.45901426848377
1393,96.3292681945959
1394,71.03911567543037
1395,72.43153290294322
1396,103.88149628112842
1397,146.70898242469138
1398,179.11296815767946
1399,185.9754305121014
1400,170.16234672652354
1401,137.53469424465038
1402,95.78645071388473
1403,58.24659398386302
1404,39.338102104978134
1405,47.23995332688082
1406,68.18412609696315
1407,83.56559905881113
1408,80.13735105066189
1409,65.9443611038223
1410,54.31960844107107
1411,56.01807247505167
1412,70.28373280664346
1413,93.15956922330497
1414,120.89756169741031
1415,150.77569038456295
1416,180.39193562189303
1417,207.59527792633162
1418,231.63369799287466
1419,252.22217669282327
1420,269.36669507200986
1421,284.7802343490048
1422,300.8027759133083
1423,318.73230132351455
1424,333.1937923054811
1425,336.1812307504588
1426,323.5965987132122
1427,318.1948784101287
1428,353.9900522173075
1429,457.17010266862417
1430,596.4920124537966
1431,715.314764416411
1432,765.1933415519597
1433,761.5027270058326
1434,749.0889040713228
1435,767.4528561875886
1436,812.0685669376262
1437,857.3680200461995
1438,880.2091993777785
1439,878.5330889344532
1440,860.6276728538251
1441,834.7139354069013
1442,807.8558609959464
1443,786.543434152356
1444,776.9816395344787
1445,782.9794619254562
1446,807.1468862310212
1447,849.632897477306
1448,889.9254808086098
1449,897.118621485185
1450,846.0083048809793
1451,759.8125164813819
1452,685.8662418809508
1453,664.7804667811351
1454,680.4351769879586
1455,688.9723584097292
1456,653.328997054703
1457,592.0660790287484
1458,550.2265905330023
1459,565.2265178615053
1460,614.9828473988255
1461,650.0645656176766
1462,627.9766590765221
1463,557.6721144171606
1464,470.7309183623056
1465,396.7090577131603
1466,350.58751934696465
1467,341.27729021454616
1468,371.4863573378543
1469,404.6227078074835
1470,388.6773287801816
1471,285.43020747636183
1472,138.08533117758816
1473,19.52368722405845
1474,-12.271736987919212
1475,19.912045991532977
1476,66.16702366330992
1477,85.82118357677882
1478,83.74351332720744
1479,78.7390005531879
1480,83.46963293405224
1481,83.41239818728718
1482,56.51828406592631
1483,-7.423721644060606
1484,-71.84763112637938
1485,-88.61545653703615
1486,-30.724210006984322
1487,54.80909635525222
1488,104.76545046092178
1489,79.33084023838364
1490,10.741253630454594
1491,-54.96032140826719
1492,-85.78589691407524
1493,-87.53748491684019
1494,-72.29609744270147
1495,-53.227746516762636
1496,-46.01444416578852
1497,-66.60220242092055
1498,-116.6840333203827
1499,-169.29294891221252
1500,-194.2359612569644
1501,-179.54708243046844
1502,-144.72932452653276
1503,-112.22869965970949
1504,-94.3712199680167
1505,-88.55589761570718
1506,-91.00674479599911
1507,-98.96377373384712
1508,-110.92099668869196
1509,-125.27542595723116
1510,-135.8930738761792
1511,-131.86195282503832
1512,-103.04507522887707
1513,-58.15145356109042
1514,-22.55610034619167
1515,-19.847028162585048
1516,-40.406249645348
1517,-50.2457774890172
1518,-19.60262445036642
1519,30.27619664879603
1520,47.403672918849225
1521,-10.974208600433485
1522,-108.48346094267708
1523,-170.11009721768733
1524,-136.97813061424768
1525,-54.22957440290702
1526,-7.55444193877338
1527,-59.46974666429924
1528,-158.21750211207382
1529,-217.06672190761856
1530,-177.93141977216055
1531,-91.25760952543897
1532,-33.15230508847071
1533,-51.25252048635048
1534,-110.39726985102425
1535,-160.55056742407305
1536,-172.06342755948936
1537,-160.81686472645288
1538,-148.7438935121072
1539,-147.97552862432076
1540,-153.78178489446327
1541,-159.85567728016213
1542,-163.2052208680634
1543,-165.22943087659132
1544,-167.56732265869414
1545,-170.4659117045967
1546,-172.76321364453906
1547,-173.19324425151444
1548,-170.00701944400862
1549,-161.0755552887158
1550,-144.95886800327025
1551,-127.27297395895948
1552,-117.74088968343312
1553,-123.91063186340853
1554,-137.63321734736746
1555,-144.01366314824645
1556,-132.25498644612162
1557,-112.0572045908848
1558,-99.47333510490807
1559,-104.56039568571578
1560,-116.34540420862777
1561,-119.26437872940733
1562,-106.09133748689965
1563,-90.199298905658
1564,-87.98828159856384
1565,-104.4583043694347
1566,-124.50338621562696
1567,-131.24554633062235
1568,-118.3978041066166
1569,-93.07317913707266
1570,-63.37369121930442
1571,-39.716360357007034
1572,-34.62020676279917
1573,-58.472250860754684
1574,-96.0765132889137
1575,-115.8030149017859
1576,-92.0297767728407
1577,-45.44082019698908
1578,-17.350166693049687
1579,-37.893838006202714
1580,-82.83785611042185
1581,-111.61124321091393
1582,-97.34702174652284
1583,-56.65821439213323
1584,-14.728844061056407
1585,9.639066092609937
1586,11.108492671607564
1587,-13.687587966809588
1588,-54.977199713203845
1589,-84.31836670826488
1590,-73.48411334510092
1591,-30.12146427151947
1592,3.5535556077074943
1593,-11.965078871389778
1594,-67.64539313421756
1595,-123.03041286982443
1596,-142.69616403309283
1597,-130.12467284691775
1598,-105.29496580436171
1599,-85.58806967079454
1600,-76.8850114860079
1601,-81.98181856632891
1602,-97.760518506685
1603,-105.32413918268139
1604,-83.38770875263253
1605,-30.26125565959137
1606,22.472191366654442
1607,41.19460330759739
1608,26.230950854049297
1609,15.092204404208132
1610,43.912334061738875
1611,105.09630963387099
1612,160.218100629535
1613,175.39867625750685
1614,154.84400542458388
1615,119.6040567337759
1616,87.90079848252208
1617,65.48819866094345
1618,54.809224950095995
1619,55.74284472027466
1620,61.71302502931576
1621,65.21973262094525
1622,64.36693392314282
1623,65.86959504653441
1624,77.04468178280149
1625,102.0831596031303
1626,142.20099365668375
1627,196.89314876909066
1628,249.40658944097413
1629,273.5022798464943
1630,250.8981838319396
1631,208.00126491432002
1632,186.56348628001433
1633,208.85281078341905
1634,236.45220094565047
1635,219.5646189532663
1636,147.51502665701173
1637,79.83038557060627
1638,81.14165686954857
1639,157.03480138996383
1640,250.2537796274728
1641,304.93355173610234
1642,316.0970775272108
1643,310.7703164684626
1644,312.55522768282935
1645,322.24076994761344
1646,332.44890169352766
1647,340.68258100377443
1648,359.6467656131945
1649,404.8214129074231
1650,475.97047992209536
1651,545.6729233420765
1652,584.7916995007317
1653,587.088764379233
1654,569.0080736058962
1655,546.3595824555596
1656,519.2162458489966
1657,478.8140183523583
1658,420.40185417666726
1659,359.3157071773303
1660,316.9725308537154
1661,302.49227834873
1662,293.73290244846885
1663,264.18635558189
1664,211.90158982052526
1665,168.84755687823326
1666,166.72320811099416
1667,195.6424945167455
1668,213.87336673524624
1669,185.9687750480025
1670,124.51466937821624
1671,61.8889992907807
1672,22.930713992324854
1673,7.011762331287173
1674,8.162092798043886
1675,17.1056535250691
1676,18.896392287152594
1677,-0.9737434983599087
1678,-36.53480677125481
1679,-62.909850828127674
1680,-57.45992932198078
1681,-21.875096261804174
1682,30.294593987900043
1683,83.74508670765135
1684,116.8003268235434
1685,106.41725890786347
1686,52.753827179757536
1687,0.2769755059371164
1688,-3.703352598573474
1689,38.06578603037542
1690,73.25833420690833
1691,53.97723439602214
1692,-10.70957128545706
1693,-82.68714106788684
1694,-130.33953352774915
1695,-148.6348075865526
1696,-139.09602250969328
1697,-108.90123790523648
1698,-75.82551372268517
1699,-57.99491025165935
1700,-55.694488120550886
1701,-52.29530829511259
1702,-33.69043207699815
1703,-10.908921102242857
1704,-6.85583733970816
1705,-33.466243089445925
1706,-64.12020098103494
1707,-64.08377397184086
1708,-22.480025345237664
1709,32.3939812912422
1710,69.88918200779426
1711,80.82651255430392
1712,73.39490836235473
1713,54.99430454729463
1714,24.95263591035655
1715,-20.51016305914709
1716,-79.68215818159297
1717,-135.81441558474762
1718,-169.88200170140226
1719,-174.6569832669611
1720,-158.01242731695493
1721,-128.33940118451392
1722,-88.72997249776017
1723,-39.0352091771465
1724,15.99382056725426
1725,49.86204823854678
1726,30.316405055848918
1727,-43.43317804279013
1728,-111.7027703974336
1729,-111.45944162320575
1730,-48.72226160720038
1731,8.587699494682056
1732,2.641371260961023
1733,-41.83131699212299
1734,-66.3564362072575
1735,-34.762057582628586
1736,27.29874743156779
1737,83.89390713668399
1738,109.91934958924594
1739,93.55800260464912
1740,28.557793760914137
1741,-45.59134959747735
1742,-63.87150035569084
1743,11.979268375432184
1744,119.01588326341516
1745,171.3992707582447
1746,136.73535709655607
1747,66.95406830588217
1748,18.429330208970896
1749,7.213068428180122
1750,20.985208389940453
1751,46.502675329297745
1752,69.08439429451573
1753,73.67029015176468
1754,53.41628758988463
1755,17.223311125208056
1756,-23.99971489352447
1757,-55.730866280187
1758,-60.440219006202824
1759,-27.013849195414878
1760,18.98116688112532
1761,39.24375281044922
1762,16.002832043040144
1763,-23.597672101732314
1764,-47.92283643007977
1765,-55.16073786820198
1766,-71.0494534565978
1767,-114.07106034431217
1768,-151.1436357830935
1769,-129.54625712146935
1770,-32.30800179874768
1771,73.8710526610621
1772,113.17382865542822
1773,73.31924850952873
1774,3.2452344825933324
1775,-50.62429122568665
1776,-74.33940646865994
1777,-66.66118914613526
1778,-31.160717197709346
1779,17.41193140397536
1780,63.06167866008218
1781,97.91244655248829
1782,121.7541570508065
1783,133.66573211947343
1784,126.59909372494167
1785,91.28016384294642
1786,34.31286446586728
1787,-2.8878823898239716
1788,22.698845323980095
1789,97.59296969464322
1790,159.00541285651252
1791,155.94609699871853
1792,110.57594437308126
1793,69.4868773021035
1794,60.98881818704649
1795,77.98368951611337
1796,108.57041387271875
1797,129.86191394384696
1798,110.64411252850641
1799,33.83093254629421
1800,-53.35870295397308
