800,151.3225178466364
801,94.1022753672678
802,56.62586377594198
803,42.01343540909693
804,41.41514263882709
805,45.87113787406997
806,48.321573561745026
807,48.43660218785044
808,47.326376278550015
809,46.101048401202206
810,45.430771165400074
811,45.51569722394379
812,46.47597927378956
813,48.771770056990135
814,55.263222361603766
815,69.92048902252645
816,96.73372292237764
817,135.48307699227917
818,175.3487042126526
819,203.8707576139659
820,209.22939027746907
821,192.9447553358823
822,168.75700597407922
823,150.89629542970397
824,150.21277699381972
825,160.0766040114613
826,168.1579298822162
827,162.2469080607516
828,138.6336920573085
829,108.25843543819246
830,83.49129182621436
831,75.65241490111839
832,84.50195839997832
833,102.61007611756395
834,122.45692190669433
835,137.49264967853924
836,144.39741340293222
837,140.49136710861785
838,123.2346648834955
839,94.62746087483902
840,61.52990928948202
841,31.102164393983912
842,9.184380514752775
843,-5.973287961811366
844,-18.960686589261968
845,-34.33766086102696
846,-51.5740562103656
847,-60.69971801036809
848,-50.714491573959094
849,-12.208222153927636
850,46.21924505699826
851,104.47806492607924
852,142.27839238046
853,147.62038240702896
854,134.54419005227464
855,122.24997042209179
856,129.11787868159263
857,155.03807005488306
858,180.95069982481073
859,186.92592333268476
860,158.57389597800466
861,110.71477321812381
862,67.7887105679165
863,53.97586359942579
864,76.59638794146667
865,116.26043927923274
866,151.24817335385706
867,162.1697459619736
868,150.0553129552336
869,126.51503023983423
870,103.23905377597657
871,88.53753957735898
872,82.69064371058994
873,84.77852229464042
874,93.78133150021677
875,107.01922754917541
876,120.59236671384315
877,130.56090531638984
878,133.6349997281286
879,128.9548063688162
880,116.21048170594077
881,95.28218225397723
882,71.74006457361793
883,57.27428527099437
884,63.85500099689125
885,98.95236844589999
886,146.34654435559605
887,182.1176855056874
888,182.74594871711633
889,146.07149085117453
890,101.29446880858995
891,80.11503952857856
892,108.61335998791583
893,171.60958719992595
894,235.40387821354125
895,266.3663901122527
896,251.25728001310745
897,216.52670506564755
898,193.20482245086714
899,208.7417893801212
900,253.89776309402623
901,297.91290086135086
902,309.7973599778852
903,274.0612977652836
904,214.30487156991148
905,160.12823876164475
906,139.26155673269204
907,153.17498289634932
908,183.97867468579352
909,213.3327895528255
910,228.8974849665883
911,237.32291841231017
912,249.00924738997674
913,273.6966294130507
914,308.9352220071123
915,341.4851827085331
916,357.6866690630959
917,347.1698386246444
918,312.08484895366746
919,257.5918576158947
920,189.1510221808894
921,119.4525002205919
922,68.72644930788556
923,57.533027015113475
924,99.34239091260497
925,175.66469856718504
926,259.02010754064577
927,322.4087753882486
928,354.4908596571531
929,362.22651788490475
930,353.60590759781553
931,335.64918630943794
932,310.25651151893726
933,277.7380407094897
934,238.48393134666912
935,197.04434087680784
936,163.2394267253494
937,147.2593462951845
938,156.04425696498583
939,178.64431608752238
940,197.9696809879497
941,197.1905089621032
942,172.1969572747821
943,136.13918315800402
944,103.34734380925329
945,86.0615963897435
946,84.11209802261146
947,92.89900579115783
948,107.75247673704143
949,122.93266785847663
950,131.11973610840323
951,124.88383839266862
952,99.5651315681771
953,66.6937724410418
954,43.729917764720085
955,47.7537242381386
956,79.51534850380085
957,117.24494714588945
958,137.52267668838613
959,121.98869359311175
960,81.41315425783068
961,36.80621501429778
962,8.878032126311155
963,4.0287617877602315
964,9.698560120654292
965,11.967583173131061
966,0.14598691749233694
967,-19.436072751806933
968,-34.748440020168346
969,-34.10095915486636
970,-17.613474507048522
971,-0.08583051382265694
972,2.7721282997554226
973,-20.639442681405853
974,-62.04038816447792
975,-107.08055295080158
976,-141.68978193794464
977,-159.21792012179503
978,-161.29481259866952
979,-150.0303045673918
980,-127.94424133143912
981,-99.43646830102625
982,-69.41683099525471
983,-42.7151750442481
984,-23.451346191290213
985,-14.90519029497409
986,-20.386553331361938
987,-40.90528139616072
988,-69.31122070687707
989,-96.61421760501071
990,-114.23411855824816
991,-120.43077016263487
992,-119.25401914479517
993,-114.90371236413012
994,-110.32969681504619
995,-104.66181962914925
996,-96.34992807751223
997,-84.03386957286239
998,-69.00349167185959
999,-54.368642077321056
1000,-43.26916864048326
1001,-38.114919363257286
1002,-39.56574240048576
1003,-48.02148606222363
1004,-63.89199881600507
1005,-86.53712928912864
1006,-108.21672627094813
1007,-118.28063871513768
1008,-106.278715742028
1009,-73.31080664087858
1010,-36.99676087219086
1011,-16.226428070023758
1012,-24.989658044300086
1013,-50.55630078314789
1014,-71.12620645519928
1015,-65.5592254119365
1016,-33.88520819002406
1017,-0.9740055136371666
1018,6.854531703182147
1019,-27.83944764581429
1020,-84.88579486142771
1021,-134.2143614413726
1022,-147.01499908263213
1023,-120.63755968381884
1024,-76.63189534753838
1025,-37.4978583827633
1026,-19.075301307204427
1027,-16.334076849670964
1028,-20.14403795247199
1029,-21.855037773784716
1030,-19.586929690032775
1031,-16.159567298289403
1032,-14.512804418653104
1033,-15.286495096637736
1034,-13.95049360559824
1035,-5.284654449074878
1036,14.911167636755636
1037,41.75711768071233
1038,65.78334047418684
1039,77.57998056874749
1040,74.28718227372883
1041,63.49508965381392
1042,53.733846526640264
1043,52.11359646036726
1044,57.774482771270414
1045,67.1466485213241
1046,76.68023651578551
1047,84.32538930077499
1048,89.69224916084386
1049,92.46095811658051
1050,92.65165792214975
1051,91.44449006290779
1052,90.26959575295405
1053,90.45711593270971
1054,91.56719126649841
1055,91.90996214012011
1056,89.77556865841143
1057,85.44415064283749
1058,83.53584762905666
1059,89.2307988644825
1060,106.47914330587264
1061,129.85101961690452
1062,149.59656616572283
1063,156.1759210225373
1064,147.75922195717794
1065,132.93660643669136
1066,121.01821162289707
1067,117.80417436995594
1068,114.08463122196736
1069,96.719718410528
1070,54.079571852314984
1071,-0.6956728533350542
1072,-34.465880426843796
1073,-13.550915910835101
1074,71.59935532748932
1075,174.39506759389224
1076,240.16635486469931
1077,223.2233507844012
1078,146.30618866320037
1079,63.64500147464787
1080,28.719921853193227
1081,56.91108209179765
1082,114.1986141395264
1083,163.22264959913264
1084,176.25331972467393
1085,162.4607554190934
1086,139.84508723184263
1087,125.20644535645988
1088,119.21495962820154
1089,111.14075952164421
1090,90.06397414829007
1091,53.82473225418835
1092,17.113162217554418
1093,-3.4406079536129255
1094,4.733549376087467
1095,30.49576146709842
1096,54.17615520252184
1097,56.73485708575936
1098,32.961993238142895
1099,-8.642310603423539
1100,-59.02792908881929
1101,-109.0147372570591
1102,-149.13261053865244
1103,-169.85142475794237
1104,-163.71105613544023
1105,-139.63138129018262
1106,-114.5522772420536
1107,-105.0636214141141
1108,-114.675291634936
1109,-130.44716614091521
1110,-138.3491235786114
1111,-129.26104300702355
1112,-110.57280389993684
1113,-93.23428614820114
1114,-87.1753700620502
1115,-92.11593637338592
1116,-101.78586623806768
1117,-109.88504123820712
1118,-113.3733433844427
1119,-114.03065511821296
1120,-114.03685931404107
1121,-115.45183928178085
1122,-119.88547876889243
1123,-128.83766196269426
1124,-143.40827349260326
1125,-159.5671984323999
1126,-170.00432230243678
1127,-167.44953107190122
1128,-152.92271116102347
1129,-140.64374944331394
1130,-146.03253324776233
1131,-179.28895036105132
1132,-228.98288902977583
1133,-278.0342379626218
1134,-310.30288633256714
1135,-320.9887237790608
1136,-312.8016404102109
1137,-288.64152680494954
1138,-252.65827401520073
1139,-211.08177356804663
1140,-170.2719174678641
1141,-136.32859819849364
1142,-114.20170872534982
1143,-108.55114249759026
1144,-123.22679345020879
1145,-153.33855600617062
1146,-188.5663250785201
1147,-218.5299960724824
1148,-236.2694648875713
1149,-239.68462791966158
1150,-227.03538206308804
1151,-199.50162471271142
1152,-168.25325376598994
1153,-146.6601676250375
1154,-146.44226519868062
1155,-164.38944590448773
1156,-189.31160967082178
1157,-210.08865693887856
1158,-220.41048866467645
1159,-219.6970063210956
1160,-207.71811189986693
1161,-186.39370791358306
1162,-163.52369739767892
1163,-147.91798391241173
1164,-146.59647154483173
1165,-154.31906491075097
1166,-160.7556691566915
1167,-156.25618996184494
1168,-145.2605335399876
1169,-145.18860664143358
1170,-173.85031655493367
1171,-232.9155711096064
1172,-291.5542786768292
1173,-315.04634817212536
1174,-279.131689057067
1175,-208.59021134113027
1176,-142.5418255835848
1177,-116.63644289532749
1178,-125.17397494073339
1179,-135.48433393950836
1180,-115.03743266851598
1181,-58.99318446356847
1182,-0.4315032212816732
1183,24.787696599172705
1184,-4.315500025762958
1185,-64.6010086857932
1186,-124.78874553853348
1187,-157.37862731129098
1188,-160.67057130279318
1189,-143.71449538494744
1190,-115.47031800455625
1191,-81.99795818505663
1192,-46.877335528201
1193,-13.618370215779578
1194,12.549016988692529
1195,23.364904738304176
1196,10.23937110107181
1197,-29.62750644170228
1198,-77.33565099709631
1199,-108.85498626219851
1200,-103.46543652573564
1201,-68.5269266696705
1202,-25.489382170833778
1203,4.647270897508861
1204,14.133105864051686
1205,8.408195457897818
1206,-6.497388193005463
1207,-25.403573563435202
1208,-44.73028973239707
1209,-61.09746638467732
1210,-72.13503381234841
1211,-79.5829229162664
1212,-86.24106520757414
1213,-94.30939280917846
1214,-101.03783845720864
1215,-101.10633550248713
1216,-89.43481791196973
1217,-67.38322027017603
1218,-42.591477780615605
1219,-22.96952626719394
1220,-11.937302175610967
1221,-4.574742574752236
1222,4.988214841941954
1223,20.501631755121707
1224,37.885569218164164
1225,51.240087655847674
1226,55.465246863012
1227,51.13110600327309
1228,41.46772360769501
1229,29.66515757351044
1230,18.623465162861976
1231,10.932703001521077
1232,9.192927077629065
1233,15.494192740494327
1234,31.14655469934587
1235,57.400067022110306
1236,92.54478313423715
1237,126.45075581749916
1238,147.4680372088278
1239,147.58667879913992
1240,138.89673143220898
1241,140.4082453035153
1242,168.9312699591319
1243,216.57585429462415
1244,259.96204655394286
1245,276.1398943283548
1246,260.5594445553652
1247,228.8907435176825
1248,197.8238368421462
1249,178.96876949873695
1250,174.24558579953919
1251,184.45432939774582
1252,207.78504328668168
1253,233.39776979881935
1254,248.50255060482777
1255,243.46942671263423
1256,228.8484384664771
1257,223.1896255460033
1258,243.09302696536724
1259,280.66868107232585
1260,311.3666255473854
1261,311.1368974029301
1262,281.0995329823727
1263,251.0245679593354
1264,252.0820373368224
1265,293.5419754464165
1266,343.0644159474941
1267,363.6593918264607
1268,332.1969353959721
1269,270.78707829420273
1270,210.7098514841109
1271,178.89528525272362
1272,177.13340921043527
1273,198.40425229032735
1274,235.4278427474801
1275,278.68420815833633
1276,317.3633754200491
1277,340.8853707498547
1278,344.23021968445755
1279,327.5979470794464
1280,291.4985771086958
1281,241.05213326381454
1282,188.26863835358017
1283,145.70811450341716
1284,121.31058315485643
1285,111.81606506505523
1286,112.35458030628433
1287,117.93614826545308
1288,123.21078764367667
1289,122.73851645579816
1290,112.7193520299752
1291,100.01331100727293
1292,95.73040934124947
1293,109.96066229759344
1294,140.54408445374065
1295,177.71068969853332
1296,211.79049123187906
1297,237.9735015644419
1298,256.0797325173262
1299,266.13919522180004
1300,270.01190011901053
1301,272.1978569597486
1302,277.3570748041893
1303,287.40956202167763
1304,298.26532629053145
1305,305.09437459782384
1306,305.44671323923103
1307,304.9723478188662
1308,310.9512832491364
1309,328.203523750617
1310,348.7890728519433
1311,360.70793338970907
1312,353.9001075083979
1313,334.0855966603249
1314,314.49440160558515
1315,307.22652241202195
1316,308.5519584552276
1317,303.67070841854365
1318,278.4927702930818
1319,240.07814137775676
1320,216.5668182793579
1321,236.46879691260074
1322,301.0840725002363
1323,373.47263957314135
1324,413.95449197044945
1325,403.11962283968205
1326,361.93802463691463
1327,316.1596891269437
1328,285.74460738348716
1329,274.1627697893673
1330,282.00416603676786
1331,308.108785127446
1332,344.24661537300926
1333,380.39764439518876
1334,407.7518591261305
1335,424.839245808691
1336,432.8297899967911
1337,433.0534765557477
1338,427.9402896626252
1339,420.5202128066394
1340,413.59322878953026
1341,406.9693197259894
1342,398.4784670440895
1343,386.15065148573194
1344,373.2958531071163
1345,367.9940512792218
1346,378.09522468830255
1347,398.2093513364289
1348,407.13640854200094
1349,383.1563729403151
1350,328.89922048413246
1351,285.1649264442749
1352,295.8634654102225
1353,373.36481129075037
1354,465.3889373145703
1355,511.78581603098064
1356,479.1554193105676
1357,405.9077183458812
1358,342.4026836521534
1359,324.18028506805786
1360,334.4904917564145
1361,345.12327220501174
1362,334.7285942273411
1363,313.7264249634409
1364,301.63673088070937
1365,314.9694777747427
1366,351.9346307701944
1367,403.9921543216533
1368,460.93201221454547
1369,499.7641675660434
1370,491.5285828260003
1371,412.8452197779043
1372,297.75403953984096
1373,213.69500256549145
1374,222.78806864511716
1375,309.8531969066171
1376,404.47034581654407
1377,438.4194731811767
1378,404.53053614759483
1379,348.47349120478793
1380,316.2082941847548
1381,318.634900263658
1382,330.17326396296085
1383,324.25333915061856
1384,297.89507904224956
1385,277.3184362023567
1386,290.00336254555987
1387,336.95980933782994
1388,380.4777271977655
1389,380.1470660978739
1390,325.24777536587317
1391,255.9798036860193
1392,217.42309910044605
1393,231.24760901051195
1394,272.39328017819935
1395,310.2300587274967
1396,325.9778901458285
1397,328.46671928546857
1398,330.45649036502437
1399,338.1971469708824
1400,340.5186320587127
1401,323.3408879549879
1402,280.80385635849416
1403,232.4674783418959
1404,202.7716943532996
1405,208.34644421784105
1406,238.24166713928025
1407,275.43730170165327
1408,305.28328587088436
1409,322.46955699648606
1410,323.97605181319705
1411,309.47270644272794
1412,290.35945639546117
1413,281.30623657217984
1414,292.8929812658571
1415,315.2396241634124
1416,332.2360983475064
1417,330.9023362983844
1418,315.5782698956882
1419,296.4238304203136
1420,282.8889485562977
1421,279.9835543927111
1422,291.1075774255605
1423,318.210946559735
1424,354.17359011094777
1425,388.2554358077232
1426,410.9664107933586
1427,421.31644162797784
1428,421.855454290524
1429,416.34337418082396
1430,416.97012612166145
1431,439.69563436086355
1432,495.8198225733904
1433,560.9626138634994
1434,594.2839307668582
1435,562.7936952527252
1436,496.97182872613666
1437,457.5882520301111
1438,496.0628854478764
1439,584.7556487051024
1440,657.2864609721801
1441,655.8852408665007
1442,597.2719064547655
1443,535.3263752552848
1444,518.488564240346
1445,546.8583898385787
1446,596.2457679373074
1447,643.790613884983
1448,679.6528424935896
1449,700.5223680410872
1450,703.2291042738761
1451,685.452964409269
1452,645.253861138006
1453,582.9717066267585
1454,517.2564125206754
1455,475.7678899459406
1456,481.11604951235677
1457,515.3608013159464
1458,541.2820549415483
1459,526.7697194654866
1460,479.94370345820244
1461,427.4439149869577
1462,392.36026161849804
1463,371.70265042180836
1464,350.95098797081846
1465,318.3951803471791
1466,281.5051331430259
1467,255.79075146379182
1468,253.24193993099834
1469,263.49860268512384
1470,267.3906433884258
1471,248.62796522784083
1472,208.10047091787055
1473,152.90806270349822
1474,92.67064236312581
1475,50.448111211515425
1476,53.830370102792585
1477,118.21731943340819
1478,199.03885914517923
1479,233.3948887283059
1480,176.56530722443676
1481,64.5300132297325
1482,-44.43109510203067
1483,-103.76812005635111
1484,-113.51116435487165
1485,-85.14033115221719
1486,-32.865724032833896
1487,19.672552992218698
1488,46.774395488466325
1489,34.46969860125864
1490,4.918357059032132
1491,-12.799734823434846
1492,-1.624683141719288
1493,23.19340560155797
1494,41.05442450006376
1495,39.43826624710164
1496,24.634823138983847
1497,5.623987078437494
1498,-6.714350422002099
1499,2.3497017634417716
1500,47.766034377251344
1501,122.44453778207026
1502,181.34510196421797
1503,176.43761653716683
1504,103.69197074510157
1505,23.86805346645633
1506,1.3657532174966036
1507,42.744958155888526
1508,82.1355560843349
1509,51.907434454178656
1510,-42.929519630914
1511,-120.68541941131662
1512,-100.70037846773448
1513,9.235489282491471
1514,123.11206958913499
1515,158.18924787281503
1516,115.70690922876929
1517,58.53493843064825
1518,45.003219934311346
1519,69.81163788167214
1520,89.27007610453074
1521,65.86841812845523
1522,16.486547176655222
1523,-15.325653826103007
1524,4.421697750432941
1525,48.348484245945656
1526,65.15458771351041
1527,18.289889923586088
1528,-55.91572763198019
1529,-98.82238373592008
1530,-71.13019744152007
1531,-6.799288068526948
1532,42.89022480091262
1533,43.70822132637477
1534,10.984581413269552
1535,-31.010815283008924
1536,-65.95808935292553
1537,-95.30736162860921
1538,-122.79875317965707
1539,-145.62238530891227
1540,-149.64837954822178
1541,-120.20685765417329
1542,-65.377941603816
1543,-23.361753590352237
1544,-32.4884160188285
1545,-84.27805150178574
1546,-122.77078285490643
1547,-94.52673309263628
1548,-17.316025423764586
1549,36.10121675295704
1550,0.5648698532786511
1551,-96.83518988808464
1552,-175.3490864130108
1553,-167.2369438354308
1554,-101.37888643684528
1555,-48.105038661777144
1556,-60.705525113216936
1557,-106.95047054805036
1558,-128.11999987246236
1559,-88.05423813733069
1560,-29.72331053358721
1561,-13.367342387567987
1562,-68.8264591563493
1563,-150.75078642303743
1564,-202.7004498920869
1565,-198.9555753845525
1566,-168.12628883334764
1567,-143.88271627847098
1568,-140.8049838622337
1569,-149.3732178244336
1570,-158.88754449755106
1571,-165.94809030188662
1572,-173.7949817407116
1573,-185.18834539537238
1574,-194.4183079204031
1575,-190.42499603859687
1576,-165.61853653605613
1577,-138.93905625725347
1578,-141.17668210004194
1579,-191.27154101065207
1580,-250.8737599786873
1581,-264.45346603208964
1582,-201.37078623206799
1583,-109.97584766804175
1584,-54.07877745255064
1585,-65.3697027161179
1586,-107.9587506021544
1587,-137.79604826178183
1588,-132.69172284868546
1589,-101.53590151391109
1590,-55.83871140066731
1591,-12.470279639099317
1592,6.46926665895262
1593,-18.490199594782098
1594,-73.80880545972832
1595,-124.55667796115085
1596,-140.3739440848567
1597,-125.42073077184978
1598,-98.43716491296436
1599,-75.8033733435077
1600,-63.21948283785605
1601,-63.57562010404945
1602,-75.96191177835135
1603,-89.38848441981827
1604,-91.33546450481117
1605,-79.21297842152671
1606,-67.40115246447931
1607,-71.25011282898959
1608,-88.3199856056417
1609,-96.67089677471449
1610,-75.80297220060856
1611,-37.686337626262684
1612,-17.181118667520423
1613,-41.92744080749617
1614,-83.0154293909527
1615,-86.53520961858703
1616,-17.986906541387725
1617,73.8593549451034
1618,118.08345010649828
1619,78.77525437531949
1620,8.484643356741799
1621,-27.13850716561865
1622,-4.634321223908046
1623,34.447077339791576
1624,44.955564879262965
1625,22.751017950029564
1626,2.7233133152294613
1627,17.23232795147851
1628,56.50793905479077
1629,86.29002404649691
1630,80.35846057918025
1631,58.773126542644604
1632,57.523900069880256
1633,96.0506595430652
1634,142.41328359956606
1635,154.9216511379709
1636,117.04564132414998
1637,57.4151335972947
1638,9.010007676020905
1639,-5.759856435544862
1640,24.32542155835654
1641,106.37572225124859
1642,207.68092654058273
1643,270.44091563388065
1644,251.04557105495405
1645,190.4647746500832
1646,159.98840859424854
1647,199.916355397374
1648,253.97849791056797
1649,247.75471933241897
1650,160.99490321525445
1651,67.11893347149089
1652,45.71669437991113
1653,103.30807059204562
1654,174.0629471385073
1655,195.85120943537913
1656,173.20274329059612
1657,148.0874349103742
1658,152.78517090561945
1659,170.0958382983681
1660,167.7993245282778
1661,131.83551745906516
1662,94.30430538502878
1663,93.81557703754333
1664,137.11922159160167
1665,186.92512867234473
1666,204.9231883616303
1667,186.1932912046159
1668,151.39532821633657
1669,120.73919088833463
1670,106.88477119527124
1671,119.4319616015855
1672,158.40065506813153
1673,192.03074505888253
1674,182.27212554760627
1675,122.004691024571
1676,57.37833650328503
1677,37.44295752722792
1678,62.158450176619226
1679,86.2447110751691
1680,68.8816373968948
1681,19.979126872915003
1682,-25.8229222017344
1683,-42.61461096124913
1684,-39.23603996220845
1685,-32.82730917671324
1686,-34.58851798548494
1687,-44.26976517098046
1688,-60.241148910452466
1689,-78.84276676904301
1690,-94.39471569281704
1691,-101.55709200181082
1692,-99.02999138302403
1693,-87.49350888346271
1694,-70.55773890310411
1695,-62.98277518787654
1696,-82.10871082261656
1697,-128.1556382240069
1698,-169.113649133511
1699,-170.92283461029
1700,-131.94328502408462
1701,-81.24509004809806
1702,-46.28833865188062
1703,-31.803119094165595
1704,-31.86951891569879
1705,-39.367624932083345
1706,-43.36752322655775
1707,-32.26929914281391
1708,-7.153037277754265
1709,10.121178525745563
1710,-2.846734813929288
1711,-45.60685960983756
1712,-99.16927739921266
1713,-146.1340689361714
1714,-182.2313141843897
1715,-208.26109230978545
1716,-222.93348167317163
1717,-219.1585598228994
1718,-189.30640348748784
1719,-142.10708856825295
1720,-107.21069013189117
1721,-112.49728240307013
1722,-151.07693875700897
1723,-194.7097317120424
1724,-220.02573292213492
1725,-226.73501316944566
1726,-220.84764235682815
1727,-204.27368950032906
1728,-170.97322272168822
1729,-115.18630924080935
1730,-52.84301536820749
1731,-19.333406497486067
1732,-42.53754709773057
1733,-95.15550070596328
1734,-127.31732991952413
1735,-108.06309638848143
1736,-58.662860807999095
1737,-9.156682910703239
1738,18.44537854095688
1739,11.993265762388546
1740,-36.8630780454896
1741,-105.4937086885493
1742,-153.9686809717532
1743,-152.9180486914338
1744,-113.24186462758553
1745,-55.28018053609412
1746,0.41695285898822476
1747,33.019485873226586
1748,23.92736986957243
1749,-15.449442733835895
1750,-52.54099845587007
1751,-62.23734274459639
1752,-57.01851996945152
1753,-60.43457341337671
1754,-84.64554526500433
1755,-119.97147661073723
1756,-154.37240742690483
1757,-178.32837657187156
1758,-184.42942177810437
1759,-166.77557964427615
1760,-127.99688562733718
1761,-73.69337403456484
1762,-13.755078015612526
1763,32.64797044545594
1764,46.01574053814875
1765,26.118202633520923
1766,-9.47467170780692
1767,-43.91290972763454
1768,-69.15653746218231
1769,-80.50557973402101
1770,-76.81006014404556
1771,-65.1900010633999
1772,-53.64542362542488
1773,-43.666347717555254
1774,-30.46279197323929
1775,-10.944773763820194
1776,5.587690809566993
1777,5.034586924133691
1778,-16.064098956429007
1779,-36.13837907379275
1780,-31.108264366843287
1781,-0.7137644634858589
1782,32.84511232751356
1783,48.73835902473547
1784,40.19596998231282
1785,5.727940898135785
1786,-43.59573117790205
1787,-69.21504783568344
1788,-32.0500092966231
1789,49.20938559459864
1790,105.44313937831976
1791,82.97125598814273
1792,21.023740759241264
1793,-10.21939956334063
1794,20.151843183624806
1795,67.09747858985065
1796,80.08751767988906
1797,55.691972921444176
1798,26.18085823374713
1799,17.054188995896766
1800,19.351982055239205
