800,158.69930660451064
801,147.68664936299683
802,146.9347604582399
803,155.1838833031361
804,163.44426082220707
805,162.5861354471599
806,146.5997491125072
807,120.26534325121429
808,90.71315879038957
809,64.97343614703459
810,47.71641522380014
811,40.64233540481291
812,45.27143555152725
813,62.42395399864108
814,87.52012855000794
815,113.45019647463414
816,133.10439450268132
817,141.44295882154256
818,138.75612507192454
819,126.12412834399038
820,104.86720317352956
821,80.57558353818604
822,62.79950285369887
823,61.23919397019927
824,82.26488916854214
825,115.0568201566748
826,143.1352180660415
827,150.18031344803057
828,129.302336270468
829,89.85151591411159
830,42.76808116923894
831,-1.1877397677762929
832,-33.29571929782651
833,-46.12563042239708
834,-32.27724674687124
835,10.459657516230436
836,67.4153075440172
837,120.53992790003758
838,152.2637425311441
839,157.2669747643722
840,143.66984730387412
841,120.21258222785764
842,94.80540098560232
843,70.1285243944767
844,46.9021726369956
845,25.84656525794344
846,8.571921161475984
847,-1.721541391680148
848,-1.6736047870472248
849,11.63594794085111
850,35.8973331057623
851,65.46076636700491
852,94.61646272680264
853,117.97463652767146
854,131.10550144981244
855,129.75927050855898
856,110.13615605183804
857,78.31636975768743
858,50.53012263178607
859,43.457625005026784
860,69.08908653111757
861,114.40471618420997
862,158.18472225658843
863,179.4193123563473
864,171.1086934051109
865,148.40307163584293
866,128.3926525905863
867,126.37764111832439
868,141.73824137281736
869,165.60465681050482
870,189.07709018840615
871,206.67574356209298
872,221.15081828363145
873,236.46251499963546
874,256.2110336492751
875,278.7965734623576
876,298.6093329574287
877,309.9795099398889
878,308.9773015001756
879,298.09290401192993
880,281.23651313021765
881,262.2883237897895
882,244.46853020334675
883,230.26732585983336
884,222.16490352280198
885,221.5014552287339
886,223.85717228546855
887,222.92224527059443
888,212.5368640298966
889,194.63121767585108
890,183.0254945861052
891,192.47988240201812
892,234.404568027212
893,295.23973762615424
894,350.2855766227767
895,374.9022696991142
896,359.11000079394944
897,321.48895310153785
898,283.87930907029113
899,266.3212504015464
900,269.8949580483222
901,284.5906122141314
902,300.23839235178457
903,309.468477162256
904,311.861044593541
905,308.07627183957084
906,298.97433533912954
907,288.1454107748068
908,281.19967307197294
909,283.79729639777725
910,299.03845416017975
911,322.0733190069968
912,346.4220628249677
913,365.79485673886666
914,376.8618711106192
915,378.9132755384471
916,371.33923885604963
917,353.6499291317814
918,325.82551366789266
919,287.96615899974313
920,240.4820308950948
921,191.67329435338615
922,158.0701136050502
923,156.562652110837
924,197.601072561185
925,262.69553687560256
926,325.2162062020525
927,359.10324091639995
928,356.7268006218419
929,332.0370441483901
930,300.19412955234657
931,273.6482141158467
932,250.96945434635563
933,226.34800597625508
934,194.16402396240665
935,155.89766248576962
936,122.1890749509912
937,104.27841398607598
938,110.44583144203898
939,132.62147839258796
940,157.13550513383234
941,170.53806118400462
942,169.31929528320143
943,163.489355393167
944,164.0083886970533
945,179.00654159925216
946,200.12395972520244
947,213.06078792124026
948,203.7671702544685
949,169.78325001264602
950,124.77916970406841
951,83.60507105752913
952,58.72109502222338
953,48.467381767739425
954,46.08407068401357
955,44.89130038136318
956,43.11920869046662
957,45.787932662420644
958,58.377608568802316
959,84.1383719017249
960,113.55035737392973
961,132.5236989189143
962,127.27852969103697
963,97.09498206567514
964,58.483187639385505
965,29.183277230078602
966,23.325380877226053
967,35.67962784206247
968,54.586146607827686
969,68.53506488001403
970,71.62650958663107
971,65.02060687847916
972,50.2374821294743
973,29.32725993692111
974,6.510064121892356
975,-13.263982270447741
976,-25.244756970487288
977,-29.532138483762537
978,-31.636006090569936
979,-37.386239845567616
980,-50.62272057732844
981,-66.80532988789855
982,-79.15395015235117
983,-81.10846451828911
984,-71.04875690538574
985,-52.18471200484419
986,-27.96621527890784
987,-2.983152960308871
988,13.90458794829101
989,12.897119674837086
990,-14.875446321513664
991,-62.61299934980889
992,-110.28542948669019
993,-137.49262757577708
994,-132.02448522701525
995,-105.91089481604286
996,-75.66174948351545
997,-56.76694313443113
998,-51.67637043743707
999,-53.80992682411852
1000,-56.37750848830365
1001,-55.33901238528597
1002,-53.04433623112345
1003,-52.77337850185904
1004,-57.83603843274432
1005,-70.5622160174662
1006,-86.9318120073367
1007,-100.3447279104912
1008,-104.29086599106813
1009,-98.61012926836338
1010,-92.27242151597966
1011,-94.9676472609899
1012,-113.25571178302926
1013,-136.75652111343516
1014,-149.38998203434676
1015,-135.53600207778618
1016,-95.53448952475446
1017,-48.4853534042777
1018,-14.538503492476593
1019,-8.973850311616843
1020,-26.311305129125685
1021,-55.61077995663254
1022,-85.93218754896043
1023,-106.61544140313708
1024,-107.24045575738637
1025,-77.42714559009619
1026,-14.205426618789716
1027,61.95478470091257
1028,125.943571176349
1029,154.4210148789025
1030,147.00719714503975
1031,119.44219857742428
1032,87.766099045999
1033,62.99897768910341
1034,44.690912914575165
1035,30.7919824008859
1036,19.512263098271433
1037,11.301831229886375
1038,7.710762292952495
1039,10.329131059914289
1040,19.57701157963311
1041,34.144477178548186
1042,52.53160046189623
1043,73.08845331488737
1044,93.30510690392475
1045,110.34163167783663
1046,121.46809736909017
1047,126.22457299502457
1048,126.64112685912005
1049,124.87782655223782
1050,123.1347389538787
1051,123.74193023346561
1052,129.05946585161837
1053,140.9474105614463
1054,154.785828409842
1055,161.18478273878645
1056,150.7043361866581
1057,121.34455068956413
1058,87.42548748266199
1059,65.41720710149639
1060,68.95976938334024
1061,90.17323346855301
1062,111.39765780193375
1063,115.23310013409537
1064,98.24961752282798
1065,75.78726633448969
1066,64.55610224538941
1067,76.29618024318006
1068,102.05755462827437
1069,127.36027901523084
1070,138.61440633419625
1071,135.79998883230292
1072,129.89707807511877
1073,132.20572494807493
1074,146.65597965790585
1075,160.0778917341031
1076,156.8515100303648
1077,124.57688272606174
1078,75.55405732771396
1079,33.47308067043923
1080,21.603998919459627
1081,44.27685757157815
1082,81.2217014566595
1083,110.55857473914148
1084,116.49752091953633
1085,106.92858283593523
1086,95.35180266552197
1087,94.42722192609654
1088,105.46488147760283
1089,121.7148215236557
1090,136.25708161306648
1091,144.0517006414084
1092,143.68871685253907
1093,134.14816784016875
1094,114.8800905494063
1095,88.07452127832585
1096,56.911495679525615
1097,24.611048761709753
1098,-4.906785108747499
1099,-26.98197220621114
1100,-36.914479444207245
1101,-33.48427437383543
1102,-24.67132518217295
1103,-19.98560069067753
1104,-27.747070353578238
1105,-46.54570425627935
1106,-70.29147311374982
1107,-92.9743482688973
1108,-111.86430169095911
1109,-128.4113059738902
1110,-144.3153343347076
1111,-159.94636061188248
1112,-171.1243592637129
1113,-172.69930536665925
1114,-160.50117461373156
1115,-140.67994331282898
1116,-125.45558838508441
1117,-126.89808736324267
1118,-147.19741838997288
1119,-173.8235602162331
1120,-193.04649219959538
1121,-195.3961943025879
1122,-188.07264709102674
1123,-182.38583173234838
1124,-188.44572999392585
1125,-201.90232424140595
1126,-208.98559743702208
1127,-195.95553313791243
1128,-162.86211549443578
1129,-131.73532924848405
1130,-126.57515973179943
1131,-162.96159286426882
1132,-221.4246151522384
1133,-273.37421368681316
1134,-292.100376142158
1135,-274.10309077380225
1136,-231.30234641691095
1137,-175.86813248461112
1138,-118.64043896626026
1139,-68.31925642574788
1140,-33.384575999773006
1141,-21.806389396135273
1142,-39.36468889202115
1143,-91.32946733227436
1144,-180.56071812768823
1145,-283.8884352532714
1146,-361.87261324654173
1147,-375.46324720577286
1148,-317.9403327882992
1149,-228.90386620876234
1150,-151.57384423739495
1151,-117.1202641982818
1152,-114.96312396763278
1153,-125.53242197203508
1154,-131.36815718674552
1155,-134.62032913391886
1156,-147.8889378808908
1157,-183.3239840384431
1158,-235.74546875904525
1159,-279.1533937351269
1160,-286.3077611973313
1161,-243.63857391276542
1162,-175.13583518326777
1163,-111.1895488436603
1164,-78.24971925999489
1165,-75.92635132781106
1166,-92.65945047038622
1167,-117.1390226370022
1168,-142.96507430117163
1169,-168.40761245890462
1170,-191.83664462695742
1171,-210.0521788410806
1172,-216.6542236542682
1173,-204.83278813499783
1174,-171.22788186550315
1175,-128.49951493999106
1176,-93.98769796290617
1177,-83.54244204718634
1178,-95.2937588124878
1179,-115.80166038345305
1180,-131.56615938794675
1181,-136.24726895529784
1182,-133.34500271456272
1183,-127.01937479276239
1184,-120.18039981311813
1185,-111.83809289332203
1186,-100.27246964376536
1187,-84.34354616579913
1188,-66.77133904996117
1189,-51.86586537425137
1190,-43.57714270235192
1191,-39.345189081896024
1192,-30.96002304270951
1193,-10.091663595048885
1194,25.139869772126985
1195,65.23455709293012
1196,99.51237792628126
1197,118.3233113576589
1198,115.85733600085587
1199,87.2344299997203
1200,30.474571029904837
1201,-31.75226369938173
1202,-64.40609744363064
1203,-34.17695392129099
1204,49.81514268798128
1205,136.14016774506672
1206,171.74809615311824
1207,132.67890235932282
1208,51.96256035662009
1209,-30.700956314543873
1210,-83.02167456447933
1211,-102.55962175249806
1212,-94.49482568521489
1213,-64.96731461475974
1214,-28.807117237080092
1215,-5.324262690188334
1216,-12.998780552432436
1217,-50.74070084075538
1218,-98.06005400897448
1219,-133.68687094604502
1220,-144.76118297432913
1221,-134.10302184786815
1222,-106.22241975065117
1223,-66.30940929490316
1224,-21.964023519338298
1225,18.653704112539344
1226,47.84373971418245
1227,61.38604897770165
1228,56.650597175597795
1229,31.697349162475803
1230,-3.7337306232493574
1231,-30.012678157610935
1232,-27.3995298293994
1233,8.915677561557459
1234,60.85290680610524
1235,108.3421202874797
1236,137.40327998299654
1237,151.36634746577874
1238,156.6612839064528
1239,159.2080500748507
1240,162.29660634170796
1241,168.2769126803778
1242,179.17892866851798
1243,193.25261348979257
1244,206.3879259355599
1245,214.50482440658016
1246,214.92326691469862
1247,206.56321108453267
1248,188.4546141551782
1249,162.69743298186222
1250,137.34162403767368
1251,121.09714341520339
1252,120.18394682825601
1253,132.06198961351583
1254,152.311226732234
1255,177.00161277189545
1256,205.2731019478888
1257,237.46564810520977
1258,273.36920472009297
1259,305.3737249017031
1260,320.8591613938006
1261,307.6454665764031
1262,268.52259246745234
1263,223.4104907244655
1264,193.0891126462193
1265,190.13840917437483
1266,211.62833089516425
1267,252.86882804102788
1268,307.2298504922637
1269,361.8613477786985
1270,402.60326908131356
1271,417.2555632338972
1272,404.8181787247013
1273,368.23106369806374
1274,311.6741659560721
1275,251.86743296018722
1276,212.9008118328784
1277,217.524249359265
1278,257.8476919887544
1279,297.111085836661
1280,297.84437668583996
1281,249.01750998831994
1282,179.2104308669259
1283,120.1830841168885
1284,92.54541420748319
1285,90.08736528364716
1286,102.64888116758812
1287,120.84990536040277
1288,138.48038104369152
1289,150.11025108118156
1290,152.11945802030823
1291,152.7079440938469
1292,164.8256512215121
1293,199.7025210115571
1294,249.31849476237767
1295,293.60351346411517
1296,313.2175178002544
1297,308.900448149212
1298,300.4922445859338
1299,308.2528468834935
1300,336.7321945146741
1301,368.0002266535612
1302,382.43688217713134
1303,371.3120996668313
1304,349.3758174101513
1305,334.46797340223384
1306,338.7085053474275
1307,355.3173506608691
1308,373.57444647006923
1309,384.349729616466
1310,386.49313665702357
1311,381.39460386576866
1312,369.834067235397
1313,347.53146247879886
1314,307.75672503064743
1315,245.34979004896923
1316,175.38059241667725
1317,127.0490667431477
1318,128.4951473657784
1319,176.91876835153744
1320,238.67986349851344
1321,279.3083663374782
1322,288.12421013343555
1323,287.947327887161
1324,303.9676523367525
1325,343.9951159591783
1326,381.1596509718238
1327,384.5111893340181
1328,338.1096627486004
1329,268.7650026634292
1330,210.81714027294038
1331,190.6560065196809
1332,202.2515320958264
1333,231.2436474447386
1334,264.9922827624796
1335,300.7373679993434
1336,339.268832861384
1337,380.2966068119549
1338,414.1306190732121
1339,426.42079862765786
1340,404.42707421965497
1341,356.7693743569471
1342,306.5376273121783
1343,276.2817611244209
1344,271.66170360067554
1345,283.1373823173999
1346,300.58872462202817
1347,314.75565763446866
1348,317.3481082486269
1349,300.2660031339183
1350,264.46926873676966
1351,225.06783128213465
1352,198.36161677499877
1353,193.78055100188976
1354,206.6745595323846
1355,230.6635677205959
1356,257.5175007067064
1357,274.1762834184501
1358,266.729840572616
1359,229.4880966765595
1360,185.80097602968453
1361,165.40840272496644
1362,188.51030065042687
1363,231.5465934906515
1364,258.297204728271
1365,241.38205764546728
1366,206.1410753254604
1367,197.45418065401464
1368,250.90129632092066
1369,329.4423448215002
1370,362.0172484580835
1371,286.9859293415211
1372,140.32830939266205
1373,14.914310343850957
1374,-2.8161462595890043
1375,77.26686094215074
1376,176.56325312483568
1377,218.57295128169062
1378,192.15587622488601
1379,142.70194858702234
1380,116.18108882262459
1381,126.77321720963846
1382,155.6682538508976
1383,182.7361186756334
1384,195.8267314409477
1385,192.6300117333194
1386,171.5858789700742
1387,137.7542524008786
1388,105.88505110924598
1389,91.38819401398905
1390,101.04359987074531
1391,126.88118727344772
1392,159.4508746558149
1393,190.01258029284327
1394,211.28622230229485
1395,216.1317186461947
1396,202.85898713230927
1397,182.39794541564697
1398,167.42851099994732
1399,163.02060123917545
1400,153.61413333900055
1401,120.23902435831951
1402,57.22519121071309
1403,-0.03744933403322648
1404,-8.278980648436118
1405,56.050513754169515
1406,147.13095022113885
1407,203.84224496201023
1408,184.41431405000003
1409,124.03707342351663
1410,76.9904388876439
1411,83.65432611565666
1412,122.42865065051228
1413,154.45332790636894
1414,150.6282731700794
1415,130.00340160270025
1416,126.50862824100477
1417,165.3938679989824
1418,224.57903566936875
1419,266.0340459251365
1420,259.5288133210215
1421,221.34325229503156
1422,184.84727716997622
1423,178.70080215496455
1424,201.31374134694852
1425,239.1760087322309
1426,279.7075181879936
1427,316.758183483822
1428,346.90791828323563
1429,367.8466361452229
1430,385.32425052575854
1431,408.6406747793462
1432,445.68582216056893
1433,493.30960582560147
1434,543.2519388337678
1435,587.4627341490832
1436,619.6219046417937
1437,634.2693630899339
1438,627.9050221808702
1439,612.7587945128525
1440,608.8705925965733
1441,632.5503288567324
1442,668.5279156335891
1443,685.8232651845265
1444,659.0362896856277
1445,611.2969012332305
1446,590.105011845526
1447,635.5605334641023
1448,723.3333779555451
1449,796.6834571130184
1450,805.5206826578415
1451,757.2849662410881
1452,688.1062194451697
1453,631.1643537854306
1454,593.5392807117587
1455,569.5909116101848
1456,553.3191578044734
1457,536.7739305577525
1458,511.0451410741207
1459,470.0127005002596
1460,429.0165199270614
1461,413.2665103912568
1462,442.02258287703626
1463,491.13464831769306
1464,517.3626175972495
1465,485.17640155211666
1466,412.3459109727137
1467,338.8210566051566
1468,298.3517491528746
1469,284.47789927829217
1470,274.96941760449954
1471,250.69621471688697
1472,211.01820116487215
1473,162.05528746352138
1474,110.85738409527949
1475,69.70440151163348
1476,52.62625013480829
1477,67.16284035946774
1478,89.10408255442417
1479,84.51988706434531
1480,30.910164211456504
1481,-43.53517570272561
1482,-96.61622239567805
1483,-98.61306560213052
1484,-69.09579507233502
1485,-39.84450057033246
1486,-32.969271872185345
1487,-36.79019876424718
1488,-32.20737104138243
1489,-7.810878505206347
1490,24.239189037662072
1491,47.26274177742198
1492,50.46968990283858
1493,38.969943603047795
1494,20.49341306934548
1495,0.24000849700496474
1496,-22.510359912930653
1497,-49.30778195182393
1498,-81.51234740161635
1499,-120.06414603300982
1500,-165.75326760361713
1501,-210.32980185613087
1502,-229.87383851646518
1503,-199.45546729189664
1504,-122.17477786920426
1505,-42.421859912799846
1506,-6.926803062839099
1507,-26.599696933342784
1508,-67.42063111029893
1509,-93.4296951497563
1510,-91.3969785759291
1511,-72.11257087925696
1512,-47.37656151450392
1513,-26.079039898802876
1514,-14.630095409731439
1515,-18.88981738334951
1516,-39.048295112246706
1517,-71.08561784357698
1518,-110.55187477708387
1519,-149.58715506311455
1520,-178.29154780063254
1521,-188.03514203520353
1522,-181.19802675700885
1523,-165.49029089881515
1524,-148.33202333393456
1525,-135.09331287421446
1526,-130.34424826797112
1527,-137.0949181979504
1528,-150.92541127924596
1529,-165.1158160572486
1530,-172.35622100554065
1531,-163.0867145238244
1532,-127.21738493580233
1533,-65.86832048707583
1534,-12.639609343024858
1535,-6.871339586661634
1536,-61.99359921651194
1537,-133.4964761444444
1538,-169.4000581935088
1539,-152.36443309578317
1540,-124.52968849015997
1541,-132.88591192018066
1542,-181.66319083182316
1543,-218.60161257126492
1544,-189.9212643826977
1545,-98.94223340605276
1546,-6.934606674780298
1547,26.201528886431333
1548,0.9760864639083593
1549,-35.33102064271952
1550,-38.719879018221036
1551,-10.54057512946747
1552,21.45680467688726
1553,33.50217417673957
1554,32.305447270862715
1555,37.646537987275224
1556,61.955360483590994
1557,80.9318290494084
1558,58.845858108687025
1559,-21.962637777849523
1560,-116.08374391028701
1561,-164.27754544711934
1562,-135.8741274027816
1563,-70.77357464522356
1564,-19.435971893431997
1565,-7.96140371495494
1566,-19.589954523413326
1567,-33.4517085759926
1568,-39.106749970940655
1569,-39.33516264501304
1570,-37.747030370954235
1571,-37.57243675491736
1572,-41.691465233909184
1573,-51.89419907320371
1574,-57.59072136373106
1575,-40.22111501947256
1576,13.024537225161112
1577,71.80615281798782
1578,86.52364939170184
1579,23.30694476653116
1580,-75.45404304704971
1581,-144.4693958456446
1582,-141.43919523019758
1583,-97.0435226032896
1584,-56.292459166366825
1585,-44.07608591699318
1586,-42.914483646076405
1587,-30.257732935073363
1588,1.9240858468238002
1589,41.010892545489696
1590,72.9926072247381
1591,88.57915016914012
1592,83.0104418869123
1593,52.986403112812695
1594,10.486954811018222
1595,-22.697981821931535
1596,-28.17848535421217
1597,-12.824634115761
1598,5.813493804689642
1599,13.965820562620138
1600,14.372268560693556
1601,14.212760451793656
1602,18.097219142064205
1603,23.75556779395629
1604,27.82772982930146
1605,29.43362893241101
1606,31.933189053168462
1607,39.156334410161435
1608,57.09298949383083
1609,94.02307906962233
1610,156.1665281811729
1611,220.77326215350695
1612,244.71320659624507
1613,194.0562874068528
1614,105.52243077388266
1615,47.101563180251105
1616,66.64361140653091
1617,125.43850253425626
1618,161.73616394927012
1619,141.86652334503742
1620,103.139508726048
1621,93.3750484111988
1622,126.99307103717547
1623,167.00350556191916
1624,173.9762812680492
1625,150.39132776632323
1626,138.55857499915146
1627,177.15795324409373
1628,251.41939311737406
1629,315.4028255774483
1630,331.288181928574
1631,308.5553938243829
1632,272.92439327151806
1633,245.25511263325097
1634,231.24748463313335
1635,233.58144235868895
1636,249.65691926510226
1637,267.3438491789311
1638,273.9121663018577
1639,267.76180521444803
1640,259.1227008799451
1641,258.18478864805184
1642,268.4580042587895
1643,289.2022838463399
1644,318.1775639429088
1645,344.83378148264455
1646,355.65087380553814
1647,345.00877866138035
1648,331.80743421372426
1649,339.5667790438765
1650,374.2567521549063
1651,411.46729297569254
1652,424.94834136497593
1653,414.55983761544303
1654,406.1117224578429
1655,423.02393706511975
1656,454.79642305655943
1657,471.83912250198773
1658,451.571977925958
1659,406.58493231199645
1660,360.1879291068599
1661,329.1909122248053
1662,313.88382605190236
1663,311.89661545036506
1664,316.8492257629132
1665,316.9116028171429
1666,300.9036929299509
1667,274.29544291194907
1668,255.2968000719502
1669,258.9477122214321
1670,276.9481276790593
1671,291.3379952752275
1672,286.1172643566133
1673,251.87588479079204
1674,180.8738069708379
1675,85.08098181997048
1676,10.537360796241046
1677,4.072895897226772
1678,60.77753966475575
1679,127.9812451896778
1680,157.14396611662232
1681,148.9156566488491
1682,127.88627155304675
1683,113.20576616424114
1684,102.2040963906511
1685,86.9512187186574
1686,63.64709021772069
1687,36.34166854539035
1688,9.8149119523041
1689,-15.483220712771072
1690,-43.34276999786016
1691,-76.26377584268994
1692,-104.06627757354363
1693,-110.06031389811687
1694,-86.52592290032408
1695,-61.083142035067794
1696,-69.83200812299765
1697,-122.11255734523911
1698,-177.07482523805447
1699,-190.06884668753082
1700,-154.914655924189
1701,-101.92228651758342
1702,-60.47177137086874
1703,-41.483142715336726
1704,-47.11643210490183
1705,-73.09167041060209
1706,-92.73888781499772
1707,-74.89811380661013
1708,-16.209377174278416
1709,41.04729399848293
1710,52.631872339203255
1711,12.694331192147729
1712,-53.63535537590724
1713,-121.37721256989244
1714,-172.51126486061548
1715,-191.67753597891897
1716,-172.0260489097691
1717,-129.96682588635485
1718,-85.64988838412683
1719,-50.945257114790365
1720,-27.04295202029607
1721,-14.682992266783913
1722,-17.295396238472676
1723,-39.94018153154502
1724,-82.81736494797951
1725,-124.74696248935106
1726,-138.72898935060402
1727,-115.0434599137734
1728,-77.11038774168992
1729,-51.359785571639804
1730,-49.02166530897375
1731,-67.67603802072335
1732,-101.78291392912433
1733,-128.26230240514997
1734,-116.86421196198535
1735,-56.03865024847437
1736,14.08437595749092
1737,45.63486075557012
1738,28.5027991296829
1739,-1.0918130453228514
1740,-7.998978996900405
1741,4.861298951964272
1742,13.39901938956973
1743,1.6441818223665905
1744,-15.003213318163034
1745,-14.083164668545578
1746,6.204330073622259
1747,15.129274156706742
1748,-17.24832821790369
1749,-72.6384718887457
1750,-98.761150727114
1751,-57.716357629917184
1752,16.45591548754055
1753,68.58567769880574
1754,69.75293907355808
1755,41.24771068494556
1756,9.600004616941078
1757,-7.200166028240346
1758,1.7872128773142322
1759,39.92215649469472
1760,69.52468102569401
1761,38.664803720397686
1762,-63.33745711521078
1763,-157.23208211160272
1764,-156.4190508279844
1765,-68.96834174458309
1766,9.6500677451495
1767,-1.2537986576371623
1768,-69.37991614933162
1769,-119.25825881596029
1770,-106.83879962521314
1771,-61.811510418461694
1772,-23.456361902717617
1773,-10.34332364256079
1774,-21.062364051995246
1775,-52.13345038629086
1776,-92.08654873376872
1777,-126.31162400753783
1778,-141.25863993720122
1779,-126.0275590604997
1780,-71.37834271493193
1781,4.519048970696531
1782,57.51465708474825
1783,51.908523941276144
1784,9.980693088606131
1785,-24.338790682053514
1786,-24.69988132794242
1787,-3.542531546037935
1788,21.53330723570798
1789,33.397684867159114
1790,15.280652484843813
1791,-42.53773747912237
1792,-111.91743128812413
1793,-152.0983738920313
1794,-142.0505089181861
1795,-98.90377866227573
1796,-43.87812407924321
1797,5.916515225922922
1798,36.45020100741749
1799,37.452996387881285
1800,15.044965867748033
