800,141.5649511756328
801,137.67345959397244
802,119.89193520203116
803,94.47458980621377
804,71.16963487028625
805,59.77828151369613
806,66.42874050985301
807,84.57222228446335
808,104.9309369138391
809,118.38709412324351
810,121.40890328522619
811,117.47057341796244
812,110.48731318363025
813,104.1923308867481
814,100.95083447256911
815,102.48003152545607
816,110.48512926726653
817,124.28433455575578
818,137.1328538829748
819,141.34989337369007
820,129.78965878380586
821,106.03835549878931
822,83.56418853211107
823,76.200362523683
824,93.6980817383319
825,124.50155006423665
826,150.11497101141686
827,152.2035477101963
828,124.86148290969504
829,83.56297897633704
830,45.88023789232102
831,28.041461254153546
832,31.45285027116006
833,48.349605764014996
834,70.82792816325855
835,91.78501750785472
836,106.68707344373433
837,111.50529522235593
838,102.42588169925875
839,80.9160313326447
840,54.234942181958104
841,29.926811906467265
842,14.511837763871881
843,8.346216608893883
844,9.494144891892574
845,16.01481865748974
846,26.428433543189385
847,40.114184778009076
848,56.54026718113528
849,75.09687516055965
850,94.25920271174255
851,111.91544341627741
852,125.95279044056042
853,134.2804365344764
854,134.91357403007896
855,125.88239484030055
856,105.4530904576277
857,77.49585195284999
858,51.60986997373584
859,37.64733474380046
860,42.889436061002925
861,60.981363296514246
862,81.07330539344002
863,92.41145086560391
864,90.30798779628458
865,79.67710383700432
866,66.26998620630548
867,55.36682168852349
868,48.02479663258964
869,43.12009695083543
870,39.51990811779069
871,37.538415168994106
872,40.98980269984531
873,54.19725486439347
874,80.84195537420783
875,115.1410874971989
876,144.08583405649188
877,154.48837742926116
878,138.32389954562314
879,106.1295818874878
880,72.60660548745545
881,52.194150927691226
882,52.33339833883292
883,72.94552739888786
884,113.57871733214051
885,171.3441469080808
886,230.60799444030636
887,271.5884377854836
888,274.83565434225784
889,238.27982105021874
890,185.36811438884615
891,141.57871037647055
892,128.94878456923834
893,144.07651206008995
894,172.1530674777423
895,198.36962498566754
896,213.9633582811075
897,221.95044059405154
898,226.70704468627082
899,232.1723428503119
900,237.89650690854796
901,240.84670821217696
902,237.96311764029087
903,228.07190559889386
904,214.75624201997562
905,202.33729636055432
906,194.7492376017526
907,190.61623424786558
908,184.64845432543734
909,171.46506538235917
910,149.40323448693925
911,128.53912822704297
912,121.25791270915033
913,139.0247535575072
914,175.897815913233
915,210.46426443345445
916,220.77026329042565
917,193.13497617068606
918,145.68856627419336
919,104.18919631350036
920,93.59902851288462
921,119.27622460756174
922,166.23694584280747
923,218.55335297318015
924,261.9016062616938
925,289.3088654790208
926,295.8152899026845
927,276.7810383162687
928,236.17626900865434
929,188.13113977320245
930,147.34280790702542
931,125.93543021019286
932,122.89416298499054
933,133.04316203516282
934,151.17758266516103
935,171.15157967942832
936,185.57830738164375
937,187.0159195740125
938,170.13456955653237
939,141.4244101263139
940,111.42459357684493
941,90.52827169729608
942,82.40759577184872
943,81.63171657899147
944,82.10878439084445
945,78.70294897249914
946,71.76635958133738
947,63.63216496637688
948,56.59551336762161
949,51.365552515426316
950,46.43742962983015
951,40.14629141995101
952,31.822284083333216
953,26.69455330535493
954,32.124244258593535
955,55.226501602221106
956,91.87946948141871
957,122.42629152675727
958,126.09711085362505
959,87.50207006165328
960,22.209311234120833
961,-43.311024062601064
962,-82.96179477962687
963,-87.38786038608487
964,-69.46208086969455
965,-43.60331673729888
966,-22.14542901540517
967,-6.262279250711799
968,6.596270489359085
969,18.890357616159235
970,30.150119019277554
971,36.295691066050495
972,33.00720960106446
973,16.564809945650268
974,-13.861373102599828
975,-58.219205270299426
976,-116.11755280877514
977,-177.3172824944977
978,-220.56026162957642
979,-223.98035804218853
980,-174.68344008705571
981,-97.85437664586607
982,-28.811037127723466
983,-1.6152914695776417
984,-22.122010136652534
985,-68.39106412285946
986,-117.29532495120839
987,-150.269664674237
988,-165.11795587438064
989,-163.33507166438176
990,-146.54788568769436
991,-118.63727211883634
992,-85.39910566379695
993,-52.652261560377156
994,-25.446615578586716
995,-6.392044020978574
996,2.3615762769914
997,-1.0456320533921826
998,-14.053546914426988
999,-31.072046742347084
1000,-46.46101050763173
1001,-56.780317715349156
1002,-63.79984840545512
1003,-70.02948315311369
1004,-77.99910306901256
1005,-89.4285897996233
1006,-100.59782552754405
1007,-105.62669297176035
1008,-98.6850753879171
1009,-80.74285656861866
1010,-62.41992084368576
1011,-55.08615308040498
1012,-66.92143868381936
1013,-88.70566359694931
1014,-105.35871430105544
1015,-102.1904778158787
1016,-78.17084169985355
1017,-48.30969405036922
1018,-28.50692350396639
1019,-30.532419236573332
1020,-48.52607096369138
1021,-71.98776894062576
1022,-90.8074039626681
1023,-102.5848673653054
1024,-112.13005102438547
1025,-124.50284735632522
1026,-141.513149318258
1027,-154.60085040823287
1028,-153.20584466536093
1029,-127.92802666997886
1030,-84.73729154379544
1031,-40.41353495005569
1032,-11.926653093667483
1033,-8.446542721345395
1034,-21.43310112173458
1035,-39.88622612553445
1036,-53.38581610563597
1037,-56.38176997720984
1038,-45.803987197827155
1039,-18.68236776755657
1040,21.233187770929362
1041,59.46277833228123
1042,80.58650228836632
1043,73.14445746821548
1044,47.91674115792375
1045,23.333450100592017
1046,17.33468049628027
1047,33.440528001925486
1048,59.39108773130101
1049,82.11645425497773
1050,92.4267216002736
1051,94.9219832512299
1052,97.1823321485681
1053,106.14786068968533
1054,119.24866072861369
1055,127.02482357603185
1056,119.87643999923785
1057,94.79360022216679
1058,63.13639392537516
1059,38.13491024607538
1060,31.46923777811935
1061,42.589464572056386
1062,65.44567813512913
1063,93.92796543131954
1064,120.66641288138817
1065,136.59110636290643
1066,132.55213121032102
1067,103.53957221498786
1068,62.19351362525231
1069,25.824039146495124
1070,10.851231941223887
1071,19.42517462912292
1072,42.14594928715633
1073,69.25363744963761
1074,91.84832010834543
1075,102.97007771259632
1076,95.93899016935393
1077,66.28513684335121
1078,26.438596557180063
1079,-3.3905524085585057
1080,-3.3722323151669116
1081,29.603634034312563
1082,76.93712329521259
1083,118.56831158138812
1084,138.82727446535864
1085,138.9540869784705
1086,124.18882361104079
1087,99.86155831251926
1088,72.23236449166689
1089,48.19131501671836
1090,34.608482215566255
1091,32.983937875938864
1092,34.537753245591375
1093,29.279999032503838
1094,9.440745405077905
1095,-19.869938007675955
1096,-48.891982115887004
1097,-68.23531836866096
1098,-77.01987875381019
1099,-82.70559579767178
1100,-93.09240256484372
1101,-111.02023265796379
1102,-126.02902021747104
1103,-125.45869992134976
1104,-99.41920698487775
1105,-60.430477160383816
1106,-31.852446736967977
1107,-36.5250525402389
1108,-76.22823193204749
1109,-126.17192281020107
1110,-159.8760636081861
1111,-159.71059329487798
1112,-137.98545137423753
1113,-113.40057788502963
1114,-103.16591340051127
1115,-109.11139902811738
1116,-124.02697640914994
1117,-140.58258771846158
1118,-152.80817566413316
1119,-156.72368348712553
1120,-148.4890549609736
1121,-127.03423439141625
1122,-102.18916661607727
1123,-86.49379700409372
1124,-91.30807145577455
1125,-114.09193640223384
1126,-143.2353388050251
1127,-167.05822615577017
1128,-179.88054647578247
1129,-185.63224831568732
1130,-189.08328075503596
1131,-194.30359340191535
1132,-202.35313639254855
1133,-213.51186039088316
1134,-227.64971658821196
1135,-239.73665670273112
1136,-241.44263297914404
1137,-224.507598188231
1138,-189.36150562641342
1139,-150.1043091153424
1140,-122.0359630014409
1141,-116.73642215547989
1142,-130.83564197210944
1143,-157.23357836942705
1144,-188.6201877885087
1145,-215.33542719294928
1146,-226.22925406839386
1147,-210.3916264220643
1148,-170.18250278228697
1149,-126.95184219800285
1150,-103.51960423828677
1151,-113.60574899184394
1152,-139.33023706652966
1153,-155.97302958882938
1154,-142.0840882033608
1155,-106.21337507235512
1156,-72.8908528751399
1157,-66.19648480763135
1158,-90.8002345817822
1159,-128.13206642505975
1160,-158.20194507991982
1161,-167.90983580324246
1162,-162.91570436579968
1163,-152.0995170517017
1164,-143.19124065782853
1165,-136.08084249328203
1166,-127.37829037879965
1167,-114.04355264620972
1168,-99.81659813782608
1169,-94.72739620587527
1170,-108.98591671192116
1171,-143.23213002625198
1172,-178.9660070273003
1173,-195.3675191010334
1174,-177.33663814034117
1175,-136.623336544435
1176,-92.80758721822531
1177,-64.1693635716947
1178,-53.30863951928768
1179,-52.62538947924804
1180,-54.45958837301623
1181,-56.7312116245721
1182,-65.04023515978406
1183,-85.52663540576395
1184,-119.83038929021313
1185,-156.2514742407493
1186,-180.6298681842618
1187,-180.82554954621082
1188,-158.63849724998545
1189,-121.6386907161941
1190,-77.51610986199194
1191,-35.34073510039161
1192,-5.392547339562952
1193,2.1184720178662246
1194,-13.517658924492935
1195,-36.26092255605545
1196,-48.33130175858241
1197,-37.798779905437186
1198,-14.693340860862008
1199,5.785031020737733
1200,10.18635089554482
1201,-0.22936656894307816
1202,-16.83210719316594
1203,-31.20185728474462
1204,-41.83860363774329
1205,-54.13233353189571
1206,-73.7030347318414
1207,-99.76069548637315
1208,-118.88530452765008
1209,-116.22685107041616
1210,-82.59532481123824
1211,-31.770715927688798
1212,16.596984922420233
1213,44.797786601844564
1214,51.981697494729815
1215,45.9887255073736
1216,34.56887806907798
1217,21.612162132953017
1218,7.138584176733275
1219,-8.941849796396127
1220,-23.77913425695442
1221,-29.013264148345115
1222,-15.684234886010017
1223,19.387957643415575
1224,57.923317082968424
1225,76.69184660617975
1226,57.13354891796553
1227,16.008426255482846
1228,-13.84351961100765
1229,-1.5522873772697494
1230,47.102123795813895
1231,95.25971428309276
1232,105.55048399605039
1233,68.46443238370375
1234,17.391558433499085
1235,-10.648139327791796
1236,6.295337166840909
1237,47.08198552556132
1238,82.84180289859978
1239,90.29478597918023
1240,76.80093100444174
1241,60.26023375637851
1242,57.37268956276239
1243,71.53829329810469
1244,97.75703938458173
1245,130.81892179300303
1246,163.19393404375842
1247,184.78206920777666
1248,185.4033199075002
1249,164.1676783178409
1250,137.88513616717137
1251,125.42568473829851
1252,137.61931486943467
1253,157.68601695520738
1254,162.82578094765086
1255,135.29859635718822
1256,89.6344522536474
1257,53.13333726727433
1258,51.12523958972997
1259,83.89014697512539
1260,134.6180467410395
1261,186.3789257695371
1262,227.4927705082082
1263,252.33956697120993
1264,255.65930074030075
1265,239.09195696589086
1266,217.43752036808655
1267,206.96597523775927
1268,217.30730543759637
1269,236.5714944031679
1270,248.4685251439987
1271,240.3183802446456
1272,219.9810418657744
1273,202.62649174524267
1274,202.0547111991982
1275,218.14568112315828
1276,242.5893819931207
1277,266.9257938666615
1278,282.684896384053
1279,281.3366687693615
1280,254.51108983157974
1281,204.38813796573777
1282,148.8677911540417
1283,107.1300269669955
1284,91.23482256454918
1285,96.08215469722745
1286,114.05199970728427
1287,137.79433352986234
1288,160.86913169412765
1289,177.08636932445188
1290,181.92602114156216
1291,181.89806146372393
1292,187.8924642079146
1293,209.45920289098103
1294,240.79825063086537
1295,266.489580147756
1296,271.84316376530114
1297,260.57897341181524
1298,253.9569806214513
1299,273.4671565354456
1300,317.75947190331317
1301,352.90389708406656
1302,342.55040204743455
1303,275.9189563751024
1304,197.48952926193488
1305,158.9220895172184
1306,192.1866055658993
1307,263.9030454498279
1308,327.1713768290174
1309,344.6315669828982
1310,327.95358281157314
1311,304.447390837091
1312,298.28295720471215
1313,308.0802476841891
1314,320.2492276710327
1315,321.7998621878214
1316,309.0821158854724
1317,284.9359530445345
1318,252.54133757650197
1319,220.31823302510384
1320,201.84660256762982
1321,210.65640901622282
1322,246.22761481921953
1323,288.2901820624502
1324,315.1640724705867
1325,315.3492474084687
1326,297.66566788243654
1327,273.3232945416821
1328,252.33208767958786
1329,241.28200723508598
1330,246.11301279401232
1331,269.6350635904637
1332,301.59811850817096
1333,328.47213608187303
1334,339.30707449867805
1335,338.5728915994641
1336,336.3095448802469
1337,341.6769914935885
1338,356.3751882499746
1339,378.3440916192212
1340,404.8736577318941
1341,425.02384238069317
1342,422.3146010218843
1343,381.42588877671733
1344,311.6776604328443
1345,244.69987044575464
1346,212.20247294020555
1347,220.37542171166024
1348,244.9786702277379
1349,260.25217162965237
1350,256.2658787336768
1351,247.8497440325864
1352,251.9237196971426
1353,276.2777575775399
1354,309.9618092048986
1355,339.72582579271875
1356,354.05975823838526
1357,346.08355712464436
1358,309.7271727210991
1359,245.88055498569702
1360,180.063653566247
1361,143.2264178019177
1362,157.64879672475035
1363,205.6807390611757
1364,258.1521932335272
1365,289.8631073615925
1366,299.3834292641113
1367,294.0831064603335
1368,280.77208617155156
1369,261.88031532265995
1370,237.73774054368005
1371,209.09430817134307
1372,180.63996425063306
1373,159.38465453635217
1374,151.61832449470967
1375,153.5809193048717
1376,154.31238386056248
1377,143.48266277163748
1378,125.23170036567535
1379,116.16944068958037
1380,132.61582751117203
1381,173.44080432078772
1382,219.36431433291364
1383,250.6063004877742
1384,258.85670545296307
1385,249.9554716250732
1386,230.61254113131508
1387,206.3578558311583
1388,180.93135731796247
1389,157.96298692063647
1390,140.37268570527885
1391,129.89039447682626
1392,128.12605378072294
1393,135.64960390458327
1394,150.85098487985306
1395,171.90013648349486
1396,194.4969982396542
1397,208.6115094213601
1398,203.44360905219946
1399,175.32323590802298
1400,139.8003285186278
1401,115.63482516948534
1402,114.85666390341794
1403,128.71578252235668
1404,144.47211858901937
1405,153.83560942865188
1406,164.236192130762
1407,186.56380355085093
1408,226.14838031213912
1409,266.39985880733184
1410,285.26817520035183
1411,268.353265428108
1412,235.38506520223018
1413,215.57351001086863
1414,230.5085351204325
1415,263.8800755773809
1416,287.69806621000134
1417,280.1224416301775
1418,252.62313623521368
1419,227.95008420959493
1420,224.81321952680082
1421,237.76247595111454
1422,252.49778703942684
1423,257.33908614305074
1424,257.58630640955016
1425,265.1793807845497
1426,290.0182420135807
1427,327.4128226439152
1428,366.60305502638766
1429,398.3588713172667
1430,424.70020348009166
1431,452.67698328752886
1432,487.9491423232357
1433,525.5466119837274
1434,555.5893234802479
1435,569.3472078406448
1436,567.5701959112521
1437,555.5282183587788
1438,539.3712056721979
1439,532.1990881646452
1440,550.5117959753243
1441,606.7792590714071
1442,679.401407249954
1443,729.7881701398292
1444,724.9094772036224
1445,680.1252577395808
1446,635.1454408835361
1447,624.8499556108545
1448,641.8187307383596
1449,657.3616949263123
1450,646.0587766803419
1451,611.1599043534079
1452,570.2150061477732
1453,539.4140101169742
1454,522.9668441677841
1455,519.233436062208
1456,525.4537134194652
1457,530.3876037179689
1458,518.7550342973391
1459,478.48593236039596
1460,422.2802249751621
1461,374.23783907689176
1462,354.6787014700676
1463,355.99273883043315
1464,358.2498777070232
1465,344.61004452420093
1466,319.32316558367893
1467,295.4691670665852
1468,283.37797503550064
1469,275.70951543651427
1470,258.2137141012827
1471,219.64049674909984
1472,166.5197889889714
1473,111.92151632167588
1474,67.7956041418638
1475,40.29197774012755
1476,33.59056230511669
1477,48.98128292560614
1478,73.65406459262886
1479,90.45883220156065
1480,85.65551055424294
1481,60.54402436111013
1482,20.574298243305748
1483,-25.323743265193116
1484,-54.590175715424266
1485,-41.26507474131722
1486,25.63148394246855
1487,104.65942454268225
1488,142.87867118966096
1489,109.23914793945914
1490,39.96077877603784
1491,-15.806512386550821
1492,-26.182801702008874
1493,-5.568165389602655
1494,23.937320268052645
1495,43.963578927146955
1496,44.80053418491116
1497,18.098109581813333
1498,-31.483771396238808
1499,-73.0751853156653
1500,-72.95620879300259
1501,-22.926918492676123
1502,41.06260887526332
1503,79.1422965573347
1504,75.22206775890118
1505,48.31184564641262
1506,19.901553349673122
1507,-0.8488860359211685
1508,-20.179549447084355
1509,-44.94051385039529
1510,-72.04185623998637
1511,-87.9436536353005
1512,-79.34598307876331
1513,-47.00892163350363
1514,-4.15254638105398
1515,35.56306558096185
1516,58.3978371411431
1517,50.551691176624445
1518,0.9245505554044939
1519,-72.56366186132618
1520,-134.55302321684758
1521,-153.34361065656958
1522,-129.64550132568547
1523,-79.92877236682762
1524,-21.253500917686324
1525,26.500235891326156
1526,42.32236093946449
1527,12.7527971180225
1528,-38.66853266729049
1529,-77.07170549396506
1530,-77.05679842028621
1531,-49.18388848294853
1532,-12.523052694639773
1533,15.595631958358354
1534,23.012088518589735
1535,-1.4637599401521584
1536,-55.57199031039454
1537,-106.94767944855812
1538,-119.49590417251602
1539,-83.34574125915424
1540,-33.700267441903634
1541,-9.681559408292742
1542,-26.7156937975069
1543,-68.97474719787715
1544,-118.56479614443924
1545,-160.0509171164431
1546,-180.50818653486385
1547,-168.4936807599206
1548,-133.56047608855624
1549,-101.48164875196017
1550,-95.22627491304775
1551,-104.83843066393092
1552,-101.23619202342343
1553,-61.62163493448861
1554,-9.321835261727756
1555,12.547131211184023
1556,-26.73081121598807
1557,-95.8687381574473
1558,-144.35372513884977
1559,-139.98684759471325
1560,-114.78518086585245
1561,-114.78580019681976
1562,-161.85478073329614
1563,-218.0301975195307
1564,-236.56612549572492
1565,-200.778639495451
1566,-147.00181424303992
1567,-116.35172435096138
1568,-124.90144431721819
1569,-157.05404852271386
1570,-195.26961122863213
1571,-223.96020657379086
1572,-229.3129085720011
1573,-199.75479110942615
1574,-148.96992794192192
1575,-106.87239269237216
1576,-99.70825884802798
1577,-124.70659975783747
1578,-166.15648862975831
1579,-209.26699852807906
1580,-244.01820237072207
1581,-261.81217292654765
1582,-257.3689828126571
1583,-235.91870449167072
1584,-204.79341026901966
1585,-173.6231722902212
1586,-156.8680625381512
1587,-169.21915283030103
1588,-206.1985148160511
1589,-236.1242199739081
1590,-226.896339608762
1591,-183.02094484911686
1592,-144.26110664433145
1593,-147.94689576184646
1594,-185.66738278439516
1595,-219.4106381072288
1596,-216.46473193532256
1597,-184.6587342805724
1598,-149.01471495899386
1599,-129.6527435879143
1600,-125.26488958314621
1601,-128.80222215617323
1602,-134.1798103113142
1603,-137.91372284288445
1604,-137.00102833236633
1605,-132.94779514553738
1606,-134.91009142963776
1607,-152.16198511048242
1608,-176.69354388961983
1609,-181.54583524143527
1610,-141.72892641027647
1611,-71.28988440756984
1612,-11.809776008916742
1613,1.3783322488015983
1614,-17.09762592966763
1615,-30.503716595027072
1616,-11.424005550516085
1617,27.30144165101592
1618,62.12155971005632
1619,77.33728358335247
1620,77.11754848687451
1621,68.6872898987549
1622,57.15844356226444
1623,44.38094548877052
1624,32.198731960710575
1625,28.085739534573804
1626,44.871905043892184
1627,92.66916560223217
1628,151.76845860619505
1629,185.07972173841517
1630,164.11089297060244
1631,109.26691056651725
1632,57.73471308504486
1633,35.529239383204185
1634,33.78642861918888
1635,36.96722025542476
1636,37.990554061612784
1637,44.95137011780571
1638,66.99960881745938
1639,99.5552108705233
1640,123.42811730650101
1641,121.38026947757317
1642,106.53060906165774
1643,111.08507806552734
1644,158.88561882792237
1645,223.54517402266174
1646,260.6846866617634
1647,243.05610009857992
1648,196.9133580309317
1649,158.70140450425424
1650,148.17218391474125
1651,156.16464101250858
1652,171.12672090475644
1653,192.63136905894316
1654,231.26253130596524
1655,295.1551538433323
1656,364.0681832383725
1657,401.80156643142436
1658,381.1402507390412
1659,319.6911838572141
1660,248.6773138645858
1661,192.55758922568202
1662,158.54395879413823
1663,150.94237181595054
1664,163.98777793272347
1665,178.01012718491984
1666,174.02437001512953
1667,158.57845727133463
1668,157.78934021019813
1669,191.31897050034058
1670,231.96430022562527
1671,233.1822818884648
1672,169.7458684131343
1673,87.79001314907327
1674,47.92666987420853
1675,73.86079279828846
1676,125.75633656620812
1677,159.0892562613608
1678,162.56250740898759
1679,155.5500459795221
1680,155.6988283919727
1681,157.04281151727446
1682,142.09895268169203
1683,98.94620967018454
1684,37.569540729811706
1685,-26.71909542688263
1686,-75.90373961843216
1687,-86.8394321910564
1688,-37.552213015233065
1689,53.28387851774278
1690,126.74280349917899
1691,130.35152350644603
1692,82.61300060643771
1693,38.22519735899186
1694,35.321076820420785
1695,45.7166025469287
1696,25.200738598114185
1697,-42.251550459513965
1698,-119.71029954907863
1699,-165.80954307980574
1700,-169.99531494351504
1701,-150.91064851110423
1702,-127.36757662900709
1703,-110.2101316156859
1704,-106.5433452580528
1705,-118.34724880794602
1706,-129.8218729785567
1707,-121.47724794086753
1708,-89.47340332008389
1709,-55.663368192035705
1710,-43.18217107960845
1711,-56.868839949127505
1712,-86.77540220677474
1713,-122.28288469494692
1714,-151.37431368866783
1715,-161.49471489193093
1716,-148.4651134340911
1717,-131.10253386618933
1718,-131.51800015733352
1719,-148.10353569101426
1720,-148.8451632614524
1721,-104.05390506992262
1722,-31.41378272105976
1723,22.289182780821648
1724,22.70197103542523
1725,-7.743437749813893
1726,-31.135062756022307
1727,-29.731922549151932
1728,-24.598035076274755
1729,-39.90541766181559
1730,-74.22608700382625
1731,-103.19305917022393
1732,-106.4053495950302
1733,-95.5189730746024
1734,-95.28294376384474
1735,-116.73327517244434
1736,-132.98898016104795
1737,-111.61907093748778
1738,-53.42955905295457
1739,0.07454460182634648
1740,10.020229800400557
1741,-12.59851301555318
1742,-29.013692732412892
1743,-13.368317560734795
1744,10.646604968604152
1745,8.183068008260307
1746,-27.235934601703775
1747,-57.333408329912345
1748,-43.58135794980262
1749,3.398212464277094
1750,38.36729954098519
1751,27.39890061589358
1752,-6.034986264587133
1753,-21.62736233925716
1754,-1.8792281282076146
1755,27.048416571145935
1756,35.51557268800934
1757,19.295241882180562
1758,-4.698573451960328
1759,-21.540870181486753
1760,-31.264644430924818
1761,-39.10489157825941
1762,-47.57960625090891
1763,-53.24178232172562
1764,-52.02241290496022
1765,-43.164490352224675
1766,-28.973006248466845
1767,-12.736951407889137
1768,-2.9753158699204505
1769,-10.205088895121662
1770,-35.59425896112407
1771,-58.466813758535864
1772,-56.183740186854266
1773,-31.830024350354506
1774,-13.28465155397862
1775,-23.905606299234933
1776,-51.58087228003569
1777,-70.33243237858551
1778,-65.1212686612198
1779,-46.651362374263044
1780,-28.711693939860197
1781,-12.191242951788809
1782,14.19001182869215
1783,56.28509247706279
1784,84.00202190971868
1785,53.892823888189014
1786,-40.202476976641265
1787,-122.6088552203255
1788,-111.55628452060773
1789,-15.276737693169707
1790,79.47881331260032
1791,100.65939741787406
1792,70.5470444186667
1793,42.91278499009604
1794,46.842650690681694
1795,63.670673966644245
1796,71.10588815620031
1797,73.94832749387933
1798,97.54802711486445
1799,155.18502305929178
1800,203.81235227662364
