800,143.50466353998127
801,98.57492823037774
802,92.20517874412872
803,121.95254773052056
804,168.12816761262457
805,210.80917058973955
806,233.89068863980629
807,234.4308535218006
808,212.32779677809594
809,167.7246497367787
810,109.37254351397223
811,56.81860901609434
812,30.276976942115652
813,46.31577778577139
814,93.0531418377559
815,145.22719918789062
816,177.54307972724928
817,175.7989131502818
818,153.88982895688332
819,130.08795645445662
820,121.77442475993666
821,128.80436280179038
822,134.87189932199817
823,123.08116287799476
824,81.70828184458514
825,26.06338441585831
826,-19.748401392965206
827,-31.82994774367853
828,-3.134126973277489
829,44.43218840783629
830,86.10212571761076
831,99.48781210409015
832,88.16737454712711
833,71.82593986006759
834,70.37163469141979
835,95.50358552648504
836,132.46691868897233
837,161.19076034258796
838,162.2542364926021
839,133.3524729873743
840,90.86759551988325
841,52.12172962920431
842,31.88600070197208
843,29.626533973839287
844,39.09245453087078
845,54.03888731094776
846,69.43895710513698
847,82.5347885590254
848,90.81450617405972
849,92.18023430882386
850,89.22709718032547
851,87.5442188652396
852,92.77172330114445
853,107.09973428771809
854,121.86137548792613
855,126.25177042917403
856,110.02504250444963
857,76.25731497342804
858,41.65471096357578
859,23.528353471205264
860,34.95536536252621
861,66.55086937467513
862,101.53098811670952
863,123.26184407058827
864,124.78655959213756
865,114.45825691198024
866,101.97905813644866
867,96.04408524848895
868,96.53946010851541
869,98.79330445528467
870,98.10073990670116
871,92.07988796064365
872,83.9278699957431
873,77.66080727215467
874,76.98982093229279
875,81.15703200157986
876,85.99556138912521
877,87.25152988842274
878,82.72105817802094
879,77.56426682214988
880,78.59527627136231
881,92.32620686312657
882,117.39317882241903
883,143.95331226228154
884,161.7397271843729
885,162.87454347949006
886,151.91588092807615
887,137.47785920070692
888,128.10159785855922
889,128.50021635385838
890,137.75883403031276
891,154.51557012351077
892,176.92154376133385
893,199.50287396431395
894,215.1646796459945
895,216.85107961326594
896,203.00719256668526
897,182.79413710077552
898,166.61203170430508
899,163.87699476055786
900,173.94514454757427
901,190.26559923838158
902,206.21947690120123
903,216.88289549965066
904,221.58797289290942
905,220.32382683588548
906,213.26557497935028
907,203.08333487006257
908,194.29922395088306
909,191.474359560857
910,197.90985893528796
911,212.93983920580467
912,235.11341740038006
913,262.821710443377
914,291.52883515554095
915,314.09090825400017
916,323.27104635222804
917,313.505365960018
918,285.67498348340905
919,242.19201522462572
920,185.77157738198184
921,126.27078604977578
922,80.98475721817431
923,67.5436067730734
924,97.52545049594846
925,155.22140406368453
926,217.2625830484003
927,260.71310291724603
928,276.4030790321949
929,271.2946266498175
930,253.2688609210354
931,229.72189689086736
932,205.56284949816745
933,184.91283357532666
934,171.83296384797723
935,168.02835493468865
936,172.18112134662988
937,182.78237748722313
938,197.3782376518093
939,208.37181602725468
940,206.38222669157767
941,182.31758361355514
942,139.5390006523112
943,98.28759155688294
944,80.0214699657954
945,100.80474940660588
946,145.47554329544073
947,187.63396493651726
948,201.23412752165677
949,177.26614412977779
950,130.41312772638776
951,77.10919116304922
952,32.20544717683697
953,1.2590083897894147
954,-13.541012691651304
955,-10.10950367723126
956,9.290647706539858
957,36.39555361577277
958,62.498326088596514
959,79.76007704452877
960,85.29991828383754
961,77.99396148688902
962,56.847318213493054
963,26.325099902222064
964,-1.8565821302636323
965,-15.478616689914816
966,-5.7538927060040805
967,17.754700768164184
968,39.354274554521
969,43.65693934949104
970,26.132805723253114
971,-4.306015881039457
972,-37.90441514801478
973,-65.91228189086723
974,-84.42350605215779
975,-91.01497770460719
976,-83.4475870519218
977,-65.01322442959827
978,-45.20178030578245
979,-33.82814528208655
980,-37.71121009446415
981,-50.89286561406516
982,-64.02300284809917
983,-68.11851294073858
984,-62.58528717399531
985,-55.07521696862932
986,-53.59919388505568
987,-63.767109624267505
988,-82.56085602876738
989,-105.01632508349758
990,-126.13440891680239
991,-140.20799980137326
992,-140.9499901552108
993,-122.05827254261021
994,-81.77073967513934
995,-31.749284412628185
996,13.868200235832774
997,41.61182111087783
998,46.62268490186125
999,30.017898145815707
1000,-6.9524327735625775
1001,-59.29020162696361
1002,-113.15630234051241
1003,-153.42862899682132
1004,-164.97607583606077
1005,-136.84053725702051
1006,-86.15690781819922
1007,-41.635082238883115
1008,-31.6049554002484
1009,-63.14742234645473
1010,-112.83037828575743
1011,-154.85071859162144
1012,-167.5403388038494
1013,-151.75113462970876
1014,-115.94900194506135
1015,-68.69383679551447
1016,-21.14253539757283
1017,12.487005860213685
1018,17.798890416077484
1019,-13.147778466129239
1020,-61.018897698116234
1021,-99.26536436832885
1022,-102.5110757431521
1023,-69.22392926808607
1024,-19.965822568957265
1025,23.8583465468746
1026,46.891680089308466
1027,52.867279884277195
1028,49.258247572535765
1029,43.10468460841912
1030,35.60369225861905
1031,23.863371600932624
1032,4.924823523022496
1033,-19.735851278828704
1034,-38.5695523009872
1035,-38.625179233710696
1036,-9.284631962438652
1037,40.18918943096014
1038,90.43738466689774
1039,122.166053266792
1040,126.00129455178012
1041,108.44220764142756
1042,77.41289145243536
1043,40.4614446973419
1044,3.0639658832224086
1045,-30.024446689629258
1046,-54.004694929000834
1047,-62.92968095208016
1048,-49.598307086773275
1049,-6.746475873033887
1050,65.9799099358097
1051,144.53094737173524
1052,199.46173325067411
1053,203.7063641711884
1054,163.03993651311976
1055,107.06854643624138
1056,65.89228987892056
1057,56.91326255675449
1058,69.74155996122681
1059,90.29927735833553
1060,106.0865097872429
1061,116.52435205889924
1062,126.44289875469622
1063,140.5592442250636
1064,157.21748258813022
1065,166.1967077283207
1066,156.67001329500454
1067,122.74349270108723
1068,79.40023912164179
1069,47.13534549252654
1070,45.0989045089791
1071,70.64200862425787
1072,103.48075004821294
1073,122.84922074591486
1074,117.23451243624913
1075,96.73071659052766
1076,74.51792443107843
1077,62.075226929844575
1078,57.907714806986405
1079,54.539478529472035
1080,44.60760830966683
1081,26.50919410393908
1082,6.117325611232445
1083,-10.1899077283324
1084,-16.25641673487371
1085,-6.77211249015636
1086,23.38409366097403
1087,77.85829010920133
1088,140.94956497930798
1089,183.2390061287606
1090,175.19070114629358
1091,110.23273735048133
1092,26.047201788338498
1093,-34.60581876612014
1094,-37.663237813289015
1095,0.44203087060304824
1096,45.103073232077804
1097,62.74097493897352
1098,43.75282137903196
1099,2.179697658488294
1100,-46.930311399382845
1101,-88.92612125565574
1102,-110.23464765719837
1103,-97.44580663807756
1104,-41.3575145209943
1105,33.309312081306416
1106,85.42975626459884
1107,74.80590083177958
1108,0.055828291428042576
1109,-91.39037914361143
1110,-148.955639557631
1111,-139.64687133350526
1112,-90.18999315407382
1113,-39.99192400359425
1114,-24.922583169127392
1115,-44.25289024197991
1116,-75.74276511908101
1117,-97.09912800443453
1118,-98.41689941050208
1119,-88.11400015962863
1120,-76.08835138543873
1121,-71.10187453425715
1122,-77.43149136650027
1123,-98.25112395808901
1124,-135.5366947018556
1125,-177.08412630893326
1126,-201.42734181016203
1127,-187.25626455748534
1128,-135.23981822534552
1129,-81.0679268120748
1130,-63.587514641300004
1131,-108.23950636330665
1132,-184.68782695644586
1133,-248.09040172852292
1134,-257.2411563181631
1135,-215.4820166962054
1136,-155.78890916708042
1137,-111.42376037016948
1138,-98.29049728120845
1139,-104.88504721363643
1140,-117.27833781995469
1141,-125.28029709312614
1142,-133.5798533679099
1143,-150.57493532221815
1144,-183.2064719785012
1145,-222.3073927050773
1146,-248.684627217488
1147,-243.3581055798404
1148,-205.61575820618418
1149,-160.95251586180166
1150,-136.90830966458634
1151,-150.88707108635936
1152,-185.20673195420932
1153,-214.59122445181492
1154,-216.8184811207666
1155,-197.54843486189384
1156,-177.28901893658076
1157,-176.07916696808388
1158,-193.7478129428182
1159,-205.89189121170602
1160,-186.6823364914344
1161,-125.64108386577755
1162,-54.46406878689231
1163,-12.046227076594732
1164,-29.714494927657142
1165,-87.31980890507657
1166,-143.31710594737342
1167,-157.91432336783691
1168,-128.37239885582312
1169,-86.1752704779883
1170,-63.99287667957287
1171,-77.44915628565104
1172,-107.90504850236721
1173,-132.61049291820382
1174,-134.1144295052054
1175,-119.7807986202115
1176,-104.22554100611342
1177,-100.803597793054
1178,-107.81791049965614
1179,-113.753421034251
1180,-107.08707169607442
1181,-84.05180517647932
1182,-51.49756456014438
1183,-17.04529332624952
1184,11.703064650315355
1185,27.223565097767278
1186,22.00226334625586
1187,-9.10478567330938
1188,-55.01852743042764
1189,-97.9029077961859
1190,-120.62387304438744
1191,-119.48236985273434
1192,-102.44634530394978
1193,-77.87074688692519
1194,-53.02052249787266
1195,-33.23262044141302
1196,-23.658989431742157
1197,-27.448578593717684
1198,-40.23433746398405
1199,-55.88021599207059
1200,-68.51516454148623
1201,-74.56513389082102
1202,-71.61407523482558
1203,-57.46994018548503
1204,-35.09068077311531
1205,-12.558249447383787
1206,1.840400921581022
1207,3.1933170421689283
1208,-6.798454799767569
1209,-25.668868741962797
1210,-50.33587934675597
1211,-75.25544160212303
1212,-94.256510922698
1213,-101.89204315078678
1214,-99.08699455737042
1215,-90.0573218431
1216,-78.98198213929936
1217,-68.38793300893485
1218,-59.181132447603886
1219,-52.18953888450051
1220,-48.43511118338756
1221,-49.26080864353571
1222,-56.052591000683606
1223,-68.58341842797563
1224,-80.69425153690099
1225,-84.85605137820312
1226,-74.69177944282819
1227,-52.612397662798685
1228,-25.041868412150507
1229,1.743845492193941
1230,24.453780789519442
1231,42.33197377446959
1232,54.720460296126475
1233,62.11127575718456
1234,66.77345511308704
1235,71.11803287116527
1236,75.78304308980478
1237,76.34151937761817
1238,67.45049489261328
1239,45.83400234137298
1240,19.576073978263594
1241,0.6697416046190483
1242,0.00503656795626739
1243,16.065989761189485
1244,39.54863162186484
1245,61.1719921313761
1246,75.82010081421686
1247,82.95998673724534
1248,82.32667850890721
1249,78.46820427855528
1250,85.15659173566382
1251,117.21386810917102
1252,180.62006016673513
1253,250.7371942140635
1254,296.30129609419237
1255,292.0193911868482
1256,250.9685044077396
1257,201.33866020792266
1258,169.51388257312465
1259,158.51919502312194
1260,155.4786206110948
1261,147.60818192300758
1262,134.14790107698536
1263,128.02279972270662
1264,142.8278990408253
1265,182.7092197423499
1266,233.88378206809284
1267,280.54760578808964
1268,310.29871020103565
1269,321.83811413374497
1270,316.1178359405967
1271,294.51389350301906
1272,260.7683042289518
1273,219.46508505235033
1274,175.72425243266662
1275,140.10982235436677
1276,126.38981032645097
1277,147.2762313819694
1278,192.40110007756448
1279,229.61643049302256
1280,226.35123623082472
1281,175.038530415708
1282,105.51632569425601
1283,50.67663423447084
1284,31.342467725386086
1285,39.36383737665528
1286,62.32775391818359
1287,89.03822759974355
1288,113.12326819062764
1289,129.38788497927453
1290,133.85708677295224
1291,130.49188189739834
1292,126.42727819653192
1293,128.35928303210858
1294,137.8179032834487
1295,153.11414534712821
1296,172.41901513671473
1297,191.90151808247901
1298,205.85365913115857
1299,208.56544274569387
1300,198.78787290500622
1301,181.61795310376147
1302,162.6476863521475
1303,145.42507517570266
1304,129.12012161507118
1305,112.33282722587319
1306,96.59819307849284
1307,93.19421975794103
1308,115.42090736369755
1309,170.22925550957007
1310,232.01926332356743
1311,264.78292944779423
1312,238.64925203832354
1313,172.98622876511945
1314,110.7848568119498
1315,92.09413287631651
1316,116.48605316938301
1317,155.2816134159475
1318,180.23880885437393
1319,186.55263423659198
1320,192.76008382807595
1321,218.0061514078243
1322,262.1588302683922
1323,297.96211321588453
1324,296.2609925700199
1325,247.97946016412607
1326,184.01850734524123
1327,140.03212497414825
1328,137.7753034254638
1329,159.55903258772378
1330,180.7253018634783
1331,183.4031001694202
1332,177.42741593649043
1333,179.6972371100237
1334,202.81155114988542
1335,234.18634503065368
1336,252.0946052417603
1337,238.46631778769552
1338,206.22246818819804
1339,183.86004147845415
1340,197.42202220932813
1341,240.74839444758072
1342,285.77814177612345
1343,305.1292472942696
1344,293.1716936180055
1345,263.9624628802467
1346,232.08253673116997
1347,205.8348963384833
1348,186.03052238775854
1349,173.04239508274804
1350,167.73549414574154
1351,171.73279881790222
1352,186.7032878596401
1353,211.3579395509878
1354,238.361731691999
1355,259.6326416031279
1356,270.5156461256738
1357,275.5337216221833
1358,280.7428439769046
1359,288.4809885962368
1360,287.9901304091891
1361,265.62824386786997
1362,214.75130294795417
1363,160.90228114921774
1364,138.89615149603014
1365,175.32288653788783
1366,247.48745834994952
1367,314.4548385336111
1368,339.74399821704174
1369,321.9909080557809
1370,276.26453823333395
1371,217.86385846176017
1372,163.43183798230166
1373,130.40444556601506
1374,134.49764951440557
1375,168.19341766008984
1376,207.3827173674672
1377,228.7585155333909
1378,230.08277858787733
1379,227.34347249480197
1380,236.5915627526265
1381,260.5810143951294
1382,288.26879199215364
1383,308.109859650378
1384,313.6731810140682
1385,304.83871926588836
1386,281.9784371276746
1387,250.2062968612663
1388,221.5692602693307
1389,208.5622886962028
1390,215.28234302871897
1391,231.41038369710623
1392,245.22437067585452
1393,247.74126348459868
1394,235.4720211890417
1395,205.59560240185965
1396,161.99196528363063
1397,124.09206754380284
1398,113.52786644162916
1399,138.86131878715423
1400,173.52438094218996
1401,185.09800882133095
1402,154.807157892943
1403,105.95978318021844
1404,69.9798392621924
1405,69.42928027480775
1406,95.72905991197513
1407,133.45213142666944
1408,169.21744763199968
1409,197.8279609023357
1410,216.0986231744173
1411,221.92338594849934
1412,217.90620028950252
1413,207.9880168281561
1414,195.80678576219543
1415,183.57945685753657
1416,173.07697944949723
1417,166.32630244398024
1418,166.67837431875887
1419,177.93114312465696
1420,201.56855648686542
1421,225.35056160617023
1422,231.99110526026925
1423,209.93613380504394
1424,184.38559317590807
1425,195.03842888910185
1426,272.39158604304794
1427,383.459009319713
1428,468.6206429859594
1429,477.8244308949452
1430,431.53131648750787
1431,381.3802427935898
1432,372.5941524336413
1433,400.03998762008996
1434,435.32769015875783
1435,453.25920145035525
1436,455.15846249195056
1437,455.02141387846495
1438,465.0299958041851
1439,481.7321480642822
1440,494.02681005634986
1441,492.24492078195
1442,479.3104188481848
1443,464.42124246928506
1444,456.26832946817194
1445,458.81961727809903
1446,473.6790429442426
1447,501.6015431253727
1448,536.3740540954641
1449,568.2725117453865
1450,588.0908515845731
1451,591.207008742711
1452,575.2769179714487
1453,538.7555136461251
1454,486.4307297674841
1455,426.211499963445
1456,366.3567574908466
1457,317.78443523724127
1458,292.6744657226718
1459,300.2207811014887
1460,326.7573131641566
1461,348.10899333909765
1462,343.17275269454694
1463,313.5515219403933
1464,270.8422314300751
1465,227.11481116246614
1466,197.35119078377465
1467,197.75129958947036
1468,239.0380665262146
1469,297.0454201938119
1470,333.937288847168
1471,319.29060039827164
1472,266.61628241817925
1473,205.433262139024
1474,160.78746645603678
1475,133.41582192958958
1476,115.89425478721205
1477,101.67369092568697
1478,88.57205591312777
1479,75.73827499103754
1480,62.95027307644341
1481,52.75397476402031
1482,48.46330432819923
1483,51.1301857253402
1484,52.869542595881285
1485,43.579298266529804
1486,18.141375752436943
1487,-11.125302240579913
1488,-28.087813313823062
1489,-23.81423537347837
1490,-11.518646628366696
1491,-8.65712558767882
1492,-23.384751058698384
1493,-38.879602144501405
1494,-34.223758241661926
1495,-3.5972990379177645
1496,23.62669549014936
1497,13.237145079487163
1498,-43.04203081707419
1499,-101.37891302845128
1500,-112.08858266289826
1501,-60.376121105611674
1502,8.322389983703033
1503,43.14986867326479
1504,24.139232761661333
1505,-23.147600219668675
1506,-69.85871300397412
1507,-101.2431885866863
1508,-120.17911022290536
1509,-130.53656142488944
1510,-132.93162595950707
1511,-124.55638784568691
1512,-102.75093135185307
1513,-70.7873409933436
1514,-37.17970152980524
1515,-10.32009796260536
1516,5.685384467818949
1517,9.883660284584039
1518,1.9596437770105695
1519,-12.370750996698916
1520,-23.74861020678327
1521,-23.719020249218374
1522,-11.67606774302294
1523,9.167160472477917
1524,34.22457734040108
1525,50.45309558904046
1526,41.503627734648035
1527,-3.6309139157874597
1528,-69.71561726173968
1529,-133.47957040634174
1530,-175.55986165354443
1531,-191.42157950529509
1532,-180.0408126586699
1533,-144.49065000300106
1534,-99.73318061701684
1535,-62.857493765910476
1536,-43.07667889845652
1537,-32.04182564407529
1538,-19.10402380987398
1539,-1.183363377722344
1540,11.825065498738695
1541,8.948172497068299
1542,-12.021132870971996
1543,-41.688941256388716
1544,-70.02134346997627
1545,-90.77843047920578
1546,-101.57529340525252
1547,-100.40102351985115
1548,-88.36971224226
1549,-69.006451136147
1550,-45.81833190647194
1551,-21.51544639637541
1552,1.6611134159775247
1553,21.30625542054804
1554,33.86788737857751
1555,35.292916925800455
1556,22.270251575613656
1557,-4.830201277702145
1558,-44.49853435574005
1559,-92.68884049276312
1560,-136.50221263240746
1561,-161.10474382445318
1562,-159.18752722150748
1563,-142.03265607574212
1564,-123.70722373554418
1565,-113.16232364222924
1566,-110.32704932667912
1567,-114.18849440599115
1568,-122.96175258011681
1569,-133.89091762847784
1570,-144.30508340657798
1571,-154.55634384257246
1572,-167.73279293386986
1573,-185.87252474368688
1574,-197.80363339758333
1575,-183.87321308001628
1576,-130.16635803085046
1577,-66.09416254185271
1578,-40.37872095322382
1579,-86.68212765002863
1580,-165.632477058698
1581,-215.90786364345513
1582,-199.0783819027747
1583,-149.33312636578376
1584,-115.08619158868169
1585,-120.14167215114685
1586,-136.45566265269372
1587,-129.91225770905476
1588,-91.37355194854172
1589,-47.2056400083693
1590,-25.518616530987856
1591,-33.02957616039748
1592,-55.86361353844586
1593,-79.48682330111842
1594,-91.77830007479861
1595,-82.16713847252868
1596,-44.33043309025925
1597,-1.2472785030768136
1598,11.640230738581522
1599,-28.888999887269165
1600,-93.34606487036763
1601,-138.10305866436283
1602,-136.02407568298804
1603,-104.12321029620216
1604,-66.67155682632256
1605,-42.7602095441689
1606,-42.65126266513107
1607,-74.8848103453056
1608,-123.77694667753349
1609,-147.10876568751155
1610,-105.68736132980848
1611,-18.5368274839293
1612,54.25674204967254
1613,61.781253553566785
1614,26.606613397369074
1615,3.810728041727998
1616,33.02550404236899
1617,87.23184805413075
1618,121.6906668350166
1619,112.10286725026526
1620,85.8503562764181
1621,78.00204100543488
1622,101.16282864878121
1623,133.34962654155424
1624,150.53534214661522
1625,148.1388830587366
1626,140.07615700875795
1627,139.22207186776723
1628,140.23953565126976
1629,127.17145652340878
1630,89.83974280115217
1631,50.736302958539454
1632,43.57504563090697
1633,85.22887961913511
1634,140.16371389392407
1635,162.9474576000648
1636,136.97102006071873
1637,97.34631078173697
1638,83.52223945597325
1639,106.58371596759207
1640,147.42865039642675
1641,185.85195302234388
1642,206.0755343295823
1643,195.08930501114446
1644,146.36517597320199
1645,90.59705833948101
1646,71.82886345568477
1647,113.10550289393723
1648,172.03288845719908
1649,193.92093218375157
1650,161.75654635164392
1651,123.68664348318453
1652,132.11013634943083
1653,187.73593797469402
1654,240.1179616410518
1655,242.3531208928962
1656,203.78632954145905
1657,165.37650166936874
1658,159.24555163523473
1659,172.60339407820175
1660,179.0369439225633
1661,165.03811638235675
1662,149.908826965986
1663,157.65699148083877
1664,191.8565260379437
1665,227.84134705661563
1666,240.2923712691172
1667,225.28251572534646
1668,195.26969779751744
1669,162.95583518487365
1670,139.7868459183901
1671,136.69564836550126
1672,155.14816123485798
1673,165.02530358103832
1674,130.0079948093553
1675,47.578154680597436
1676,-26.592296684171743
1677,-34.13543879881763
1678,20.56364919266889
1679,75.18188852100684
1680,73.84220079644729
1681,31.663508013609317
1682,-1.611267443642646
1683,9.240797202657632
1684,42.228625129455395
1685,61.66813991757226
1686,48.38126555660165
1687,14.739926449830818
1688,-23.539952580831596
1689,-56.00544628993521
1690,-77.4406290035131
1691,-83.10557461414646
1692,-70.69635657597792
1693,-39.1390478997364
1694,4.1072788522669725
1695,18.23455157112585
1696,-45.35530139362527
1697,-186.96635122898533
1698,-316.2116686534682
1699,-337.0893239120296
1700,-248.4283867710128
1701,-138.9449265130852
1702,-89.72801193213854
1703,-93.1497113282112
1704,-99.72809250237151
1705,-75.12022275160962
1706,-38.85416886369967
1707,-21.91699711207184
1708,-33.22077325066766
1709,-45.43456250876079
1710,-30.21942958580985
1711,2.0385613537418976
1712,9.63934668564616
1713,-39.03813666894712
1714,-106.70795123827247
1715,-129.52115899472756
1716,-75.16682134963685
1717,2.0010008519875555
1718,34.23024733670718
1719,6.615858407914857
1720,-28.04322504887932
1721,-18.71706156077198
1722,17.29629093783751
1723,20.749775110549308
1724,-48.32966577572006
1725,-142.11508784540638
1726,-188.92154660896722
1727,-158.2090969575247
1728,-98.60579315752148
1729,-65.56368884534186
1730,-71.56583702193711
1731,-90.58929004744368
1732,-98.4340996357787
1733,-92.48231684923485
1734,-78.91699209306898
1735,-62.16217511006471
1736,-41.69991497510455
1737,-16.470260089721705
1738,4.15674182335988
1739,-1.9519562743134884
1740,-52.939400731453134
1741,-120.8426372015283
1742,-151.99471063729106
1743,-112.2636652852616
1744,-41.80954468021355
1745,2.315608360338956
1746,-4.567248258318614
1747,-36.04315590255919
1748,-62.546155204872775
1749,-72.80828605829629
1750,-68.42858761085154
1751,-53.368098259967155
1752,-41.47485564688577
1753,-49.43189665107366
1754,-80.16625738461607
1755,-110.29397318659994
1756,-115.14107861748835
1757,-99.18160745350178
1758,-91.13759268095419
1759,-111.80006649063216
1760,-133.05306027211645
1761,-109.8456046081219
1762,-30.371729268818854
1763,44.522536793844665
1764,47.9561654518393
1765,-13.612870593241496
1766,-65.97859780447834
1767,-47.71004180390537
1768,6.950772633219458
1769,27.247821584142912
1770,-19.25791801563446
1771,-75.2164683666133
1772,-73.35985079952843
1773,-10.925085769593352
1774,52.67680714929156
1775,65.44480927030509
1776,39.22390279950832
1777,10.832070841648601
1778,1.338297405945923
1779,-5.247432588069387
1780,-28.871133304744944
1781,-60.95881798647133
1782,-65.98549894784901
1783,-18.001187569836475
1784,44.051105706103044
1785,57.01737138385852
1786,-2.042399081455187
1787,-67.70021327762788
1788,-66.88707782945767
1789,-3.5909983928740985
1790,50.954020350968676
1791,40.388974701594634
1792,1.361861945120836
1793,1.4056803601724823
1794,61.75442922381717
1795,114.17510881749422
1796,86.0827204329571
1797,-7.686733621781968
1798,-86.04825001648987
1799,-86.9888243927544
1800,-41.807451358016806
