800,-13.111427384368312
801,-9.371016880461298
802,-17.59499331839936
803,-36.09035181599518
804,-59.530188351597985
805,-82.54019977760413
806,-99.08498383378503
807,-100.83093916043697
808,-78.95236531135924
809,-25.034762766660606
810,54.803567054617474
811,136.23572178204222
812,193.79919808150498
813,205.3599916431101
814,174.7032971692331
815,117.81130836274542
816,50.71421791541263
817,-14.390182503542746
818,-75.00390225871342
819,-130.1444517596069
820,-178.78524247158418
821,-219.02208692663658
822,-248.1412987339927
823,-263.40009259056933
824,-263.79768429125215
825,-257.4388907390255
826,-255.39272995493525
827,-268.5738210878899
828,-295.8070844243149
829,-315.11784139763233
830,-302.4880145976024
831,-237.20042777948777
832,-134.7858058730867
833,-33.238874991590365
834,29.133937559704236
835,28.752303274828137
836,-10.527707561261309
837,-55.321525880938
838,-73.2327838420158
839,-58.21641483570306
840,-32.9731534944126
841,-21.64903569942021
842,-42.80639858837651
843,-81.36588056267908
844,-109.69982129468667
845,-100.36026173480172
846,-45.604744118398344
847,25.673988027384098
848,80.60178987699533
849,89.11321529996962
850,53.18041685455887
851,-4.7944542184930015
852,-62.086948002034205
853,-100.78011590845392
854,-118.11631068549343
855,-114.32268642191684
856,-89.8511985530539
857,-50.56680386619473
858,-7.869160505865352
859,26.593672021043517
860,43.581732840271115
861,46.599159705321995
862,43.35208899272175
863,41.455655697414386
864,42.615993428284014
865,39.203234403802185
866,22.759509447813116
867,-13.047052014565566
868,-55.95162196090246
869,-84.06687377529965
870,-75.47948225210246
871,-23.47712359949503
872,42.15502455703472
873,86.26808317135374
874,76.42217177345401
875,20.10940846636049
876,-44.693590076856594
877,-79.24920861593637
878,-57.18783334617308
879,3.419148098965479
880,74.52484664532744
881,128.63237177569613
882,152.65983152751028
883,149.04633249071208
884,120.99597980570479
885,73.6938771614225
886,22.68612679351918
887,-13.105170517339275
888,-15.092915447057521
889,17.90898987040009
890,61.55064184164985
891,89.4481354126217
892,79.59556406741285
893,42.36501982724303
894,2.642593249520587
895,-14.720626572987385
896,2.214447987124913
897,40.255903091278924
898,83.31982343440677
899,116.17929224453792
900,132.38539128249136
901,130.6462008416761
902,109.74179974798972
903,71.88526535981237
904,27.92067356811299
905,-9.971901203357902
906,-30.5083859977633
907,-34.942709324790485
908,-33.761801160152345
909,-37.66459294499964
910,-51.4780175852336
911,-61.480009450723514
912,-50.30150437442967
913,-1.9124396514359887
914,74.43524596211932
915,147.0066122501962
916,183.2807175381024
917,161.3636186938345
918,100.17737112950681
919,28.432028802873447
920,-25.95035578106331
921,-54.62173156835479
922,-69.5460489543184
923,-83.6322597816669
924,-105.49361733854482
925,-124.41577635648787
926,-124.24999300828631
927,-89.53312490577264
928,-26.269131097523996
929,34.381227933524315
930,59.81799027254306
931,26.873192575353414
932,-39.69112992894338
933,-99.930943435254
934,-114.66071555971075
935,-73.9909153367978
936,-5.5590132164065835
937,60.53051893918655
938,98.86270785842612
939,109.94957886365341
940,103.21715587436256
941,87.9454614105282
942,66.84551659601402
943,33.71234116204755
944,-18.292046549225233
945,-92.32562958111464
946,-170.17519235869224
947,-225.947320685019
948,-234.21110173730733
949,-191.5304240630113
950,-125.04677757584568
951,-64.16945355173675
952,-33.800044624708335
953,-32.40374478269223
954,-48.85054936328015
955,-71.96445504940198
956,-89.14945986494286
957,-85.86056317029261
958,-47.40076565783147
959,34.42893065265025
960,130.7795224185909
961,199.68400497936705
962,200.10637236105686
963,130.1586172812722
964,39.942731154046214
965,-16.83429590521382
966,1.2605249252806061
967,69.8621811787732
968,142.6836591050867
969,174.31994367581274
970,151.4950185895525
971,100.72486627721901
972,51.009467907394765
973,25.56880339174154
974,19.522851390470578
975,19.48358931786379
976,12.28799334784867
977,-8.54296158037073
978,-41.99930175663235
979,-86.67405469408277
980,-138.888549123389
981,-185.31331498690508
982,-210.05068343278174
983,-198.00868680903034
984,-152.2708586575377
985,-93.81093370802853
986,-44.36844787198402
987,-20.143638236510014
988,-17.383543058159603
989,-27.841201756709324
990,-43.23765490888695
991,-54.75494424205772
992,-53.1251126278637
993,-29.06920407581788
994,18.21473627314208
995,64.47466215314626
996,80.84152617992663
997,41.18627985739204
998,-45.260126415753575
999,-144.7431433393525
1000,-223.04782270509668
1001,-259.2236173897868
1002,-263.6537813485561
1003,-251.246369608054
1004,-236.91803825959028
1005,-232.62924445224394
1006,-230.42874638593264
1007,-214.16130330444753
1008,-167.98327548845077
1009,-93.06042424843861
1010,-14.97601191766762
1011,38.79049815495182
1012,46.37404161199606
1013,16.529553094703942
1014,-31.63803374981694
1015,-79.1287862613508
1016,-111.01027275930096
1017,-117.12196253538707
1018,-87.571725846312
1019,-17.29883390639725
1020,78.33454111981018
1021,178.56732612496216
1022,263.4084470663606
1023,328.5768289734367
1024,384.3533959552626
1025,441.57107120808155
1026,508.5597770228742
1027,585.7574347929433
1028,672.050965021532
1029,765.1092873294588
1030,846.712320462784
1031,887.4829823004984
1032,857.8831898622336
1033,748.5468593159983
1034,595.935905985938
1035,442.8572443601122
1036,328.0517880983007
1037,255.29445003982414
1038,210.64414221138964
1039,180.09677583495568
1040,155.2522613356175
1041,136.66750834951108
1042,125.70542573173611
1043,123.0269215642968
1044,125.40490316406226
1045,128.27027709074673
1046,127.20694915489776
1047,122.07482442591208
1048,117.41880724005955
1049,118.02980120852817
1050,125.81470922548033
1051,132.49543347612598
1052,127.54487544480912
1053,101.47193592310873
1054,59.04451501795279
1055,15.380512159746559
1056,-14.19117388949212
1057,-20.308645027977036
1058,-6.684003805992006
1059,21.24364658228251
1060,58.01520230695428
1061,98.08955891061441
1062,135.8866113165434
1063,165.777253836922
1064,180.3733801810581
1065,169.91588346361482
1066,124.47365621285212
1067,41.22159037887195
1068,-52.67452265812551
1069,-122.12149207958225
1070,-134.33352762031507
1071,-94.07383956024296
1072,-36.468138716107774
1073,2.5234635668098235
1074,3.2364554229764053
1075,-15.949275525101257
1076,-31.22784215857871
1077,-22.012357853976255
1078,7.626063525124437
1079,42.26430763638473
1080,66.68625966701529
1081,76.46180434208486
1082,81.15482593283014
1083,91.270208264968
1084,111.8508347270033
1085,126.99758827854191
1086,115.78835145860262
1087,60.01800639392434
1088,-22.39006519272209
1089,-87.92778197422956
1090,-92.79156301084663
1091,-26.02292774187663
1092,60.00250402262475
1093,105.66301211014377
1094,65.00757599400504
1095,-28.437025198340734
1096,-112.56101267703048
1097,-127.75770798150756
1098,-72.42503297224766
1099,-2.1260098224875037
1100,25.160338990039122
1101,-22.453009308639025
1102,-107.29167778048168
1103,-180.1985897671907
1104,-198.3762688819727
1105,-170.5602390013106
1106,-130.38932425673988
1107,-110.99984902663869
1108,-120.58083792802074
1109,-135.93491580834143
1110,-131.84970773731277
1111,-94.08373899872561
1112,-45.65133508228723
1113,-17.480021675463718
1114,-36.86692465533861
1115,-93.61617008047654
1116,-155.4929841828084
1117,-190.27339335951683
1118,-182.60822416494238
1119,-142.08690330249988
1120,-80.31425761660705
1121,-8.980414084627796
1122,59.91520019117104
1123,114.28865799164942
1124,142.7414319888088
1125,142.06439475379352
1126,114.39441876487263
1127,62.06137641541227
1128,-6.311859978171924
1129,-72.07761816847585
1130,-115.67692596918823
1131,-123.06181124718375
1132,-103.130001914638
1133,-70.74612592115614
1134,-40.28161124591986
1135,-19.984285889856892
1136,-14.031077867822205
1137,-26.480015200802768
1138,-58.35222590813942
1139,-105.87433799976736
1140,-164.84757946847867
1141,-227.80677828220314
1142,-274.3120623763107
1143,-280.6842596459297
1144,-227.2260979382952
1145,-138.46010504510878
1146,-66.41730869492733
1147,-62.708236545568184
1148,-135.95111617654004
1149,-233.12057508149428
1150,-296.3932406607005
1151,-287.07994021354386
1152,-232.7776009310454
1153,-175.42894988840806
1154,-153.29991403758436
1155,-171.05212019986857
1156,-215.4562950585157
1157,-272.9214651513803
1158,-323.855556863587
1159,-341.47449642022
1160,-298.57540987904235
1161,-186.95812312323903
1162,-50.62266185418616
1163,57.51774841575161
1164,92.87868237039788
1165,67.58081489691563
1166,17.304321092930763
1167,-23.435223726374943
1168,-45.50824402119406
1169,-63.23076402005563
1170,-91.71870771281294
1171,-133.69349884366022
1172,-166.9679609041808
1173,-166.35661712642104
1174,-115.49689047599486
1175,-39.30680364521902
1176,25.231220953724574
1177,44.40216119559341
1178,23.4295952488593
1179,-7.039198417545663
1180,-16.31824102751409
1181,7.6401465089167
1182,51.34624360221869
1183,99.45852998999226
1184,143.00678574355368
1185,191.9046912744933
1186,259.55512734119714
1187,356.1749750553388
1188,470.23411588833903
1189,581.1324316777884
1190,668.8238046338441
1191,724.159117345584
1192,747.4532527873341
1193,739.3840943249597
1194,704.6195257221219
1195,654.8634311465006
1196,602.5476951759815
1197,556.356202804811
1198,510.86783944971285
1199,457.3424909559734
1200,388.67004360348596
1201,311.5373841127647
1202,239.56639965092063
1203,185.82797783760032
1204,149.42100675089227
1205,115.51667493318939
1206,68.78707139702396
1207,8.0751856308583
1208,-40.016492395157684
1209,-45.643372223467736
1210,7.819137096572376
1211,83.42692701433884
1212,130.65648948354476
1213,107.06991696781051
1214,41.23650244619034
1215,-1.550760581334771
1216,41.24632191159492
1217,162.05884448313168
1218,284.0232022285951
1219,327.68489078580694
1220,258.1733063403873
1221,123.97624563101101
1222,-17.24689404537503
1223,-116.55711482837648
1224,-157.3084182890135
1225,-130.2887054246255
1226,-32.37827665381451
1227,93.54246818857007
1228,183.57252985640594
1229,177.48650969723064
1230,81.6507096571354
1231,-41.10466771438507
1232,-126.72391925962097
1233,-147.01274120788105
1234,-128.90782917076592
1235,-104.04267813748288
1236,-93.29538247020344
1237,-86.76623589946394
1238,-69.0845315196076
1239,-29.58696178426817
1240,16.3700814981014
1241,44.49440716865956
1242,33.93452472256263
1243,2.632644313309356
1244,-7.123223242960421
1245,45.61263353679374
1246,153.83092680672507
1247,257.8508693962699
1248,295.55387481427283
1249,240.14085725307064
1250,132.56463159253042
1251,21.473013404041467
1252,-52.33518104553309
1253,-75.3099347899514
1254,-39.781030159733405
1255,55.75815122165727
1256,173.3898284415826
1257,259.6498213019571
1258,265.5638503229285
1259,199.32413674651514
1260,108.05010254019521
1261,38.86947040045243
1262,16.148163756276745
1263,38.34810677261669
1264,102.42832435379034
1265,194.6099421468458
1266,280.7232865448792
1267,324.2959846903045
1268,303.446164478079
1269,243.83415455888098
1270,180.79788434224122
1271,144.55208399962987
1272,136.01438446749398
1273,145.75281745025086
1274,164.22861542323335
1275,181.01661163558856
1276,185.1658401131299
1277,166.4378356611419
1278,129.71413386713857
1279,94.1498711035739
1280,79.24928453050461
1281,92.20401209820818
1282,121.77719254974863
1283,155.22466542350162
1284,183.44917105562558
1285,206.11055058248792
1286,224.15504594304514
1287,237.50449988117236
1288,242.04805594794664
1289,232.68135850388114
1290,205.75185272111366
1291,167.07938458554406
1292,126.27570089892674
1293,92.64704928091226
1294,71.88187817104222
1295,67.4070368306958
1296,82.23317534498756
1297,111.3073446246176
1298,141.90749640767172
1299,161.22418326137506
1300,167.51235858379596
1301,174.84057660550184
1302,198.43699239116575
1303,241.4496618411256
1304,280.9529416928924
1305,290.6103895226132
1306,255.85006374648162
1307,201.0825236221017
1308,158.7946292498027
1309,154.38164157390395
1310,176.8182223839325
1311,203.43993431579054
1312,213.87534085287348
1313,206.2426063271406
1314,187.52329592013552
1315,164.27267566395778
1316,136.71891244218534
1317,100.67607399074859
1318,52.3592288987536
1319,-0.7463533907405235
1320,-39.937302579998004
1321,-46.3500475159276
1322,-16.935316189455534
1323,29.10746426505284
1324,70.9565675703235
1325,96.14446830665293
1326,108.84564191233858
1327,115.2034646840633
1328,118.01681377722468
1329,110.58696720622038
1330,84.53710384468184
1331,35.20720342565937
1332,-26.895253458242564
1333,-87.3902853547786
1334,-132.18550995202474
1335,-148.92434407839096
1336,-125.87270370268118
1337,-54.65420393420425
1338,44.72224097706692
1339,137.9896176402874
1340,192.3945135234818
1341,195.7600169532384
1342,149.89301711435303
1343,58.165804049425105
1344,-50.99213134159754
1345,-126.46509730192042
1346,-118.02540121845391
1347,-31.89684962241506
1348,58.347551810023674
1349,75.98729825703583
1350,-3.1894142496063296
1351,-121.29728882532834
1352,-213.43172773359788
1353,-239.68413238681927
1354,-211.33440334727464
1355,-145.9360403281156
1356,-63.030342194402806
1357,12.537993035805812
1358,55.02666819031913
1359,48.92978694162639
1360,14.810653805665652
1361,-18.82182585946032
1362,-28.083245854812503
1363,-10.442899141995554
1364,30.49522215541765
1365,87.12202675040885
1366,127.92632419099334
1367,112.53362485864818
1368,10.795639966694011
1369,-127.72951844137219
1370,-216.16583749359108
1371,-178.4239034913037
1372,-50.583001910960775
1373,65.98008259401934
1374,77.35686619134538
1375,1.4257658679017595
1376,-64.15470057225264
1377,-25.650814509931138
1378,108.09784348708718
1379,239.5624936619147
1380,271.6998570663677
1381,193.11385555872982
1382,81.26821180147056
1383,16.210249258916065
1384,22.252492194872275
1385,54.89106567020326
1386,65.85439554036225
1387,33.60840845287589
1388,-24.356168155217574
1389,-87.47830605997603
1390,-137.705376253208
1391,-161.29574894517225
1392,-145.04899356732358
1393,-93.12947877510612
1394,-44.463272450788736
1395,-42.03784170635049
1396,-99.62905288640718
1397,-163.06017157118686
1398,-168.53196257954755
1399,-87.10038997204379
1400,16.503182945965705
1401,61.94839362116363
1402,5.144680249073872
1403,-86.16201822918106
1404,-122.68776213017009
1405,-49.825911031483884
1406,65.05037622488612
1407,127.74044152912734
1408,73.93502750014113
1409,-41.78232251796817
1410,-135.2782644594431
1411,-143.90175354047233
1412,-100.75284426282906
1413,-65.56419041755555
1414,-84.39144508868856
1415,-135.60016065703007
1416,-176.69318880395883
1417,-172.8802805152868
1418,-131.3944860851568
1419,-73.6682551199824
1420,-19.260936542431978
1421,23.51662140454812
1422,50.47297115366359
1423,58.989665809166354
1424,56.49305914270167
1425,54.37140558911699
1426,61.0728602422281
1427,64.79327885054329
1428,45.2313178129491
1429,-12.082165825648076
1430,-78.90671437871879
1431,-108.10866952254867
1432,-61.65037230071846
1433,28.07863687137865
1434,96.16171820197803
1435,87.94753251834413
1436,32.236241262131784
1437,-2.289293515291888
1438,42.41409084243685
1439,134.67305759191913
1440,198.82027058519975
1441,170.69199426493117
1442,85.35249365950233
1443,27.33493437812581
1444,68.7722826058889
1445,173.45010509876556
1446,250.70136917858997
1447,221.77964272799443
1448,112.6538941853089
1449,1.8998925394218986
1450,-40.11769267539489
1451,-15.4482913846972
1452,37.81786702088266
1453,84.63615368035062
1454,117.26224025702948
1455,141.2955989332006
1456,161.3427024047129
1457,173.39972387555292
1458,169.36443705237923
1459,142.4551161390258
1460,96.20603583096386
1461,38.88857130973679
1462,-20.09350176264661
1463,-63.403107249348295
1464,-70.20436854437514
1465,-27.355608578282954
1466,25.730350176082766
1467,27.71308569781411
1468,-67.71272358786507
1469,-210.6063988154408
1470,-313.3178606849773
1471,-305.684729468024
1472,-221.20492501355125
1473,-131.14506675391954
1474,-93.95037371088029
1475,-98.38296450160647
1476,-109.82315734475776
1477,-102.21957006657306
1478,-91.71772010699794
1479,-107.38492452583853
1480,-168.27430000894833
1481,-249.0946628744441
1482,-312.2891290789513
1483,-331.52471422388226
1484,-324.88093356173647
1485,-321.4132020024382
1486,-336.9370341196967
1487,-340.910344157399
1488,-292.64734603602847
1489,-177.68485335911168
1490,-62.213079419694395
1491,-27.859437206842586
1492,-113.09053941217542
1493,-240.48949843641708
1494,-313.4990263959836
1495,-278.693735129592
1496,-183.17563620489386
1497,-88.21604092514019
1498,-33.901260335865686
1499,-17.69840523160167
1500,-31.928986162614365
1501,-65.44381344166561
1502,-101.11259715080121
1503,-121.41314714815803
1504,-120.28057307480208
1505,-108.53618436158251
1506,-98.2494902360171
1507,-97.33329972919285
1508,-108.49482168269287
1509,-133.98256475554763
1510,-172.653837431203
1511,-219.78504802451732
1512,-269.9035046887709
1513,-306.9088154227044
1514,-305.3026880775741
1515,-242.49053036422913
1516,-141.13464986020915
1517,-57.10315401685966
1518,-41.26675016646902
1519,-82.83034552942524
1520,-133.84944722139085
1521,-152.0353622604946
1522,-145.77309757454498
1523,-148.182860008259
1524,-184.84605633051046
1525,-232.49079324159493
1526,-248.7972773805111
1527,-203.00911533225872
1528,-121.3695136351555
1529,-47.56877878816624
1530,-12.40071725825203
1531,2.2188645122702155
1532,25.9260600983489
1533,74.49596308480682
1534,123.4169670589323
1535,140.9681656030623
1536,112.76665228714614
1537,63.13252066129894
1538,21.46286424834068
1539,2.1167765363223907
1540,-6.378649028957739
1541,-17.904619051451732
1542,-40.21714019237231
1543,-72.9709191777132
1544,-114.9316628057777
1545,-156.99877795472332
1546,-182.08877159011138
1547,-173.9860507724702
1548,-135.18162266486695
1549,-82.62549454048485
1550,-32.683973790215646
1551,8.176032069745816
1552,39.23881539029503
1553,60.64546838180331
1554,78.07208310650049
1555,99.57575147084617
1556,130.49956521789704
1557,162.66561591966456
1558,183.7019949694734
1559,189.45479357430713
1560,204.5541027471554
1561,259.88401329935004
1562,361.1826158329027
1563,452.001000732836
1564,466.8902581595123
1565,385.43847804095685
1566,266.6807500651814
1567,176.810163672503
1568,144.94080804786404
1569,153.278772113149
1570,180.95414451949728
1571,206.16101363962116
1572,206.24546756011796
1573,162.94959407378838
1574,109.38148067194766
1575,111.63521453674684
1576,222.69088253348264
1577,394.8825712029259
1578,535.6803667536369
1579,574.8033550542923
1580,550.2936216260111
1581,532.7262516346848
1582,567.1653298833139
1583,617.7319408043443
1584,632.704168452012
1585,590.0220964946898
1586,530.1098082072438
1587,500.6923864633916
1588,518.2559137280675
1589,554.8954720497998
1590,580.1521430530852
1591,582.1430079307811
1592,566.8781474365003
1593,541.263641877016
1594,514.0925711046752
1595,495.38301450982067
1596,492.1600510132257
1597,490.44075905853583
1598,467.3262166047248
1599,410.2535011185562
1600,351.2056895670644
1601,334.11085841003955
1602,380.0240835925324
1603,448.82044053736786
1604,490.76900413766907
1605,499.626848749406
1606,543.0270481839457
1607,692.8286757006267
1608,938.1458039993454
1609,1177.3985052131536
1610,1310.6888509008838
1611,1322.801912039779
1612,1258.2117590181456
1613,1159.1984616280242
1614,1042.5420890578794
1615,913.7727098853006
1616,780.4533920697322
1617,658.9812029452187
1618,568.1082092131642
1619,519.9044769351251
1620,509.51807152561196
1621,529.429057744918
1622,569.9834996919706
1623,618.2554607971997
1624,661.4180038154377
1625,694.931190818834
1626,722.1420831898008
1627,746.6597416139753
1628,771.4972260732143
1629,799.3215958386122
1630,831.6439094635414
1631,863.5902247767215
1632,888.0885988753175
1633,897.4060881180599
1634,881.791748118399
1635,831.2296337376833
1636,748.5537990783689
1637,659.6482974772537
1638,592.2311814987502
1639,558.3185029281815
1640,553.2203127651092
1641,570.6436612166965
1642,595.5355976910987
1643,607.320170790889
1644,591.9664283065172
1645,573.8424172098007
1646,591.0831836474483
1647,663.4567729346245
1648,753.4882295485406
1649,812.8095971220887
1650,814.5569184375074
1651,769.0772354200844
1652,690.9555891319003
1653,606.5520197656058
1654,553.8895666382396
1655,565.0392681850817
1656,609.0631619535518
1657,619.590284597145
1658,547.7256718694039
1659,431.89635861793886
1660,337.02337877848436
1661,298.11876536900036
1662,274.1385504838149
1663,212.9677652878113
1664,101.82244001065578
1665,-17.752396058924433
1666,-102.88171457882459
1667,-150.84848815919645
1668,-189.69169036803805
1669,-242.48429573673639
1670,-293.45727976556327
1671,-310.8316189291211
1672,-271.60729068174487
1673,-182.34227346285206
1674,-55.93454670224514
1675,80.28290917464005
1676,174.1671127415309
1677,173.84108156616912
1678,83.37283220521272
1679,-41.515619800810555
1680,-147.67925993249332
1681,-219.4540746964908
1682,-259.4330516304051
1683,-270.8451793076172
1684,-258.87444734205997
1685,-229.18084639293852
1686,-186.356368169397
1687,-132.94900543511903
1688,-72.1527520128825
1689,-26.688602789046854
1690,-38.62655371798496
1691,-141.47160182645598
1692,-287.5227452179204
1693,-387.638983076788
1694,-377.46531567261115
1695,-291.4907443642146
1696,-188.28227160375832
1697,-105.13990094074688
1698,-39.35963702596473
1699,16.251514384645816
1700,70.44254642617352
1701,133.4394511209939
1702,210.7952193750864
1703,270.9148409744255
1704,264.64130458143336
1705,171.29859773150156
1706,70.06870682958197
1707,61.0776171468483
1708,176.67531281742436
1709,337.9447768351854
1710,459.0159910506286
1711,510.81093616781527
1712,510.1615917413892
1713,475.0269361736616
1714,422.0109467117743
1715,367.2195994449364
1716,324.3228693017343
1717,300.264730047518
1718,300.72215428186496
1719,326.05411343611854
1720,369.81457777100445
1721,425.0085163743263
1722,483.6858971587408
1723,537.3006868596078
1724,575.7638510329261
1725,582.3323540533447
1726,538.5901591122611
1727,448.35322821599584
1728,358.1595221840553
1729,317.54200064747147
1730,339.0066220472306
1731,401.86534363278815
1732,482.1091214606615
1733,541.724910393116
1734,536.9576640969328
1735,452.3453350422699
1736,350.40287450160326
1737,305.52123254876346
1738,338.9653580580591
1739,406.9151987034884
1740,464.07870095804515
1741,490.0358100931139
1742,478.1904701779572
1743,432.7016240792975
1744,397.31421346098864
1745,424.28517878378625
1746,514.6384593052103
1747,588.634993079502
1748,566.6477169576815
1749,465.8955665876963
1750,371.79347641467325
1751,351.49137968126365
1752,378.1922084280943
1753,397.4538934943066
1754,379.211364518211
1755,340.1155499380304
1756,300.82337699275104
1757,260.1997717230747
1758,198.97665897247543
1759,103.93996238835553
1760,-0.8843955766844829
1761,-78.48549366347993
1762,-101.11241180482875
1763,-61.35623112390226
1764,44.0029660674395
1765,187.81809627044754
1766,314.8900748013932
1767,377.8248157935823
1768,384.77623219948396
1769,365.1062357929716
1770,335.3767371716699
1771,282.0946457594191
1772,188.943869808852
1773,71.59731640408768
1774,-23.44510853646989
1775,-55.77850025720318
1776,-32.31195516225057
1777,21.53142918765593
1778,89.54655407845416
1779,177.23831964615056
1780,292.58862488032605
1781,430.33336762776617
1782,572.6844445962138
1783,699.2487513582407
1784,777.1181823552433
1785,768.8156309015599
1786,674.0199891887089
1787,573.9241482897626
1788,555.623998163833
1789,613.3774276606912
1790,660.4333245255093
1791,622.815575403738
1792,510.9680658461018
1793,363.6496803137318
1794,215.99530218342397
1795,95.99781375302746
1796,28.99609624697041
1797,12.412029821912029
1798,22.517493572527883
1799,38.44436553743071
1800,54.669522705228474
