800,85.04695993823225
801,68.62167435052652
802,71.89612181209759
803,92.20755945973451
804,118.74824362532308
805,140.60642983290563
806,149.71637279577317
807,147.83832641362005
808,138.8565437697289
809,126.64227712820684
810,114.85777793126636
811,106.89829679655122
812,106.13908351450118
813,115.23938704576994
814,131.2814555186751
815,148.72253622670087
816,162.0098756260395
817,167.50271933318072
818,166.38931212253374
819,160.61289792410298
820,152.1737198212013
821,144.35302004820187
822,141.60303998834388
823,148.4190201715619
824,167.46720027236915
825,191.87681910778974
826,211.6621146353
827,216.91632395085526
828,203.34668328692442
829,176.32042801056832
830,142.15579262157735
831,107.09401075062942
832,76.61731515749489
833,55.72993772928294
834,49.42710947872456
835,60.618060542496096
836,85.49402017957891
837,118.89721676966383
838,155.66887781158766
839,190.44022992180908
840,217.62849883292984
841,231.63790939224145
842,228.47468556032072
843,213.80505040965545
844,196.8922261233156
845,186.96543399365055
846,188.8538944210286
847,199.21782691261888
848,213.82845008119784
849,228.7189816440059
850,242.8726384216243
851,257.156636336902
852,272.4661904139084
853,289.10751477692975
854,305.5268226494927
855,319.799326353429
856,329.9702373079699
857,333.3057660288823
858,326.2741221276292
859,305.3065143105732
860,269.00015037821413
861,227.39323722444897
862,194.31198083588697
863,183.3905862911688
864,196.89225776034436
865,219.088198504277
866,232.6606108740707
867,222.67569631053902
868,195.06465534371364
869,166.54768759235776
870,153.90999176354762
871,166.05076565226045
872,192.93320614099957
873,221.74350919945482
874,240.54486988420194
875,250.4544823384067
876,262.5405397915856
877,288.1262345593941
878,332.66875804343545
879,380.55330073109417
880,411.4380521954281
881,405.8222010950567
882,366.3419351741031
883,319.46744126215435
884,292.83790527425117
885,306.87151221091426
886,344.2164461581888
887,375.21489028773067
888,370.70202685690765
889,326.98103720894323
890,277.75310177306983
891,259.692400064735
892,303.08811068581053
893,390.986411324845
894,485.25747875734305
895,547.8174888460608
896,558.6706165413443
897,533.0150358814744
898,490.105919993066
899,448.04244109146657
900,413.11477048119923
901,384.6690785564206
902,361.96753480141524
903,344.3703077911068
904,331.4895651916013
905,322.9754737607509
906,318.63219934874724
907,320.48790689873385
908,332.1957604474519
909,357.45092312590987
910,396.3935571600632
911,437.9398238715439
912,468.7958836783855
913,476.3418960957979
914,460.6900197369496
915,433.271412313783
916,405.90923063784066
917,387.14063062113655
918,372.8697672770304
919,355.96779472112485
920,329.7028661722079
921,297.12113395319193
922,271.41474949208896
923,266.2508633230118
924,290.72262508717904
925,333.3411835339648
926,376.8336865219526
927,404.3072810200274
928,410.8451131084639
929,405.5623279800684
930,398.3760699413151
931,397.3934824135222
932,401.5207079340262
933,406.75788815740543
934,409.15316385670485
935,406.8756749246786
936,400.8175603750724
937,392.041958343907
938,381.17000609078514
939,366.3508400002256
940,344.8775955830097
941,314.1584074775574
942,276.1684094512966
943,239.10073440208998
944,211.5875143596486
945,200.44988048697905
946,201.9729630818465
947,208.65689157825273
948,213.06879454793943
949,211.20879970190163
950,203.84803389192348
951,192.11162311213775
952,177.4506925005826
953,163.2503663407988
954,153.59376806343516
955,152.49502024786852
956,160.70524462384037
957,174.4805620731122
958,189.73909263114547
959,202.28995548877901
960,207.29526899395205
961,199.68815065339822
962,174.56371713440967
963,133.84708426657653
964,88.530367043556
965,50.238679624862925
966,28.838135337661697
967,24.769846678585964
968,35.336925315571534
969,57.73348208969401
970,85.51262701703763
971,107.71546929055512
972,113.09711728197544
973,94.02567854369681
974,60.42525981069957
975,27.53096700248898
976,10.144905225030925
977,10.289178772716696
978,15.669891130333781
979,13.234144975054733
980,-5.328957821570839
981,-28.121316191594815
982,-37.87482986864961
983,-18.291399385909244
984,25.111073925966593
985,65.34168794088146
986,74.48753973940075
987,36.016725610822505
988,-25.6196589447145
989,-76.74151921411703
990,-85.52376126922172
991,-52.069291964645345
992,-3.2740189356482006
993,33.13214940403395
994,39.96830386435067
995,31.239534481122973
996,26.688930518247616
997,44.6055804698799
998,84.41357206266184
999,132.45599225794558
1000,174.82392725402133
1001,201.51246248837742
1002,211.75368263994005
1003,206.11167163135633
1004,185.14451263125102
1005,150.04028805652888
1006,106.18407957466479
1007,60.67996810600198
1008,20.570033826077633
1009,-10.948643832060952
1010,-36.2049861755213
1011,-57.950915249224636
1012,-78.19335383355246
1013,-94.86722544199165
1014,-104.52745431876428
1015,-103.87796543645254
1016,-94.33168449360983
1017,-82.84753791237108
1018,-76.69345283605253
1019,-80.68835712674445
1020,-89.23817936288651
1021,-94.0068488368488
1022,-87.01229555250484
1023,-67.5724502227813
1024,-41.75824426721647
1025,-15.90560980950795
1026,5.548520324952733
1027,24.163212611537347
1028,42.659532828874944
1029,63.31354606131663
1030,82.42231670142792
1031,92.08890845248698
1032,84.34838433098412
1033,56.962806669120255
1034,20.688237117341487
1035,-11.907263353171402
1036,-29.47563444795469
1037,-31.067816546742506
1038,-21.01075070092338
1039,-3.666378631007319
1040,16.984357275929142
1041,37.57951396878434
1042,54.80814773500606
1043,65.86131420313723
1044,70.74006834539068
1045,70.41346448021704
1046,65.94155627488999
1047,60.809396748076324
1048,61.16303827242973
1049,73.29153257717098
1050,99.78493075069309
1051,130.2302832431542
1052,151.32763986907503
1053,150.63304980995235
1054,127.48356161686934
1055,89.75922321309008
1056,45.54108189670569
1057,2.7391843432324094
1058,-31.09542339176096
1059,-48.46769587002109
1060,-43.19858826798645
1061,-19.08405637414853
1062,15.54994341357451
1063,52.36545409048358
1064,84.01051804773397
1065,104.44917707498189
1066,107.73547236302875
1067,91.13444450646602
1068,65.45913350633236
1069,45.105578772758236
1070,43.51481912761756
1071,58.60389280720028
1072,75.73883746484807
1073,79.95369017362646
1074,64.99248742897998
1075,44.961265151402586
1076,36.86405868909242
1077,54.5849028206203
1078,88.10083175759519
1079,116.3728791473277
1080,118.7020780755065
1081,90.16746106886058
1082,46.32306009782678
1083,4.095906579224902
1084,-22.76696862107383
1085,-32.74853518547661
1086,-27.25276334199316
1087,-8.106623861573098
1088,17.450911944576546
1089,38.325872227652326
1090,43.41028460393409
1091,29.760176157456954
1092,10.16757344267262
1093,-0.7724975128685401
1094,8.049988794146884
1095,27.478057345470916
1096,41.069732603953526
1097,32.99803851622073
1098,1.78099851533716
1099,-39.9363644765217
1100,-78.8980280454125
1101,-104.6759702829504
1102,-114.36916978365207
1103,-106.31460564227018
1104,-80.47325745113176
1105,-49.889105297480455
1106,-33.94012976081831
1107,-51.50631191025332
1108,-101.57663330183823
1109,-158.11707597591885
1110,-193.4736224544895
1111,-189.64525573853643
1112,-161.3879593053989
1113,-130.4127171061209
1114,-116.62051356280335
1115,-121.16033356597745
1116,-134.1571624719536
1117,-145.67498610019538
1118,-150.4157907306835
1119,-149.92156310128576
1120,-146.28929040513867
1121,-141.34996028800379
1122,-135.85456084567068
1123,-130.29808062132088
1124,-125.22950860292258
1125,-121.87883422061259
1126,-121.91804734409743
1127,-127.01213828003438
1128,-137.5710977694389
1129,-152.0289169850921
1130,-168.6315875289274
1131,-185.1141014294608
1132,-197.08445113918515
1133,-199.59462953200455
1134,-188.58762990063678
1135,-170.80244595405657
1136,-160.17407181490307
1137,-170.58850201693258
1138,-204.31173150244376
1139,-245.26175561972104
1140,-275.7305701204814
1141,-283.07417115732187
1142,-274.8395552811817
1143,-263.60271943878524
1144,-260.7786609701261
1145,-264.9213776059187
1146,-266.5918674650811
1147,-256.4181290522074
1148,-234.86616125505407
1149,-216.50296334202994
1150,-216.99653495968323
1151,-244.78387613020368
1152,-283.2399872489259
1153,-310.3228690818387
1154,-306.8545227630939
1155,-279.77594979253536
1156,-249.94615203321428
1157,-237.82113170892717
1158,-246.26389140174888
1159,-257.0204340495702
1160,-250.60376294365597
1161,-217.57888172618914
1162,-176.14179438783412
1163,-149.21350526530205
1164,-155.36001903892156
1165,-183.58334073021615
1166,-210.5944756994877
1167,-214.15342964340653
1168,-194.14120859261038
1169,-170.86981890929837
1170,-165.33526728484958
1171,-185.07556073743217
1172,-210.58970660962677
1173,-219.1157125660584
1174,-194.8425865910258
1175,-154.43533698614374
1176,-124.05197236799631
1177,-127.25450166578776
1178,-156.69893411900557
1179,-184.85227927509277
1180,-184.3275469871187
1181,-150.1087474114638
1182,-107.82889100551347
1183,-85.35398852535218
1184,-100.19505102346739
1185,-139.16908984645852
1186,-183.42211663277067
1187,-215.85314331040263
1188,-231.34718209464972
1189,-229.78424548584553
1190,-211.37934626711012
1191,-182.1614975021066
1192,-153.20271253280407
1193,-135.66800497724853
1194,-133.02738872735063
1195,-135.17487794666158
1196,-130.61448706817555
1197,-111.43223079213203
1198,-83.19212408382464
1199,-54.624182171422945
1200,-33.40142054379703
1201,-18.102854948355343
1202,-2.7645013888877656
1203,18.325623876587088
1204,44.06750433795514
1205,66.56712323514148
1206,77.65746356024192
1207,71.94450805962333
1208,49.48623923604282
1209,10.967639350739773
1210,-39.36030957447292
1211,-82.86062575512369
1212,-97.23532764201536
1213,-63.681433919157826
1214,5.893036498287984
1215,83.70906446605204
1216,142.46463061280156
1217,169.13871534216287
1218,164.83829883474664
1219,131.32936105015688
1220,76.7848817289896
1221,21.359840394838102
1222,-13.461783643733725
1223,-13.110011291210867
1224,11.427136336840704
1225,43.26763791572375
1226,67.45747191357077
1227,83.66961659327262
1228,98.25205001441827
1229,117.2647500351959
1230,141.05569431433378
1231,165.12786031297674
1232,184.86822529658912
1233,197.986766336845
1234,205.78046031348913
1235,209.8442839162053
1236,211.7572136464787
1237,213.02222581943715
1238,215.14029656568164
1239,219.6864018331189
1240,228.67451738877844
1241,244.26361882061337
1242,267.9906815393124
1243,294.33168078006656
1244,313.3385916043653
1245,315.38238890175944
1246,301.72904739161186
1247,285.59254162486013
1248,280.74784598574297
1249,292.5549346935395
1250,310.25278180428086
1251,321.2463612124611
1252,316.9196466527428
1253,302.4636117016353
1254,286.05022977918634
1255,275.3054741506394
1256,274.30431792810487
1257,285.7167340722008
1258,311.3606953936942
1259,342.2831745551357
1260,362.2071440724703
1261,355.2925763166468
1262,323.07244351522604
1263,286.8567177539626
1264,268.9473709783779
1265,281.03937499534095
1266,314.6717014746155
1267,359.1213219504134
1268,403.731207822927
1269,438.11633035986506
1270,451.9226606979619
1271,437.8021698444818
1272,405.50682867872456
1273,370.8346079535013
1274,348.7094782966178
1275,344.9124102123351
1276,359.82537408282496
1277,393.3293401696128
1278,436.0112786150148
1279,469.6931594435573
1280,476.11695256339226
1281,452.2746277676979
1282,417.9621547360739
1283,394.8385030359168
1284,396.3476421237974
1285,416.2255413468147
1286,445.3011699439521
1287,474.14749704741007
1288,492.37649168394364
1289,489.3411227761735
1290,458.06535914389315
1291,415.43116950537114
1292,387.8835224786344
1293,399.0653865827426
1294,440.82473023905914
1295,485.10852177249944
1296,504.68472941278014
1297,496.3913212956477
1298,479.9682654641083
1299,475.80252986963114
1300,490.85508237335944
1301,512.915890747292
1302,528.3089226754737
1303,528.7741457551601
1304,517.7255274979707
1305,500.1070353310497
1306,482.25563659819727
1307,475.11529856099696
1308,490.59498839993194
1309,535.2766732154923
1310,588.4153200292731
1311,620.5278957850524
1312,606.8673673498715
1313,560.6577015150951
1314,513.3408649974663
1315,494.2738244401489
1316,504.0085464137601
1317,522.9989974173841
1318,531.9971438795928
1319,528.4939521594379
1320,526.6173885474473
1321,540.8834192666
1322,569.499010473287
1323,587.7521282582829
1324,569.3607386476851
1325,511.05780760385005
1326,455.4023010263145
1327,450.38018475272474
1328,519.3524245597282
1329,615.7609861638721
1330,680.686835222491
1331,672.6539373345668
1332,621.371258041615
1333,574.7197628285085
1334,571.7884171243404
1335,600.163186303248
1336,628.7650356852337
1337,630.9249305369758
1338,617.5848360726231
1339,618.566717454597
1340,660.6785397943559
1341,731.0382681531737
1342,789.7758675428968
1343,798.3193029266877
1344,753.8355392197673
1345,685.834541290139
1346,624.5202739593069
1347,584.0017020029818
1348,559.1707901517821
1349,543.8215030919127
1350,533.2388054658477
1351,525.0446618729848
1352,517.0760368703186
1353,509.1748949730727
1354,505.28620065533505
1355,509.84991835069195
1356,521.2420124528326
1357,521.578447316163
1358,490.2611872563921
1359,419.1991965511188
1360,344.3364394404198
1361,311.3218801273888
1362,351.486482778716
1363,430.19821152521854
1364,493.8420304623778
1365,498.1539036508657
1366,454.9997951170617
1367,397.0156688535544
1368,354.07748881964017
1369,334.2162189418041
1370,335.23982311419786
1371,354.1832651991108
1372,380.87350902741673
1373,400.9335183990306
1374,400.9552570833366
1375,381.3676888196205
1376,352.47077731748595
1377,324.7264862572665
1378,307.50677929041376
1379,309.2376200398985
1380,337.6419721005841
1381,383.7117990395964
1382,421.07006439669203
1383,423.27873168459155
1384,390.3077643893457
1385,354.7371259706488
1386,350.7067798621756
1387,387.998689471885
1388,440.8338181823292
1389,480.79012935095307
1390,494.7565863103746
1391,495.8901523686709
1392,499.86179080963757
1393,512.7674648930506
1394,521.5321378549233
1395,510.82177290774143
1396,476.2323332406986
1397,438.7727820199161
1398,423.0570823886683
1399,440.55519746757545
1400,467.40309035481005
1401,473.86572412628266
1402,443.99806183582587
1403,404.4230665153573
1404,389.96470117505396
1405,422.0029288034939
1406,474.6477123678169
1407,511.60801481384715
1408,507.22179906623387
1409,478.1070280285667
1410,451.3926645834854
1411,448.12467159279004
1412,462.2430118975335
1413,480.1506483181156
1414,491.1035436543498
1415,498.48066068554454
1416,510.0159621705634
1417,531.0674108478897
1418,554.1029694356548
1419,567.2206006316956
1420,561.1452671135776
1421,542.1869315386257
1422,522.3825565439292
1423,511.74510474636645
1424,507.26253874258873
1425,500.7848211090277
1426,485.8869144018727
1427,468.00478115705755
1428,457.55338389021745
1429,463.846685096667
1430,488.0096472513542
1431,527.5442328087984
1432,578.6204042030495
1433,627.3931238476071
1434,655.3843541353581
1435,648.0570574384901
1436,622.5481961084151
1437,611.1347324756616
1438,641.7656288497919
1439,705.9508475192788
1440,777.3333507514026
1441,831.8151007921297
1442,865.3840598659772
1443,884.0421901758928
1444,893.7004539030995
1445,898.9218132069636
1446,903.5902302248323
1447,910.6566670718757
1448,915.287085840926
1449,908.7174486022986
1450,883.636717403625
1451,845.1498542696545
1452,804.5318212020766
1453,772.4825801793213
1454,754.5060931563521
1455,753.572322064465
1456,770.8272288110775
1457,793.0797752794952
1458,800.3189233287067
1459,775.8246347931381
1460,728.4018714824269
1461,678.5845951811734
1462,643.8887676487002
1463,619.4583506187982
1464,590.60330579947
1465,545.5585948726639
1466,492.86617949401534
1467,449.53002129256856
1468,429.2780818704978
1469,424.7493228028361
1470,420.31770563717146
1471,403.04519189337043
1472,375.97074306327704
1473,347.9513206104084
1474,326.07388596965757
1475,307.86140054697535
1476,287.61382571906324
1477,260.0591228330504
1478,222.05825320617805
1479,171.1201781254631
1480,108.18185884737431
1481,49.31425659750039
1482,14.77333257020382
1483,18.754047928287036
1484,51.416363802636624
1485,96.99324129188426
1486,139.04664146204868
1487,158.8725253461762
1488,137.2638539439895
1489,68.27158822151159
1490,-13.269310889287226
1491,-64.71288249087138
1492,-61.98916572050075
1493,-30.94919975061748
1494,-5.696023789217179
1495,-6.544677080238216
1496,-21.68319890393377
1497,-34.768628577271556
1498,-35.28500545431598
1499,-24.454368926625648
1500,-4.93975842364307
1501,17.944786586907867
1502,34.29022659862039
1503,33.9135220660055
1504,16.161633404088207
1505,-5.568479012003081
1506,-17.050854847429946
1507,-15.456533808070162
1508,-12.193555640917111
1509,-19.13596013449387
1510,-36.63178711927321
1511,-52.85807646808371
1512,-56.249868096533646
1513,-51.06720196342667
1514,-55.55711807118041
1515,-86.22065646624924
1516,-128.22085723954388
1517,-143.73276052685014
1518,-99.62840650925773
1519,-18.552835413582216
1520,43.24291248720965
1521,36.94179687358337
1522,-21.43222262100062
1523,-84.20218641050997
1524,-110.99913495675992
1525,-109.2901087698383
1526,-105.17514840854528
1527,-118.7622944808063
1528,-140.5045876441036
1529,-151.7820686058958
1530,-139.69377812405583
1531,-112.99175700727847
1532,-85.54804611552117
1533,-67.01068636041782
1534,-54.72471870570098
1535,-43.82818416763257
1536,-32.03112381541814
1537,-22.80757877162432
1538,-20.359590212608964
1539,-25.16719936892241
1540,-31.312447525740936
1541,-32.4503760232692
1542,-30.685026257162463
1543,-39.28943967892701
1544,-71.5356577963421
1545,-122.24472217386119
1546,-167.5006744330176
1547,-183.71955625283044
1548,-165.2514093702075
1549,-120.31127558034223
1550,-58.64519673710947
1551,-1.795214753464279
1552,21.836628398168614
1553,-9.149709314491702
1554,-66.1082699839726
1555,-98.91009576342913
1556,-70.95022886702827
1557,-13.283711570318701
1558,22.059413789394966
1559,0.49710481267084106
1560,-51.36668096242556
1561,-93.55098606068623
1562,-101.54285307012469
1563,-89.11332464233055
1564,-75.78044349281481
1565,-72.97525240136929
1566,-77.86979421239721
1567,-86.22011183525865
1568,-95.17424824460886
1569,-103.64724648072024
1570,-110.641149649814
1571,-114.79000092437673
1572,-114.3858435434795
1573,-107.76572081308768
1574,-93.92167610636443
1575,-72.27175286397505
1576,-43.721994594377975
1577,-20.092444874115245
1578,-18.06114734810035
1579,-47.9251457298933
1580,-89.13348380197203
1581,-111.85820541599787
1582,-97.04835449308393
1583,-59.82797502403537
1584,-22.04711106961622
1585,1.462193239231965
1586,10.664893701135952
1587,7.482946044074197
1588,-2.0646940748520137
1589,-6.155071069624682
1590,6.9127705744786
1591,36.22078630068336
1592,68.71293148052882
1593,91.37616141367926
1594,97.71943132775505
1595,85.47069637814911
1596,55.322911647879664
1597,28.09703214741876
1598,33.16501281456385
1599,87.92780851428961
1600,158.22037403862214
1601,196.0486641065172
1602,175.46963336374301
1603,129.55423638278808
1604,100.86942766275479
1605,108.35716162928111
1606,130.83639263446457
1607,143.8960749567823
1608,142.39516280105454
1609,142.30661029837665
1610,159.05137150609153
1611,186.4204004077601
1612,202.94665091313254
1613,191.55307685815842
1614,169.59563200496723
1615,169.67027004189367
1616,212.88694458349437
1617,271.00960917058546
1618,302.6942172702811
1619,286.16072227605036
1620,249.1140775077838
1621,226.67123621186602
1622,234.92915156127037
1623,260.71977665565555
1624,288.8350645214732
1625,314.01796811209624
1626,340.464440307951
1627,372.40543391666597
1628,410.5469016732286
1629,453.5367962401551
1630,498.2440702076801
1631,531.8756760939496
1632,538.3135663452285
1633,512.4596933361245
1634,483.45900936982525
1635,486.8784666783413
1636,535.1130174227719
1637,598.9506136935825
1638,645.8402075108825
1639,669.8337508247423
1640,693.3031955154984
1641,737.4744933940892
1642,795.0525962023967
1643,840.7824556136075
1644,854.6620232325904
1645,848.7882505962698
1646,846.7470891740513
1647,864.2424903682167
1648,892.3084055143718
1649,917.2377858818918
1650,929.2435826743804
1651,925.3207470301531
1652,903.6352300227318
1653,873.3949826613552
1654,854.761955891503
1655,865.2941005954472
1656,892.6473675927982
1657,907.6547076410952
1658,887.7180714363867
1659,843.2834096138467
1660,794.8346727484013
1661,758.0908113553678
1662,736.616775891117
1663,731.8935167537511
1664,736.8089842838053
1665,732.3941287649477
1666,700.8129004247266
1667,654.3562494353109
1668,628.3941259142548
1669,651.1564799252947
1670,698.6812614791397
1671,725.4914205343075
1672,699.1039069979597
1673,630.751670726765
1674,540.8196615277811
1675,452.6308291593514
1676,394.5271233320236
1677,393.27549370949055
1678,433.42788990955523
1679,460.5572615050942
1680,427.1355580250729
1681,354.4167289555535
1682,297.20972374074154
1683,294.1104917840439
1684,319.99598244914796
1685,334.4831450611282
1686,315.0709289075694
1687,273.46528323970506
1688,224.95015727359532
1689,178.47350019130408
1690,136.69726114211335
1691,101.64338924375988
1692,72.05283358367888
1693,45.005543220292566
1694,19.728467184299916
1695,3.9545544800030257
1696,7.395754086648594
1697,27.638014959802604
1698,39.50128603273697
1699,16.7695162178361
1700,-35.02234559194858
1701,-80.24435052165154
1702,-87.64254971279752
1703,-69.96199432189496
1704,-60.726735518908754
1705,-79.99382448569031
1706,-100.33131241439787
1707,-84.34025050589571
1708,-25.924689968112034
1709,29.656317985616624
1710,34.9087221382224
1711,-15.488528729370955
1712,-92.76448583652473
1713,-167.85120040112452
1714,-216.3017236377873
1715,-215.43610675605305
1716,-161.11640095854
1717,-99.98665743908714
1718,-86.19192738085076
1719,-128.26026195440136
1720,-176.29271231575058
1721,-181.19132960440038
1722,-145.13616494133475
1723,-101.76426942698617
1724,-78.99269413917682
1725,-77.3454901310406
1726,-89.81570842890142
1727,-109.34040003013888
1728,-128.77261590100807
1729,-141.22940697445028
1730,-145.324824147855
1731,-144.59991828080274
1732,-142.44774019278793
1733,-140.03134066089206
1734,-137.61177041743395
1735,-135.4780801476054
1736,-133.99432048705603
1737,-133.49454201945264
1738,-132.73179527402408
1739,-128.51313072304674
1740,-118.42359877933177
1741,-108.60624979365093
1742,-109.98213405215029
1743,-127.6123017737309
1744,-144.4698031073849
1745,-138.5976881295137
1746,-105.22900684121396
1747,-66.6808091655148
1748,-46.18814494460457
1749,-47.10606393700891
1750,-58.79561581474354
1751,-72.16085016042689
1752,-86.86781646438067
1753,-105.13656412165255
1754,-125.11114242906388
1755,-137.12860058217302
1756,-131.34298767223208
1757,-109.93635268310209
1758,-85.10074448812975
1759,-67.69321184699947
1760,-59.19080340254186
1761,-57.81456767750842
1762,-61.596553071310154
1763,-68.1798078567299
1764,-75.3003801765899
1765,-83.81131804037977
1766,-97.43266932086499
1767,-118.37548175063421
1768,-138.80880291864105
1769,-147.06468026667244
1770,-138.92916108582722
1771,-127.59129251290051
1772,-127.77012152678162
1773,-132.98569494478306
1774,-116.33405941895398
1775,-58.25226143233158
1776,8.571652704832559
1777,31.03563685887366
1778,-16.444354923426545
1779,-94.84836841095057
1780,-156.72744918431727
1781,-173.14664263191207
1782,-132.65899394588723
1783,-34.56254811810322
1784,60.855650063948815
1785,70.59755602127552
1786,-31.009874612443127
1787,-143.75468598665884
1788,-156.6669220296999
1789,-71.35562644448237
1790,12.339157295821678
1791,13.015385952146062
1792,-32.565983476043584
1793,-48.33899374630437
1794,-6.419687368711493
1795,27.97089339867216
1796,-14.76129344562014
1797,-110.96928964182825
1798,-166.34913666431203
1799,-114.25187571682545
1800,-20.246547727777397
