800,44.350229715209025
801,48.239350289743925
802,43.99900333183905
803,35.55332284631913
804,31.854442274901885
805,41.9154944983884
806,70.23461183882591
807,105.71592606168633
808,133.89456837802663
809,140.64666944664623
810,123.56735937623216
811,94.93976772749284
812,67.96502351530307
813,54.21225521082124
814,52.54259074361016
815,55.838157503747425
816,56.95908234392573
817,51.641491581554874
818,42.91351100084739
819,34.93626585489801
820,31.724880867765023
821,34.481480236524476
822,41.8141876333475
823,52.22812620753484
824,64.13941858757607
825,75.44418688318274
826,83.87255268730587
827,87.18763707818925
828,85.24656062135728
829,81.53244337163596
830,79.88240487515213
831,83.6935641713344
832,91.55603979488842
833,99.07394977778858
834,101.81141165124609
835,96.56654244766742
836,84.10145870263204
837,65.97527645682203
838,43.79311125797631
839,20.334078162833976
840,-0.33270826094940276
841,-14.081133932866578
842,-17.53808525765544
843,-11.907449123378683
844,-0.0911128995285253
845,15.004035564864353
846,30.801107943128045
847,45.33121543281777
848,56.692468757595634
849,63.24497816909752
850,66.34985344878078
851,69.28220390979368
852,75.34513839880583
853,86.13576529784586
854,97.85419252614429
855,105.6455275419421
856,104.86187734431405
857,95.85134847498102
858,84.07304702010515
859,75.2080786120896
860,73.82454843136566
861,78.5415612081706
862,86.02022122433209
863,92.92663231502047
864,96.38889787052449
865,94.25212083799215
866,84.43040372318228
867,65.7308485922049
868,44.80955707325211
869,32.38163035832076
870,39.170169204940976
871,69.66527393787328
872,113.38104445082172
873,157.63658020813818
874,190.23198024649082
875,206.15534317658057
876,205.87276718478643
877,189.9913500348557
878,160.76518906956153
879,126.37138121235785
880,96.32002296903556
881,79.86821042935117
882,79.78903926867679
883,91.87460474962609
884,111.56800172367366
885,134.12132463277067
886,153.7556675109554
887,164.35712398595388
888,159.95878728077696
889,141.9637502153064
890,122.59510520787717
891,114.93894427685609
892,129.69735904220215
893,159.90344072703556
894,190.6812801591841
895,207.18496777274322
896,203.05659360960635
897,188.4632473210013
898,175.47701816902463
899,175.0359950281545
900,186.45926638677156
901,202.24192034866155
902,214.8020446345181
903,218.97572658344598
904,215.67905315443295
905,206.7771109278392
906,194.23998610687795
907,181.65476451907216
908,173.7835316177261
909,175.42037248336965
910,189.09037182521752
911,210.16461398260344
912,232.60818292641852
913,250.55616226053735
914,261.4446352232426
915,265.6396846886446
916,263.61039316807455
917,255.69784281150532
918,241.7541154089413
919,221.51629239180147
920,194.89145483430912
921,165.95468345486643
922,143.1190586174298
923,134.9946603328599
924,147.05956826029433
925,170.69386170848702
926,193.31361963716154
927,202.63592065833927
928,195.97484303768124
929,181.8854646958025
930,169.56286320960317
931,166.14711581356732
932,168.32029940108168
933,169.45349052572692
934,163.0877654025726
935,149.38819990946376
936,136.9988695883103
937,135.12284964634546
938,150.28621495740754
939,174.21404006319244
940,193.54839917451773
941,195.1223661725653
942,174.45801461012525
943,138.86341771283787
944,96.48564838041511
945,55.583779187873915
946,25.030882386749
947,13.924029906304895
948,31.091293354746995
949,73.01974402041287
950,119.03945287297029
951,147.2074905646059
952,139.83192743120253
953,104.1668334935157
954,56.515278458344255
955,13.055331719690003
956,-16.68993764008337
957,-32.37846084910052
958,-34.336169444832194
959,-23.70899527295478
960,-6.299870486213877
961,10.438272456693085
962,19.13450079224458
963,16.010881453203183
964,2.067481069731002
965,-21.372634029514302
966,-52.2623978162801
967,-84.7347445616324
968,-111.63860883486359
969,-125.9009255024248
970,-123.2456297268418
971,-102.84865696566158
972,-64.10594297037733
973,-9.117423785385654
974,46.88396425306473
975,84.69028451792747
976,85.78760009237249
977,51.810973770840064
978,6.9684680600548745
979,-23.320854819954548
980,-21.574932934836397
981,-4.06970463491507
982,3.9508914458147046
983,-21.519083609310655
984,-76.45756899864409
985,-129.25850420123788
986,-147.13882897585881
987,-110.14648336002392
988,-44.55440766902666
989,12.9544575050204
990,27.683171294145723
991,-0.7852074445336257
992,-44.1076201278629
993,-73.04800844571764
994,-68.56131436006308
995,-41.754480104031245
996,-9.273448180991181
997,13.107838636355154
998,21.031437306896805
999,18.044404522011973
1000,7.855796706471665
1001,-6.151329980672017
1002,-21.347919645185357
1003,-35.22191665678474
1004,-45.25326564824445
1005,-49.03591151453384
1006,-44.91979941194768
1007,-31.56487475724225
1008,-7.752083226783725
1009,21.8506292443044
1010,44.13331646298593
1011,45.32103197915603
1012,15.377829086464772
1013,-35.3832391768392
1014,-89.77112002710328
1015,-130.8947609344341
1016,-151.93210962190005
1017,-157.8951140647123
1018,-154.46972248943075
1019,-146.70288337316833
1020,-136.92154544278765
1021,-126.73765767412624
1022,-117.72116929121694
1023,-110.6820297655022
1024,-105.71118881507027
1025,-102.87459640388897
1026,-102.17420274104643
1027,-103.39495828000054
1028,-106.28381371781143
1029,-110.52571999442353
1030,-115.03162829190569
1031,-118.17149003372833
1032,-118.30125688402677
1033,-113.7388807468842
1034,-102.73331376560964
1035,-83.51550832202065
1036,-55.17441703574514
1037,-24.108992763508468
1038,-0.42218859843524115
1039,5.869042130634625
1040,-7.377254140149489
1041,-29.70803120898654
1042,-49.53624310772375
1043,-57.291844101198876
1044,-54.65678868656232
1045,-47.19503159262422
1046,-40.2855277791823
1047,-34.212232436376325
1048,-23.663100984041193
1049,-3.035089071055154
1050,29.674847425289954
1051,63.77475239993237
1052,85.76066952066049
1053,83.5216422287458
1054,64.11071373955474
1055,48.48492704316868
1056,57.858324904993424
1057,99.68994986636608
1058,151.32484424515133
1059,186.11405013633703
1060,181.8266094126302
1061,149.52856372504448
1062,115.4329545034725
1063,105.38582295727338
1064,125.92921007583664
1065,157.62415662915828
1066,179.19270316839902
1067,175.5798900264399
1068,158.01775731844555
1069,144.67834494240105
1070,152.46969257966975
1071,177.70383969552404
1072,200.04082553968328
1073,198.68868914685027
1074,164.08246933723058
1075,112.85520471705786
1076,65.37693367911106
1077,39.885694403231355
1078,38.218524856823024
1079,54.66246279536608
1080,83.40254576291045
1081,115.98681109257905
1082,140.56829590704365
1083,145.06003711903395
1084,122.36407143179895
1085,84.51443533960082
1086,48.13016512817376
1087,28.931296875212865
1088,30.553866450818532
1089,48.076909517973945
1090,76.37946153299436
1091,108.577557745979
1092,134.38223320126144
1093,143.1105227378539
1094,126.70646098988709
1095,92.38108238704808
1096,52.83442115500293
1097,20.48651131583938
1098,1.0473866884722156
1099,-6.380919110920331
1100,-2.9823726684899157
1101,7.657059227690297
1102,15.559409588038761
1103,9.684711221863836
1104,-19.158003262226885
1105,-65.22870145594698
1106,-115.56135115093275
1107,-157.20292033835267
1108,-179.54337720852527
1109,-174.939690150547
1110,-135.9238277519089
1111,-62.838758798126946
1112,17.483547727619225
1113,72.57312264486063
1114,73.78499657619068
1115,31.91619994762368
1116,-19.04823701105215
1117,-45.219284265926944
1118,-34.9589119786242
1119,-9.508090505961263
1120,7.226209600388756
1121,-2.001982405770832
1122,-28.162637464823092
1123,-55.73772671102779
1124,-70.20022147217787
1125,-68.74209326930122
1126,-56.227313816329115
1127,-37.68785501979619
1128,-20.896688978526072
1129,-17.968787983330003
1130,-41.426124516705386
1131,-96.70067125253809
1132,-159.75340105580835
1133,-198.88128698230594
1134,-185.66130227833128
1135,-131.75642038042952
1136,-75.50461491509486
1137,-55.35585969850308
1138,-84.77212873623557
1139,-137.76039622301232
1140,-184.83663654242537
1141,-203.5278242666709
1142,-199.31793415629818
1143,-184.64594115994805
1144,-171.1098204141008
1145,-160.93654724283078
1146,-150.5230971575511
1147,-136.27944585678233
1148,-119.35656922590442
1149,-107.72044333692611
1150,-109.86704444824318
1151,-129.38134900441855
1152,-152.8353336359487
1153,-163.12097515904497
1154,-145.9332505754037
1155,-112.53713707200222
1156,-87.81161202086969
1157,-96.01965297889001
1158,-136.6092376875813
1159,-179.27934407290013
1160,-191.96995024503303
1161,-158.12603449819835
1162,-103.79657531044995
1163,-62.29955134349075
1164,-61.33194144246954
1165,-90.354724635803
1166,-122.94188013499115
1167,-133.71638733442705
1168,-119.76122581122672
1169,-98.89637532505094
1170,-89.6678158179302
1171,-101.45452741409645
1172,-125.2004904198102
1173,-149.62768532320752
1174,-164.20409279412252
1175,-161.85869368393924
1176,-136.53046902543065
1177,-83.78040003260503
1178,-18.401468100555576
1179,32.25934519468774
1180,41.132058096307446
1181,4.02468866684012
1182,-51.92174521168272
1183,-97.28922583759868
1184,-114.15173568947284
1185,-118.66725742597191
1186,-133.28777388572598
1187,-175.8202680872064
1188,-232.34872322859792
1189,-275.7281226876703
1190,-280.23845002166945
1191,-247.1216889671823
1192,-201.04982344004293
1193,-167.36183753519163
1194,-159.88471552658393
1195,-172.13044186707702
1196,-195.53500118831926
1197,-221.33337830064465
1198,-240.02055819297948
1199,-241.90952603272945
1200,-218.88326716569463
1201,-176.11276711596474
1202,-125.44601158583009
1203,-78.49398645568635
1204,-40.22167778395578
1205,-8.94707180698424
1206,17.27084506102983
1207,37.52908622812811
1208,45.36066492466034
1209,33.64459420337789
1210,0.17788693950114975
1211,-37.32644416919902
1212,-56.10838660234003
1213,-37.078928016846476
1214,6.566943753119631
1215,44.94524069621821
1216,49.19997462399624
1217,17.270157170961284
1218,-26.414200205370435
1219,-56.37908622440318
1220,-58.295489782412005
1221,-38.66839995248483
1222,-6.292805984462575
1223,29.942302695099897
1224,60.80693648300257
1225,76.98210559943072
1226,70.96782008801893
1227,48.97508981588271
1228,23.475924473671512
1229,6.510333575604818
1230,1.7343264595237997
1231,5.709912286914005
1232,14.770100042957893
1233,25.352898536561952
1234,34.055316400396805
1235,37.48936209092699
1236,35.92604388844484
1237,40.08636989709703
1238,62.55534804491799
1239,111.08198608385464
1240,166.7002915897947
1241,201.26327196258444
1242,189.73793442606438
1243,142.2572860280834
1244,91.01933364051638
1245,67.6640839592892
1246,78.3765435043997
1247,101.39471861992479
1248,113.61561547404835
1249,104.42524005906398
1250,87.16859819139881
1251,77.91069551162036
1252,87.11553748444749
1253,105.86312939876461
1254,121.03147636762424
1255,122.26058332826688
1256,116.88145504210934
1257,119.19009609477325
1258,141.97451089607148
1259,178.69470368002294
1260,209.6586785048503
1261,215.55943925298652
1262,196.30698963107443
1263,173.68033316996753
1264,170.53247322472726
1265,194.9664129746261
1266,227.06715542314487
1267,243.76670339796692
1268,229.76005955097844
1269,195.03222635826114
1270,154.69920612009355
1271,122.45500096093383
1272,103.71461282943164
1273,100.98104349840287
1274,115.82729456483139
1275,140.2633674498611
1276,160.65926339878934
1277,163.9559834810516
1278,150.40352859021732
1279,132.8348994439757
1280,124.4320965841307
1281,130.13812037658317
1282,142.57097101132695
1283,153.3356485024342
1284,157.0591526880371
1285,155.59748323032818
1286,151.87363961553456
1287,149.36362115391512
1288,153.70842697973694
1289,171.08705605127216
1290,205.12850715078275
1291,242.8547788844935
1292,264.6348696825944
1293,253.10377779921873
1294,216.50150131242845
1295,179.1050381242012
1296,164.6173859604114
1297,179.0785423708221
1298,211.72950472906814
1299,251.1432702326374
1300,286.2058359028588
1301,306.2591985848903
1302,300.7273549476995
1303,269.27430148405256
1304,233.66903451049347
1305,218.57455016734002
1306,238.31184441866026
1307,272.9299130522677
1308,295.3777516796945
1309,285.0063557361891
1310,254.023720480699
1311,225.14584099585682
1312,218.43271218797145
1313,232.569328787009
1314,255.998685346588
1315,277.3737762439605
1316,289.04659568000807
1317,285.9441376792238
1318,263.35139608971076
1319,223.55436458316126
1320,175.81003665485605
1321,129.69540562365364
1322,95.33546463197581
1323,83.62220664580946
1324,105.40262445469307
1325,156.93271067171372
1326,205.4174577334952
1327,214.62085790020137
1328,167.64490325552651
1329,102.49458570668958
1330,66.87489698443824
1331,94.63182864304144
1332,162.98937206028495
1333,234.7325184374813
1334,278.7362587994603
1335,299.60758399457154
1336,314.89848469469143
1337,340.38195139522577
1338,376.5619744151072
1339,416.27554389680336
1340,452.5056498063277
1341,480.88028193323953
1342,498.81742989065697
1343,503.70408311526444
1344,491.75023086731835
1345,458.0878622306691
1346,398.2259661127637
1347,321.29653124466313
1348,252.66254618105995
1349,218.3389993002893
1350,224.41187880434973
1351,245.80717271892445
1352,254.8168688933947
1353,237.46195500086378
1354,207.87941853818666
1355,183.64124682598504
1356,174.58642700867495
1357,169.79494605449872
1358,154.89479075554937
1359,122.37394772780044
1360,88.88640341114024
1361,76.40814406940353
1362,100.46015579040795
1363,146.83142448598483
1364,192.74893589202475
1365,218.1736755685124
1366,219.51462889957293
1367,199.25978109350763
1368,160.96611718284203
1369,116.38162202437798
1370,81.09528029923331
1371,69.25607651289647
1372,80.07499499528149
1373,104.06401990077484
1374,131.5271352082982
1375,151.49132472136262
1376,152.06357206812845
1377,122.48486070146919
1378,72.74417389903101
1379,30.767494763306786
1380,23.957806221693318
1381,51.63709102656958
1382,84.00433175536546
1383,90.59251081063576
1384,65.83861042013996
1385,34.9096126369177
1386,24.534499339367358
1387,42.60825223133725
1388,69.55485284220231
1389,83.7742825269579
1390,77.45852246630693
1391,66.43555366675264
1392,68.77935696069653
1393,90.65791300653291
1394,114.40220228874296
1395,119.53220511801283
1396,98.99190163132153
1397,76.93427179205628
1398,81.93729539012566
1399,126.45895204206226
1400,179.64622119114756
1401,203.42708210752244
1402,175.23951388831392
1403,120.35149545775221
1404,73.24500556730072
1405,58.75502279578359
1406,67.74152554951706
1407,83.60549206244195
1408,94.40390039626254
1409,106.72072844058857
1410,131.740953913074
1411,175.79655435956556
1412,223.58150715424927
1413,253.77378949980448
1414,250.229378427558
1415,222.4492507976429
1416,187.83438329915316
1417,161.3707524503161
1418,144.82233459865893
1419,135.49410592116965
1420,131.50104242448288
1421,135.82211994504542
1422,153.2203141493046
1423,187.20560053388726
1424,233.23495442579133
1425,283.5933509825609
1426,330.4347651925027
1427,365.0821718748639
1428,378.5075456800405
1429,364.607861089773
1430,338.5940924173656
1431,325.1022138078897
1432,345.1371992383947
1433,391.46202251813156
1434,443.80465728877243
1435,483.88307702463044
1436,509.96825503289983
1437,528.2401644538722
1438,544.2857782611864
1439,558.461069262059
1440,568.5450100975322
1441,572.6825732427214
1442,572.2457310070631
1443,570.2124555345708
1444,569.0307188040942
1445,566.6144926295838
1446,558.5897486603499
1447,541.4224583813484
1448,518.8795931134373
1449,498.3861240136648
1450,487.0140220755584
1451,488.5872581293943
1452,505.3128028425035
1453,537.2756267195609
1454,567.285700102886
1455,569.6999931727441
1456,524.0174759476567
1457,451.08611828471476
1458,391.4478898798852
1459,379.70576026834715
1460,404.1736988248085
1461,431.8996747638266
1462,434.6456571401641
1463,419.2866148491048
1464,408.1405166268105
1465,418.4563310506592
1466,432.4580265396107
1467,417.75257135454467
1468,350.2289335986343
1469,258.7790812177127
1470,193.06598200063308
1471,191.65660357965317
1472,227.42691343081242
1473,249.30787887431325
1474,216.81546707491998
1475,146.87664504234
1476,75.69137963162939
1477,33.80863754359871
1478,23.873385325221534
1479,39.9905893700452
1480,72.95021591860859
1481,98.91423105886952
1482,89.98260072663743
1483,30.910290705994157
1484,-43.54173337025259
1485,-86.23250602013377
1486,-65.70906191206541
1487,-5.451435864400992
1488,59.0343371550407
1489,100.383222029428
1490,116.31818349339665
1491,109.36518613351473
1492,83.15919438877609
1493,44.28517255107727
1494,-0.15691523428722576
1495,-40.75710496812735
1496,-62.718432796857996
1497,-50.59193501198206
1498,-5.883648049589283
1499,35.82839151017561
1500,35.21014694362839
1501,-18.069418615921677
1502,-84.28334217763131
1503,-119.2736608925834
1504,-108.80041205324324
1505,-82.70863309289871
1506,-73.61836158510687
1507,-85.69663524312273
1508,-87.50549191933624
1509,-46.754969604687176
1510,32.65389357191543
1511,108.60905934417951
1512,138.92648930902305
1513,114.98814492718066
1514,57.83098752380829
1515,-10.482021710904519
1516,-68.18092172111938
1517,-93.70075158471445
1518,-68.5695505126605
1519,-7.222357848383581
1520,56.06678693288541
1521,90.47284422475059
1522,95.72677429032046
1523,86.47753726285737
1524,75.13509314645762
1525,59.23940181672333
1526,30.53442302143958
1527,-15.250883618731677
1528,-62.795558609554064
1529,-90.77264258252308
1530,-82.10317629415113
1531,-35.834200625257836
1532,45.173243419757455
1533,149.91311471363952
1534,243.76837200700902
1535,287.92497392911264
1536,265.6388789885623
1537,209.41704557410048
1538,158.22843195535006
1539,132.02299628359197
1540,118.07269659254143
1541,100.57049079912304
1542,69.74133670426636
1543,23.784191993703644
1544,-37.95198576123039
1545,-102.04523910278658
1546,-140.78861068598144
1547,-128.32714327777649
1548,-76.76487975624059
1549,-27.54686310971192
1550,-18.76113643595545
1551,-46.36474294130494
1552,-81.82472593980128
1553,-99.89512885232853
1554,-100.71399520572959
1555,-95.31636863193398
1556,-93.40129286705724
1557,-97.83981175050576
1558,-109.38896922407457
1559,-126.37380933102577
1560,-138.606376215178
1561,-134.04971411997212
1562,-108.28686738753277
1563,-75.73588045772703
1564,-53.60679786721357
1565,-50.44366424848704
1566,-59.506524328899104
1567,-72.59842292969734
1568,-85.47940496502815
1569,-98.91851544096244
1570,-113.8307994544848
1571,-127.76330219248757
1572,-135.20506893076436
1573,-131.43614503297795
1574,-122.14557594963753
1575,-119.71340721705201
1576,-134.54368445629188
1577,-161.67145337212696
1578,-189.28475975196488
1579,-207.7146494647859
1580,-217.81416846005322
1581,-223.58836276662805
1582,-226.38227849167833
1583,-219.09296181957052
1584,-193.00845901075718
1585,-149.64781640064575
1586,-112.08508039849221
1587,-105.7352974862315
1588,-136.83851421735744
1589,-184.37877721575387
1590,-225.64613317452404
1591,-246.74462885483717
1592,-242.26931108472945
1593,-208.47922675792051
1594,-157.10042283261555
1595,-109.86794633029149
1596,-85.88384433448482
1597,-84.59616398956496
1598,-97.12495249950189
1599,-115.04525712661962
1600,-132.06612519034115
1601,-142.46560406593653
1602,-143.03674118324307
1603,-137.30958402538636
1604,-129.96218012749887
1605,-128.36857707541367
1606,-144.4488225043624
1607,-189.73496409766267
1608,-252.39704958537732
1609,-295.02612674300053
1610,-282.1802433900948
1611,-222.18644738895273
1612,-154.23478664322374
1613,-113.19030909654248
1614,-97.40506273115625
1615,-89.09209556652058
1616,-73.34045565791166
1617,-47.87319109500277
1618,-13.790350000458602
1619,23.029019471509855
1620,44.623869136576104
1621,31.496150781740653
1622,-14.66718383319403
1623,-59.59118297416808
1624,-67.8478949313785
1625,-39.0803680177969
1626,-6.312650567664605
1627,-0.30779093498676957
1628,-15.002837492021172
1629,-22.884838627735917
1630,-3.025842746285889
1631,27.530101734546406
1632,38.70094638490173
1633,13.970642764421427
1634,-20.932857576184688
1635,-32.311603093539816
1636,-9.039642250008
1637,19.49197648792324
1638,20.966204651254884
1639,-2.520006229887258
1640,-12.237704624617436
1641,27.591061000368427
1642,99.06124218244895
1643,150.48579046475243
1644,141.35765739783346
1645,99.1067945413788
1646,75.49515346590124
1647,101.68568575445352
1648,144.5373430043628
1649,158.8100768289587
1650,133.3198388593255
1651,115.76458074605398
1652,157.22125416101517
1653,251.26181079914295
1654,334.5482023802133
1655,348.4643806506574
1656,304.6232973853703
1657,254.10790438953063
1658,237.58915350044117
1659,242.67099658936786
1660,240.85638556341019
1661,217.72427236734893
1662,194.63860898554594
1663,198.06634744382063
1664,230.9414398113595
1665,263.68983820262747
1666,266.39049477928984
1667,239.89836175215623
1668,208.62439138311493
1669,194.72853598711208
1670,200.94474793410154
1671,222.01097965103963
1672,250.6301836238763
1673,272.8113123995581
1674,273.2863185880542
1675,247.36015486436918
1676,208.5597739706045
1677,171.91612871799043
1678,146.06117198896936
1679,133.72985673925814
1680,136.10913599994183
1681,143.55496287957703
1682,141.13529056629886
1683,119.59207232994959
1684,91.77226152420644
1685,75.80381158874843
1686,80.2666760513921
1687,95.49580853028783
1688,109.82516273609053
1689,113.16869247416071
1690,96.99235164677884
1691,55.45909425535865
1692,5.351874402692374
1693,-24.99835370481378
1694,-17.785635754870782
1695,3.07298267295846
1696,3.59045610954945
1697,-28.708260801491633
1698,-65.89521330151456
1699,-76.92844651450923
1700,-59.870005444757226
1701,-40.37493497450214
1702,-41.35327986157154
1703,-55.41708473701965
1704,-60.88139410272379
1705,-44.63225232899913
1706,-23.862703652182063
1707,-22.10879217220645
1708,-42.85956185015857
1709,-56.69805650583112
1710,-33.90831981526571
1711,9.888604691737783
1712,22.40867363410416
1713,-35.65415621801276
1714,-115.57992794071197
1715,-134.72968445381593
1716,-56.15646851832207
1717,31.57367726614757
1718,20.907710463916374
1719,-102.44341119415185
1720,-233.30472980806735
1721,-268.18328730609755
1722,-208.84212544214643
1723,-121.6332857931111
1724,-61.95880975623186
1725,-32.47973854642714
1726,-21.38911319361705
1727,-20.345974540021416
1728,-27.6603632374663
1729,-42.11631974465308
1730,-57.204884324418344
1731,-61.667097041005036
1732,-46.51399775727896
1733,-19.111626131968478
1734,6.48897838314133
1735,19.28677654600324
1736,16.797729327126945
1737,-1.7322020875853923
1738,-27.508056293988375
1739,-40.02387166683366
1740,-21.830686356900515
1741,8.10146171190263
1742,10.494534845441194
1743,-36.87950441773046
1744,-91.61769330342668
1745,-96.89306879889773
1746,-42.698667649848176
1747,7.137473642525947
1748,-11.737681175466605
1749,-83.69116810700052
1750,-136.76202290172296
1751,-115.98628105270564
1752,-53.065977793407
1753,-5.153148094593234
1754,-0.6088266612659936
1755,-12.617047929567889
1756,-9.723846063662677
1757,11.979745047374308
1758,33.478691792714926
1759,38.628960842922424
1760,31.51951915312293
1761,23.271333966192287
1762,20.19337281596472
1763,18.0526035304365
1764,11.546994235005513
1765,2.0415133557162335
1766,-2.946870377475534
1767,2.194812072568311
1768,9.748530053472678
1769,6.938253226645429
1770,-7.632048429387396
1771,-8.740404615648913
1772,31.102155290647715
1773,105.38460223946731
1774,174.82390751134517
1775,204.25204272078372
1776,193.61197981967416
1777,156.59669110073264
1778,105.61914920094569
1779,49.971327105037744
1780,-1.4588018510421534
1781,-39.42726397662955
1782,-54.35808522282423
1783,-40.202291178963605
1784,-12.49390706907161
1785,5.157042251691564
1786,-1.2404676993701287
1787,-24.491461028916092
1788,-54.38196146394603
1789,-77.20499234817271
1790,-76.19957663837522
1791,-39.10773690075166
1792,21.342504692775947
1793,84.05812636824157
1794,132.90310675334877
1795,161.3744248812054
1796,164.7880601940533
1797,149.1939925470424
1798,128.7852022119896
1799,115.28966988119737
1800,108.41537667123794
