800,-44.4785813495655
801,-37.62736603131634
802,-32.18977692675253
803,-29.525828160032688
804,-31.045534176904766
805,-38.15890974328613
806,-51.115969943732125
807,-66.14673017994755
808,-78.63120616923698
809,-84.02941394291884
810,-80.59136984475299
811,-70.04709052929684
812,-54.336592960273265
813,-35.549894408892214
814,-16.797012452143463
815,-1.707964971094043
816,6.12722985088476
817,3.638553529857745
818,-10.834012716844882
819,-38.71048796883406
820,-81.0508916008148
821,-130.9952432807113
822,-174.42356296778235
823,-196.95987091072493
824,-188.35718764572266
825,-160.00253399450594
826,-130.32693106236184
827,-117.62540023615111
828,-129.14796318228036
829,-153.19464184467142
830,-176.17545844269625
831,-185.62043546908717
832,-181.22959568786064
833,-170.21296213217647
834,-159.90055810221565
835,-155.23240716300097
836,-153.518533142249
837,-150.52896012814563
838,-142.16371246715062
839,-128.63281476176417
840,-114.7762918682638
841,-105.67416889445849
842,-105.71647119738736
843,-114.97322438102674
844,-131.9344542939598
845,-155.0701870270641
846,-180.3604489111367
847,-199.2352665145445
848,-202.61466664083127
849,-182.55867632632362
850,-144.05732283772704
851,-100.39063366967457
852,-64.938636542307
853,-47.12135939880682
854,-43.92883040291963
855,-49.88107793648305
856,-59.458130596918636
857,-65.54001719471853
858,-59.436766750926836
859,-32.38840849459484
860,21.415028139765127
861,92.00351351475001
862,164.25701779263727
863,223.16551093796443
864,262.5189627201471
865,289.9973427160712
866,314.5106203127252
867,344.36876470983225
868,382.7617449224945
869,430.2295297838318
870,487.2720879476692
871,552.5393878912
872,620.2013979176645
873,683.7780861590509
874,737.1794205787992
875,779.8953689745013
876,815.6758989806367
877,848.3709780712925
878,880.020573562897
879,905.9746526169783
880,920.1431822429058
881,916.7761293006533
882,900.543460503568
883,887.2051424211622
884,893.1211414818517
885,929.4214239758003
886,980.0659560576714
887,1020.1347037494616
888,1025.1076329432763
889,989.3647094041771
890,935.1058987729775
891,886.7411665690724
892,865.0804781932802
893,864.4737989306523
894,867.3910939533489
895,856.3123283234418
896,821.8174669957898
897,770.2564748208879
898,709.8093165477185
899,648.2859568266031
900,589.816360212084
901,536.3404911657763
902,489.79831405923505
903,449.48979317684643
904,408.1748927186727
905,357.5935768033596
906,290.42580947099304
907,212.69155468599274
908,140.2107763399854
909,89.02343825468961
910,69.27950418482396
911,72.49893782095023
912,86.55170279240156
913,99.69776267014822
914,108.02708096968854
915,114.62962115395203
916,122.8153466361673
917,133.264220782763
918,136.57620691625743
919,120.93126831814152
920,75.23936823177064
921,6.460469865243795
922,-59.76546360570683
923,-96.90846903482452
924,-85.59858330246425
925,-38.81584331269005
926,21.40971400959097
927,73.24805172150263
928,102.11913286508025
929,101.92292047014598
930,67.05937755717423
931,-3.4615328598465567
932,-87.16984777054313
933,-154.15560416529843
934,-175.11883903239323
935,-144.8695893551685
936,-89.07789210914234
937,-35.44378425920877
938,-7.357302756745412
939,-4.508484536821925
940,-18.41736651533938
941,-40.623985586213166
942,-63.48837861854736
943,-80.49058245381457
944,-85.19063390304473
945,-73.35856974402304
946,-53.58442671846933
947,-39.09824152926558
948,-42.87005083765143
949,-67.32989126044413
950,-100.2077993672483
951,-128.15381167770465
952,-140.0479646587155
953,-137.87029472167887
954,-128.38083821974396
955,-118.22963144506866
956,-110.87671062608206
957,-105.31211192474802
958,-100.20587143384182
959,-94.88802517425574
960,-92.42860909226874
961,-97.23765905685468
962,-113.60521085699838
963,-140.2413001990135
964,-168.4359627038575
965,-189.01923390448064
966,-194.63114924316505
967,-187.94174406887214
968,-174.94105363461858
969,-161.54911309483396
970,-150.94595750275766
971,-142.94162180780768
972,-137.13614085300287
973,-132.68954937236595
974,-126.70188198834148
975,-115.59317320922673
976,-96.10345742661957
977,-72.242768912869
978,-56.27114181852812
979,-60.84861016984178
980,-92.38520786622212
981,-130.48096867774984
982,-147.6459262426706
983,-117.67011406493293
984,-43.843565511699126
985,41.52368618910805
986,104.871607951236
987,123.20016683256472
988,111.4393300375068
989,93.11906491942682
990,90.75933898303629
991,110.29011988677303
992,143.6913754451889
993,182.48307363129425
994,220.5151825789144
995,258.37767058501595
996,297.9205061120265
997,340.6736577901538
998,384.1070944196672
999,422.8707849731727
1000,451.60469859789737
1001,469.1588046179313
1002,484.4530725364548
1003,507.8574720379893
1004,549.7419729905778
1005,617.6865454479976
1006,700.4411596519476
1007,779.0157860341915
1008,834.6603952187288
1009,862.7849580239235
1010,879.1294454646322
1011,901.0238287543052
1012,941.358079307076
1013,989.0621687398416
1014,1024.9260688743325
1015,1030.3397517391295
1016,1005.5931895717276
1017,973.2163548205281
1018,956.9992201468394
1019,973.1117584268632
1020,1005.3239427536628
1021,1028.8857464391003
1022,1020.2771430157845
1023,981.0781062389688
1024,936.118610088477
1025,911.1086287705621
1026,922.1681367197834
1027,955.0471086008638
1028,989.555519310501
1029,1006.8933439792072
1030,1006.4205579730915
1031,1000.2671368956471
1032,1000.8030565895115
1033,1013.0382931382119
1034,1025.3328228679056
1035,1023.7166223490749
1036,996.8296683982298
1037,955.6019380795715
1038,922.2434087066704
1039,918.8240578440837
1040,951.1638633089824
1041,999.0928031727708
1042,1040.1208557626414
1043,1055.0679996631643
1044,1043.424213717819
1045,1011.0594770305324
1046,964.0537689671874
1047,912.9870691571014
1048,873.4293574945241
1049,861.1906141400668
1050,884.3608195221386
1051,923.7799543383771
1052,954.2279995570279
1053,952.4149364183249
1054,921.1807464358517
1055,882.3654113978791
1056,858.2089133686677
1057,859.5412346897901
1058,872.3023579813853
1059,879.1322661434351
1060,865.0709423569897
1061,833.2083700853982
1062,794.8645330754935
1063,761.2994153587861
1064,738.2130012526068
1065,723.9352753612548
1066,716.216222577108
1067,711.7658280817304
1068,702.6140773469342
1069,679.6009561358551
1070,634.1664505039607
1071,567.900546800096
1072,490.5832316674514
1073,412.2144920445535
1074,340.29431516620934
1075,276.422688564433
1076,221.37960006936555
1077,175.59503781016247
1078,136.90899021585392
1079,102.01144601620217
1080,67.5823942425177
1081,31.88182422846876
1082,-4.83027438913814
1083,-42.16391166959329
1084,-78.83909736754867
1085,-110.2158409322983
1086,-130.85415150707922
1087,-135.99403792839985
1088,-130.1755087253805
1089,-124.49857211912786
1090,-130.173236022134
1091,-150.6495080376626
1092,-174.46739545920536
1093,-188.46690526994098
1094,-182.3380441421814
1095,-162.3508184369166
1096,-140.75523420330683
1097,-129.46129717822623
1098,-133.3990127858542
1099,-150.5383861372302
1100,-178.55942202990082
1101,-211.96212494752763
1102,-236.79649905954284
1103,-237.68254822085328
1104,-202.91027597150605
1105,-150.06968553643856
1106,-110.96077982521456
1107,-116.6635614317911
1108,-169.42803263431597
1109,-235.18419539493334
1110,-277.49205135962075
1111,-272.23160185805864
1112,-236.95284790349797
1113,-198.07579019267178
1114,-180.04042910572753
1115,-186.84676470616614
1116,-210.45479674082526
1117,-242.65452463986912
1118,-274.4759475168048
1119,-295.80906416853577
1120,-296.45387307541387
1121,-270.31037240133446
1122,-227.49855999384636
1123,-182.13843338427614
1124,-147.64998978790936
1125,-129.0132261041399
1126,-125.68813891669924
1127,-136.97472449386078
1128,-157.4529787887077
1129,-174.1528974393932
1130,-173.46447576944774
1131,-147.35770878808034
1132,-111.2025911905439
1133,-86.45911735847767
1134,-92.3972813603159
1135,-121.53707695168123
1136,-148.59849757583834
1137,-148.24153636413212
1138,-112.7061861364964
1139,-61.932439401929514
1140,-18.35028835904086
1141,0.6302751033963432
1142,-2.47074059411716
1143,-20.16332672241697
1144,-45.13747424428948
1145,-72.13317381512024
1146,-97.13041578356933
1147,-116.15919019224748
1148,-126.04948677844368
1149,-124.76129497485636
1150,-110.37460391036257
1151,-83.53940241079363
1152,-53.83567899975969
1153,-32.78342189945943
1154,-30.642619031557842
1155,-46.25325801803956
1156,-72.39532618214434
1157,-101.73881054925732
1158,-126.5236978478788
1159,-138.4099745105941
1160,-129.04762667506293
1161,-97.19664018504227
1162,-61.16700059142204
1163,-42.5986931533007
1164,-58.63170283906402
1165,-95.7860143275011
1166,-127.8416120089405
1167,-129.86847998640042
1168,-103.7366020767804
1169,-76.04596181206034
1170,-74.22654244052865
1171,-108.4083269280327
1172,-153.87129795925648
1173,-181.7354379390108
1174,-171.17072899355844
1175,-138.9971529719587
1176,-113.0246914474319
1177,-118.45332571873769
1178,-149.06303681161626
1179,-178.11380548019042
1180,-178.98561220843658
1181,-145.1784372116872
1182,-97.84226043809758
1183,-60.11706157019944
1184,-47.45282002644126
1185,-52.49951496276117
1186,-63.70712527418618
1187,-70.12562959644492
1188,-65.16500630761584
1189,-44.02523352978096
1190,-2.646289130721925
1191,49.45184927437367
1192,90.97920432119099
1193,100.41579889450622
1194,71.62165612644822
1195,25.656799394677364
1196,-13.638747679446169
1197,-28.7149612326848
1198,-25.661817161797444
1199,-16.149291125431773
1200,-10.997358546028408
1201,-13.855994611767528
1202,-24.815174278506674
1203,-43.71487227176294
1204,-66.09506308872733
1205,-83.175721000267
1206,-86.02682005297538
1207,-71.85833407124483
1208,-49.79023665933528
1209,-30.392501203516076
1210,-21.345100874152195
1211,-18.73800862790995
1212,-15.731197209874153
1213,-6.324639155793193
1214,8.091693205726187
1215,22.30782775098487
1216,31.123792558917557
1217,30.37961590881423
1218,16.925326278016655
1219,-12.279047660395008
1220,-53.273477039965655
1221,-89.07793280322949
1222,-101.2323857040792
1223,-78.5768063102023
1224,-36.84116500549135
1225,2.014568007494745
1226,18.83042270505939
1227,15.346429239883946
1228,2.9026179385055
1229,-7.550980701220396
1230,-12.364336012658896
1231,-14.107417162993443
1232,-15.450193155800662
1233,-14.21263283367989
1234,-0.6447048808822728
1235,35.603622174028715
1236,95.90237995549614
1237,155.99160023828517
1238,187.02131494475725
1239,167.65155614212745
1240,118.012356039726
1241,72.47374698620115
1242,62.62576146673564
1243,88.7484321002321
1244,131.41179163646484
1245,171.1558729532353
1246,195.8907090535031
1247,201.5963330624745
1248,184.7727782247075
1249,151.21007790117073
1250,124.53826556629429
1251,130.42737480499454
1252,181.94743930970617
1253,248.58849287734301
1254,290.3805694062976
1255,275.363702893379
1256,222.79792743076905
1257,172.11327720291956
1258,160.0597864834599
1259,188.58748963209473
1260,235.9564210914359
1261,280.19661538388027
1262,307.0281071084064
1263,310.8909309374212
1264,286.7951216135116
1265,241.83071394624676
1266,206.03774280892867
1267,212.03624313532237
1268,274.1462499163954
1269,347.03779819699776
1270,373.24092307257524
1271,310.36565968582545
1272,202.06204322334997
1273,122.40010891229758
1274,137.24989201698736
1275,226.99142783549905
1276,321.7447516962711
1277,353.8098989546652
1278,314.7369049895333
1279,252.0758051997327
1280,215.10663500066403
1281,224.93942982077533
1282,260.5042250980532
1283,297.3310562764891
1284,319.0399588025484
1285,328.71096812160795
1286,332.2741196743773
1287,334.20944889333623
1288,333.0969911990942
1289,326.0967819968064
1290,311.11885667252864
1291,291.03325058956216
1292,270.65999908480626
1293,254.71913746507198
1294,246.32070100339115
1295,247.58472493531372
1296,260.4012444552027
1297,281.72029471246606
1298,303.7819108078402
1299,318.7261277896232
1300,321.872980649885
1301,313.10250432069734
1302,292.6447336703186
1303,261.09970349939067
1304,219.87744853709592
1305,170.47800343732888
1306,118.0414027748393
1307,79.66768104136281
1308,74.94687264173626
1309,115.61901189002128
1310,173.14413300558772
1311,206.14227010919603
1312,180.32345721907222
1313,118.55772824697306
1314,71.10511699423114
1315,84.07565714778138
1316,146.5893822761991
1317,208.04632582570412
1318,219.02652111616953
1319,176.8500013371049
1320,125.25679954364205
1321,109.43694865251018
1322,144.08048143797714
1323,201.01743052781967
1324,248.90782839924032
1325,268.20170737481385
1326,262.709099618387
1327,239.05003713100086
1328,206.47455174678726
1329,181.6826751288463
1330,182.74443876513942
1331,221.52987396434764
1332,284.6790118517474
1333,352.38188336503845
1334,405.25851925021743
1335,426.39895005738435
1336,399.76320613658754
1337,314.74131763362493
1338,206.49331448588055
1339,133.14922641809062
1340,147.24908293817316
1341,228.29291333297624
1342,306.1807466640894
1343,313.1626117636024
1344,246.4185372298707
1345,161.89855142325905
1346,116.42268246191634
1347,124.31095821749841
1348,149.1734063109252
1349,152.0700541080878
1350,120.74092871558787
1351,84.61605697645973
1352,76.64546546586462
1353,109.14918048683103
1354,152.2672280659135
1355,170.94963394892693
1356,145.56642359661964
1357,97.81762218035874
1358,56.2632545778215
1359,40.89334536866227
1360,41.357918830199196
1361,40.66699893306213
1362,26.81060933688059
1363,10.818773385921304
1364,10.381514104772577
1365,38.92885419396771
1366,84.55081602565588
1367,125.97742163925068
1368,143.97869273704964
1369,135.6546506799168
1370,105.73531648288008
1371,59.850710810796954
1372,12.360853973968915
1373,-17.304234076200373
1374,-11.324533751612762
1375,25.359974168199187
1376,71.52930853166254
1377,106.2734878108131
1378,119.66253009690627
1379,111.35645309605388
1380,81.76527412484211
1381,42.21901010595866
1382,15.357677563806647
1383,23.68129262014918
1384,65.02987098971244
1385,106.81342797581055
1386,115.03197846598778
1387,81.29553692763147
1388,34.63411740359879
1389,6.8177335078435135
1390,13.44639842106153
1391,42.310124886289486
1392,78.48892520456866
1393,109.78281123056877
1394,129.501794368216
1395,131.57588556634437
1396,115.53509531433338
1397,93.85943363775186
1398,80.85891009400984
1399,84.04353376800827
1400,92.57331326777967
1401,92.58825672018429
1402,77.17837176652756
1403,61.03366555825414
1404,62.97414475261576
1405,94.62981550834229
1406,142.38068348132037
1407,187.0267538202861
1408,214.44803116251023
1409,230.6145196294965
1410,246.4862228226848
1411,269.6731438191564
1412,292.63528516735096
1413,303.6326488827799
1414,294.70523644376954
1415,276.483048787175
1416,265.3560863041348
1417,274.4643488358179
1418,299.3678356691744
1419,329.666545532702
1420,356.35047659221163
1421,378.4896264466224
1422,398.18399212373515
1423,415.653570076036
1424,419.17835617649325
1425,392.3483457143939
1426,323.1435333911413
1427,229.86391331610866
1428,143.5194790024707
1429,92.29022336306662
1430,83.39613870625908
1431,114.74721673181375
1432,181.31344852677648
1433,255.76482456138365
1434,300.47133468495485
1435,283.5629681218197
1436,219.40971346725564
1437,144.50155868342154
1438,91.86849109532159
1439,64.79049738676258
1440,51.987563596343534
1441,42.66967511346047
1442,31.20681667428471
1443,14.49897235780918
1444,-9.213874418121122
1445,-30.821740900773875
1446,-35.754645006440114
1447,-12.152605324394244
1448,28.23435887924461
1449,61.816227657576746
1450,68.01298037906781
1451,52.36459572369131
1452,33.42105167907175
1453,27.892325536653516
1454,36.80839388790264
1455,53.48923262048811
1456,71.07481691453177
1457,81.49512123880959
1458,76.1401193470465
1459,49.28978427414404
1460,17.364088332522442
1461,6.97300310837818
1462,39.39649945805104
1463,96.91454750435514
1464,144.64711663292837
1465,152.84417548865167
1466,127.32569197201883
1467,88.71163323557994
1468,55.761965680379944
1469,34.806654952419194
1470,27.325665939149985
1471,32.99896276596155
1472,41.0265087927346
1473,36.75826661036626
1474,10.40419803734585
1475,-21.535735883639063
1476,-33.7715748891078
1477,-9.143359498139034
1478,29.518868984299843
1479,47.12506846400356
1480,18.645196054272674
1481,-36.3507919273743
1482,-85.94293996245506
1483,-105.7712933347193
1484,-101.375898133374
1485,-85.66680125623498
1486,-70.23405041287879
1487,-62.117694127771756
1488,-67.32778174334635
1489,-87.95436342310313
1490,-113.93749015461253
1491,-132.9372137525752
1492,-135.55358686176805
1493,-120.44666296003925
1494,-87.64649636123795
1495,-44.85314221809858
1496,-17.646656525155777
1497,-33.98709612156199
1498,-98.61451869392295
1499,-169.55898277910455
1500,-199.5705477669744
1501,-170.55927390314173
1502,-114.74522229167087
1503,-69.00845489774838
1504,-51.26903455032334
1505,-51.47702494473015
1506,-57.532490645256985
1507,-64.4454970877141
1508,-76.10611058192808
1509,-96.69439831425188
1510,-123.8704283500083
1511,-148.35426963590544
1512,-160.7959920024423
1513,-156.2356661662434
1514,-133.64336373240076
1515,-93.1591571967474
1516,-49.643119948110325
1517,-28.69532627055014
1518,-52.94585134551744
1519,-110.36477125402234
1520,-168.06216297873289
1521,-196.42810440606627
1522,-195.31267432823006
1523,-178.93595244521384
1524,-161.14801936677213
1525,-152.7589566143506
1526,-163.43884662297933
1527,-196.99777274313055
1528,-228.90581924254002
1529,-225.92307130798144
1530,-169.77961504701307
1531,-99.00553748967104
1532,-65.56092659015121
1533,-96.89587122840749
1534,-149.23046121176412
1535,-166.05478727642367
1536,-125.07894108900291
1537,-80.37301524798386
1538,-95.76710328511035
1539,-185.83129966680644
1540,-280.4756997954846
1541,-302.6994000108498
1542,-235.20549759114874
1543,-139.65109075437613
1544,-81.24727865944806
1545,-79.21416140731526
1546,-106.1218400420421
1547,-133.48041655184898
1548,-148.73999387007825
1549,-151.67067587616475
1550,-142.80256739652032
1551,-127.2857742053784
1552,-112.94040302561916
1553,-106.85656152951015
1554,-110.88435833943004
1555,-124.63390302854168
1556,-145.8453061213877
1557,-163.10867909448643
1558,-162.2141343768344
1559,-137.06178535039362
1560,-110.07174635051342
1561,-109.85413266630167
1562,-147.41906054094943
1563,-190.0706471720223
1564,-198.77601071167373
1565,-160.6602702668133
1566,-109.03654589926191
1567,-81.3159586257807
1568,-91.50863041813318
1569,-124.06468420303099
1570,-161.82624386205862
1571,-194.0674342315342
1572,-215.87438110233052
1573,-222.646211219615
1574,-211.02905228256714
1575,-178.48003294402952
1576,-125.88228281009287
1577,-79.29993243963509
1578,-75.97211334382882
1579,-139.57795798552797
1580,-228.06859977868407
1581,-279.6441730876395
1582,-256.1648132263854
1583,-194.51765645777778
1584,-146.32583999266535
1585,-140.40850198899534
1586,-157.5557815508255
1587,-172.72981872730634
1588,-174.04975451157406
1589,-168.3447308396353
1590,-163.74589058911624
1591,-165.51537757802362
1592,-176.16433656340996
1593,-196.90191323997897
1594,-215.13325423863716
1595,-209.32150712497787
1596,-163.89782039770216
1597,-105.95534348699948
1598,-80.69722675282719
1599,-118.19362148315122
1600,-183.1776798921237
1601,-222.86655511819117
1602,-204.96340122213587
1603,-152.04737318505795
1604,-95.69362690628077
1605,-59.84331920121622
1606,-55.41260779912591
1607,-91.18365134086525
1608,-151.5496093765032
1609,-194.1926423629211
1610,-179.5769116613319
1611,-123.48157953471309
1612,-80.68880914520196
1613,-96.92576455137896
1614,-145.76061070554533
1615,-168.80451345086294
1616,-124.2686395184719
1617,-41.83615652451408
1618,29.781767032898642
1619,57.336961776803946
1620,46.693257454568084
1621,9.877482941137714
1622,-37.184533757639656
1623,-72.58796550159423
1624,-74.98998601278254
1625,-46.44376987193937
1626,-11.271492514846614
1627,7.14166977135028
1628,4.175539851923531
1629,-13.889060251616684
1630,-40.76430935756616
1631,-71.03038712006492
1632,-99.54347402500571
1633,-120.95575138589084
1634,-129.3034013396009
1635,-118.60760684210072
1636,-93.49255166404691
1637,-77.6144203863314
1638,-95.52939839553619
1639,-143.31567187933433
1640,-186.70342782176158
1641,-193.74985399845718
1642,-175.41313897180044
1643,-169.66947208596866
1644,-204.5480434619094
1645,-247.9830439922589
1646,-246.38166533611547
1647,-171.80009991381667
1648,-76.27354090154768
1649,-26.951182225939192
1650,-51.89621855851692
1651,-111.59484531011913
1652,-160.70825862519996
1653,-175.61565537605384
1654,-154.18623315695368
1655,-97.39019027821996
1656,-27.348725760155503
1657,21.902960673034613
1658,24.064668599481593
1659,-8.675803094063667
1660,-52.435656205852865
1661,-89.47709321265393
1662,-117.72031726320347
1663,-137.43953217154376
1664,-145.0849424102853
1665,-131.83575310377637
1666,-90.09617002118466
1667,-36.47139956946921
1668,-6.09564878628953
1669,-27.45412533279341
1670,-80.86103748633286
1671,-126.77059413308598
1672,-137.6260047605574
1673,-126.17847945003086
1674,-113.47622886888166
1675,-111.13346426283351
1676,-114.50739744807652
1677,-117.48124080334856
1678,-116.53820726184495
1679,-110.56251030310887
1680,-98.41936394474942
1681,-78.03298273414839
1682,-46.87458173997766
1683,-7.016376543673687
1684,21.694416769187228
1685,15.268581617649033
1686,-30.419099065815317
1687,-81.5668428263325
1688,-101.51686767762658
1689,-86.85639209285182
1690,-67.12063499535361
1691,-69.0548157493431
1692,-83.03715415042461
1693,-80.89787041607269
1694,-44.70818517594853
1695,2.6226805378319114
1696,28.287505300577322
1697,15.06806730498829
1698,-24.97285562878278
1699,-76.2064860429382
1700,-116.73904683174806
1701,-118.7367612311773
1702,-60.76185280834761
1703,26.341454549034097
1704,87.01793664341312
1705,84.33036897820057
1706,47.01752676873002
1707,17.8961849532825
1708,19.958118204247512
1709,43.61910093938786
1710,75.90390733323693
1711,98.11331132855412
1712,86.91908664796028
1713,26.844006805622485
1714,-47.534154880893766
1715,-82.34062527868991
1716,-50.13863142748778
1717,3.8485994725579076
1718,23.10684007312375
1719,-6.8941371098608215
1720,-46.89555968370405
1721,-57.183655366321545
1722,-32.101651973471235
1723,13.108222594095423
1724,62.286740363637364
1725,96.68167330352298
1726,96.96579333645968
1727,63.46387235282782
1728,34.3146822241597
1729,49.51499481671817
1730,101.76558200519685
1731,141.33621568655508
1732,125.3886677939754
1733,67.4367103109198
1734,4.042115285334148
1735,-37.07834515602735
1736,-52.86989879316752
1737,-44.599773298279615
1738,-17.927196221040504
1739,16.120605026195335
1740,45.975403183345406
1741,58.32997115767466
1742,38.88408203898143
1743,-15.770490885061008
1744,-68.34097411345829
1745,-72.5625939163092
1746,-20.41957631909463
1747,35.80185291316411
1748,43.19046829188301
1749,11.636044621009205
1750,-4.749642986735125
1751,33.70318090650471
1752,93.42429208021713
1753,119.37846667216036
1754,87.14648119512276
1755,30.942112553811967
1756,-9.933861938092377
1757,-23.10466454078778
1758,-18.598517071040988
1759,-5.964640884754772
1760,11.795743140626655
1761,33.94441462379473
1762,56.274153697471775
1763,67.02874102634996
1764,54.233957825257676
1765,22.074585877397112
1766,-10.33959244723519
1767,-24.770794173313334
1768,-12.070235701487036
1769,33.3918672104337
1770,103.15229946646105
1771,155.88384665152444
1772,148.0602950507291
1773,91.62643166876296
1774,51.97204424942902
1775,82.94192129531802
1776,150.32385208765845
1777,185.48562670628235
1778,153.77803604974724
1779,100.37587185560187
1780,79.91792672080373
1781,104.94199412228409
1782,148.16286843764829
1783,183.0633449660436
1784,197.63121994917128
1785,185.30529059243236
1786,149.59835508624747
1787,116.08021262750663
1788,111.75666344119054
1789,135.52250880212705
1790,161.7415510569026
1791,169.01259364594443
1792,163.45044112572396
1793,160.33389919115325
1794,165.41377469809413
1795,166.02387568606355
1796,148.96501140106557
1797,124.2549923185943
1798,119.50563016677552
1799,153.0447379497109
1800,199.50212997091148
