800,228.42109714891558
801,222.2818486687229
802,207.33119919967066
803,184.79931172206125
804,157.10634942604156
805,126.69247571388405
806,96.65785420213797
807,72.37264872378364
808,59.67702333030684
809,64.27114229372637
810,86.16517010857388
811,118.30927149382842
812,153.20361139478337
813,183.918354984884
814,208.1836676674975
815,225.8597150776368
816,236.8466630836483
817,241.2346777888324
818,239.6139255330254
819,232.67457289412232
820,221.11678668957393
821,206.27073397780077
822,190.01658205959393
823,174.2844984794392
824,160.62465102681017
825,148.68720773741916
826,137.52233689439709
827,126.19020702945636
828,114.17098692396576
829,101.69484561004538
830,89.0619523715377
831,76.86247674498372
832,68.88658852054505
833,70.88445774287356
834,88.61625471192019
835,123.59214998374591
836,163.49231437123126
837,193.19691894477728
838,198.11613503295848
839,176.7201342231201
840,141.71908836193325
841,106.58316955592454
842,82.71255017194017
843,69.33740283756742
844,61.097900441534875
845,52.69421613405575
846,42.84652332711812
847,37.75499569475687
848,44.429807173262816
849,68.88113196136874
850,105.76914452037272
851,142.53401957423193
852,166.49593210962848
853,169.8350573759726
854,160.17157088536442
855,148.1556484125449
856,144.09746599477148
857,150.22719993167266
858,160.5650267850633
859,168.74112337871884
860,169.6256667980997
861,164.5988343900499
862,157.19080376245984
863,150.92175278386821
864,148.5118595830627
865,151.4213025485933
866,161.01026032831032
867,178.0089118287924
868,197.68743621481008
869,212.5260129086928
870,214.98482158969637
871,203.34404219332282
872,189.86385491058354
873,188.83444018728187
874,213.2159787231758
875,256.0686514711979
876,295.2626396365613
877,308.2881246758807
878,280.8052882962347
879,227.80431245420186
880,170.8553793548599
881,131.03867145074764
882,116.26437144080046
883,120.27266226924985
884,136.11372712446973
885,156.89774943783596
886,176.07491288249184
887,187.21540137213196
888,184.06939905973013
889,169.45709033623098
890,159.5486598292282
891,171.5842924015742
892,219.10417315002087
893,288.23848740374524
894,352.8374207229299
895,386.85115889723784
896,379.8698879443109
897,351.95379410820897
898,326.6730638578156
899,325.407883885242
900,346.908441104164
901,376.6349226481543
902,399.89751586898274
903,406.90640833487305
904,400.1817878287402
905,384.15384234639896
906,363.34276009475616
907,343.6187294899264
908,331.79193915539145
909,334.7125779200687
910,355.26083481638125
911,383.70689907830456
912,407.86096013936003
913,416.20320763060954
914,409.9338313786029
915,401.563021403319
916,404.0409679160384
917,423.7978613172654
918,442.553892194519
919,436.0492513201971
920,381.3541296493622
921,288.0187183174985
922,199.25320863828347
923,159.8977921012738
924,201.77266036962828
925,298.4680052777694
926,407.1340188290196
927,485.7008931932269
928,515.3388207043699
929,504.4779938581196
930,463.1186053093825
931,402.3708478698427
932,339.1249145054535
933,292.05099833391614
934,279.38929262212514
935,302.2599907836193
936,339.81328637597653
937,369.77937309819936
938,373.66844478809617
939,353.97069541961173
940,320.4063191001387
941,282.6655100678363
942,248.39846268889596
943,222.55537145480412
944,209.8664309795695
945,213.14183599693752
946,223.9317813575999
947,229.74646202634904
948,218.33607307924285
949,188.54080970072573
950,154.65086718076418
951,132.06644091191083
952,132.80772638639792
953,148.74491919318825
954,164.46821501501472
955,164.79780962537916
956,145.64389888558435
957,118.17667874166546
958,94.7163452213972
959,85.05309443121405
960,84.55712255314029
961,83.50862584168499
962,72.37780062076126
963,50.10484328052371
964,26.859950274252697
965,13.633318115171278
966,18.72514337328721
967,36.15562267216774
968,55.20495268576997
969,65.33333013517222
970,62.190951785360085
971,49.12801444194338
972,29.954714947905813
973,8.3712501802911
974,-12.702182953091324
975,-30.5153875169799
976,-42.48816655202245
977,-50.12032307809568
978,-59.44166009769833
979,-76.76198059929811
980,-105.07108756077287
981,-133.35878395276814
982,-146.89487274214662
983,-131.71915689541856
984,-92.04143938219022
985,-49.881523178626594
986,-28.059211270927335
987,-41.46430665880143
988,-76.5966123589842
989,-113.51593140874866
990,-133.07206686941754
991,-129.1648218299233
992,-106.65399941032592
993,-70.74940276540474
994,-28.180835088218373
995,9.71190038630266
996,30.779000377793636
997,23.990661556794294
998,-6.96291945881967
999,-48.21154610750273
1000,-85.68502188764796
1001,-109.30315036126012
1002,-118.43573515759454
1003,-113.78257997683977
1004,-96.08348859380021
1005,-66.77826486157574
1006,-32.24671271526677
1007,-0.8786361756629049
1008,18.976160646991048
1009,22.367873549334035
1010,9.21669823110824
1011,-20.187169708584406
1012,-63.66353477499433
1013,-108.84220158153767
1014,-139.92297485352356
1015,-141.535659431951
1016,-113.04006027728428
1017,-71.065982473252
1018,-33.243231230648234
1019,-13.911611891120629
1020,-13.40092993100734
1021,-28.33099096513797
1022,-55.09160075068576
1023,-84.78256519096976
1024,-103.60369033931966
1025,-97.58478240291879
1026,-60.46564774663602
1027,-10.356092896920018
1028,29.83407545436239
1029,39.255050446054156
1030,23.80702504382316
1031,8.140192036278677
1032,17.27474403110682
1033,59.54087345115295
1034,105.40877253054168
1035,120.0986333107794
1036,74.95064763683513
1037,-6.454992846756795
1038,-74.04809669981842
1039,-78.08847269043144
1040,-6.405929798871512
1041,93.06972277847126
1042,166.99867562516192
1043,172.91111910079962
1044,129.0272433370701
1045,74.46723823380489
1046,47.38129345506604
1047,57.479598425179574
1048,83.34234232479139
1049,101.94971408692982
1050,97.10190239304211
1051,76.76909566905852
1052,54.261482081430586
1053,41.96924953316193
1054,39.68258565987526
1055,38.05167782582794
1056,27.546713119972992
1057,5.757878351991167
1058,-14.094639951683348
1059,-16.73065555181347
1060,10.280017499679161
1061,57.877564855733
1062,107.22217187020397
1063,139.7440235938866
1064,149.71330477054653
1065,148.72019983296195
1066,149.55489289896286
1067,161.7675677674506
1068,180.9284079144618
1069,198.97759648915962
1070,208.21531630993195
1071,207.2017498603782
1072,199.58707928537478
1073,189.1514863871016
1074,178.3251526211061
1075,166.41825909232648
1076,152.29098655114467
1077,135.55351538944342
1078,121.58602563663408
1079,118.40869695573019
1080,133.7417086393889
1081,163.1852396059803
1082,186.53946839563105
1083,182.57457316629007
1084,138.89073168980212
1085,76.90812134797306
1086,26.186919128636873
1087,13.997301621720908
1088,37.24944501535174
1089,71.31352509190583
1090,91.18971722411516
1091,83.77819637115317
1092,58.82913707470834
1093,28.72271345511217
1094,4.149099207425024
1095,-14.20153240246691
1096,-29.189008541718067
1097,-43.64315681443259
1098,-59.25380526552908
1099,-76.6007823846121
1100,-96.23391710985015
1101,-117.02303883185596
1102,-133.34797739749592
1103,-138.88856311380914
1104,-128.86462675179428
1105,-111.16599955029415
1106,-99.78251321980679
1107,-108.37399994633597
1108,-136.12029239519507
1109,-164.05122371482685
1110,-172.02662754063385
1111,-147.95633799875395
1112,-107.21018970988553
1113,-70.96801779306224
1114,-58.83965786942099
1115,-74.12494606602922
1116,-110.52371901958759
1117,-161.5658138802446
1118,-217.83106831532677
1119,-265.5293205130765
1120,-290.5404091864293
1121,-283.83417357668804
1122,-256.69045345729864
1123,-225.33908913752748
1124,-205.0599214661852
1125,-199.01279183532097
1126,-202.527542183916
1127,-210.83401500154105
1128,-222.1620533320638
1129,-239.5815007772835
1130,-266.592201500589
1131,-304.5640002306209
1132,-345.9667422648763
1133,-380.94027347336305
1134,-400.0744403021945
1135,-399.3090897772163
1136,-378.09406950757693
1137,-336.069227689326
1138,-279.01441310899827
1139,-222.36947514717394
1140,-182.44426378203207
1141,-171.51862959289792
1142,-185.7624237637574
1143,-217.35549808683936
1144,-258.22770496605153
1145,-297.8688974205361
1146,-324.21892908815425
1147,-325.4876542289312
1148,-303.60492772858197
1149,-280.21060510190364
1150,-278.5045424962882
1151,-310.4865966950965
1152,-349.51662512113035
1153,-360.5844858399869
1154,-314.1300375635292
1155,-230.1831396532034
1156,-155.20365212345496
1157,-134.72143564507132
1158,-174.73635154854492
1159,-233.81826182740042
1160,-267.7970291415295
1161,-249.81251682046423
1162,-200.83458886673907
1163,-149.95310995913314
1164,-122.36794545593511
1165,-116.71896139822638
1166,-120.60602451313389
1167,-122.12900221701784
1168,-119.28776261874373
1169,-119.33217452284953
1170,-129.79210743274962
1171,-152.37743155391945
1172,-177.06801779704256
1173,-192.4537377811721
1174,-190.39446383685208
1175,-178.1100690092535
1176,-167.31042706127846
1177,-168.4654124766348
1178,-177.2749004629295
1179,-179.7987669547183
1180,-162.23688861657865
1181,-124.75914284609098
1182,-86.67540777690738
1183,-68.70556228173155
1184,-82.99948597529874
1185,-116.34705921735076
1186,-150.85816311560848
1187,-170.59267952868322
1188,-172.94049106901366
1189,-160.88148110578186
1190,-137.53553376780474
1191,-108.87253394638901
1192,-83.31236729821103
1193,-69.2749202481682
1194,-69.15007999215959
1195,-74.53773449997243
1196,-75.96777251801905
1197,-67.74008357210914
1198,-58.30455797027025
1199,-59.471086805435334
1200,-80.3495619581845
1201,-107.4798760994563
1202,-116.08192269326537
1203,-82.5555959993435
1204,-13.970791075811576
1205,52.14259621818201
1206,77.05466921982224
1207,43.62553046004905
1208,-22.994718339057727
1209,-92.74597626683317
1210,-140.54814322658422
1211,-161.68111993811908
1212,-156.51480794027157
1213,-126.4791095934088
1214,-81.94392808187331
1215,-37.92916741648878
1216,-8.944732436975755
1217,2.2194711856100184
1218,4.393536946474342
1219,6.897557504704309
1220,14.131624680900131
1221,21.405829454812192
1222,23.02026196301813
1223,15.695011496620282
1224,5.130166498947801
1225,-0.924185436731932
1226,4.032042430560978
1227,16.848935987269215
1228,29.956580263071373
1229,36.2250594287143
1230,36.544456793821155
1231,38.5248548047457
1232,49.94633504241574
1233,73.03897822024737
1234,101.5728641820242
1235,128.55807189984625
1236,147.92467947204204
1237,156.19276412117324
1238,150.33240219197614
1239,129.32366914941667
1240,103.32663957668774
1241,86.30138717323644
1242,90.92798475288873
1243,115.33650424188818
1244,148.52701667702058
1245,179.50959220377626
1246,202.3443000744337
1247,216.6412086463024
1248,222.27038537987755
1249,221.78189683705568
1250,222.76580867939265
1251,233.41218566636235
1252,256.381091653584
1253,275.30258959121056
1254,269.686741522175
1255,224.6936085805828
1256,161.89325099004418
1257,117.14572806208889
1258,123.37109819457692
1259,175.26941887011344
1260,241.59074665451408
1261,291.2051371952657
1262,312.2826452200752
1263,314.99332453533134
1264,310.6672280246639
1265,308.9044076475584
1266,315.9849144378677
1267,337.80879850248675
1268,374.79610901996784
1269,409.496894239157
1270,420.77120147790265
1271,392.5490771217519
1272,337.40056662266943
1273,278.04571449779905
1274,235.64456432820225
1275,215.0971587577078
1276,211.7035394917002
1277,220.59374729594128
1278,235.20782199550013
1279,247.47580247356746
1280,249.33772667041194
1281,239.25363158232722
1282,225.40355326054487
1283,216.7475268102644
1284,218.79558638964227
1285,228.7977652088157
1286,242.7640955289935
1287,256.62460866147376
1288,265.89933496681624
1289,266.0383038539294
1290,254.00154377921717
1291,236.68908224578263
1292,224.98094580263205
1293,229.1771600438442
1294,252.91774960791736
1295,295.6627381769358
1296,356.3321484759508
1297,422.99600227225164
1298,473.49432037476436
1299,485.5971226333713
1300,454.9244279383456
1301,402.6362542197603
1302,351.8326184469406
1303,318.9935366279424
1304,306.3690238090203
1305,314.3190940741879
1306,340.70376054475855
1307,374.9130353788969
1308,404.6369297712372
1309,419.1954539524959
1310,416.4586171891533
1311,397.05642778306355
1312,363.3288930712224
1313,331.57601942545443
1314,324.75781225217725
1315,363.18427599218194
1316,431.6854141204276
1317,490.3212291458658
1318,500.26172261132524
1319,459.82689509334523
1320,404.30674620213176
1321,370.1412745814414
1322,371.9804779085898
1323,393.67435289439527
1324,416.852895283213
1325,429.3060998529618
1326,431.103960415192
1327,423.7864698151825
1328,411.21361993202663
1329,403.7654016788183
1330,413.0018050027902
1331,445.83281888551574
1332,490.1884313431401
1333,529.1486294266178
1334,548.643399221979
1335,551.2527258506707
1336,545.6265934698386
1337,539.8549852727119
1338,537.6878834889649
1339,540.6152693851545
1340,549.5471232651144
1341,558.0534244704686
1342,554.694151381078
1343,528.9892814155828
1344,491.108791031922
1345,469.88265572794626
1346,493.7608500419665
1347,557.1433475534213
1348,613.7101208834902
1349,615.3911416958108
1350,553.0763806971627
1351,478.6258076382219
1352,449.0493913142891
1353,491.9970995661097
1354,575.0588992806952
1355,658.4447563921312
1356,710.0646358824815
1357,718.6185017826829
1358,676.1863171734694
1359,585.0780441863026
1360,483.39364400440536
1361,417.17307686373897
1362,420.37630205403184
1363,471.493277919868
1364,533.0339618617691
1365,572.8083103373392
1366,590.5762788623688
1367,597.9078220120537
1368,604.7028934221744
1369,607.8714457903552
1370,598.2534308772956
1371,568.4887995080935
1372,530.0675015735324
1373,505.45948603142824
1374,515.2347009080477
1375,552.3230932994556
1376,589.9546093729587
1377,602.2591943685984
1378,587.7667926005961
1379,566.0673474588802
1380,556.8008014106672
1381,563.5270960019516
1382,573.1061718592064
1383,571.8779686909184
1384,555.4424252893259
1385,530.8694795320407
1386,505.839068383797
1387,483.6111278981989
1388,461.055593219462
1389,434.6023985842403
1390,407.8614773234476
1391,396.86276186411123
1392,418.706183731254
1393,475.72167354981866
1394,540.6991610466175
1395,582.9185750522665
1396,585.6598435032429
1397,564.8028934438735
1398,540.827651028405
1399,526.694041523082
1400,515.0719893082969
1401,495.25141788068504
1402,463.09224985533365
1403,434.59440696798265
1404,429.6878100772301
1405,458.9623791668273
1406,500.27803334794226
1407,524.2346908614891
1408,510.3822690804809
1409,473.65068451237676
1410,437.7998528015414
1411,421.8096887316242
1412,423.4001062280586
1413,434.4210183605355
1414,447.81233734552734
1415,461.99397454885184
1416,477.0858404882456
1417,492.5778448359597
1418,504.56989642141343
1419,507.9619032338669
1420,499.33377242509596
1421,485.08541031212735
1422,475.24672237999766
1423,478.52761328455017
1424,495.1879868552169
1425,522.2177460978783
1426,555.8767931977345
1427,587.705029522218
1428,607.2723556239071
1429,606.9686712434668
1430,599.9638753127001
1431,608.6178659574871
1432,650.8805405009043
1433,710.8917954662502
1434,757.1015265801689
1435,762.2096287758068
1436,733.2559961959196
1437,693.6505221961488
1438,665.2930993481641
1439,656.1136194429528
1440,667.2719734941238
1441,698.18805174117
1442,734.401743652852
1443,754.4829379305338
1444,740.9415225116136
1445,710.0273845729171
1446,694.9204105341996
1447,723.7504860615882
1448,780.7574960711354
1449,828.1113247323374
1450,832.3718554717198
1451,798.3789709764533
1452,750.0825531979863
1453,709.7724833556676
1454,685.2486419405104
1455,677.2309087188587
1456,685.0191627361492
1457,697.0432823207229
1458,696.5531450875897
1459,670.1186279423091
1460,629.8296070848337
1461,599.525958013408
1462,597.5675555285234
1463,602.344273736835
1464,574.6759860551792
1465,484.5925652145852
1466,365.7538832643113
1467,278.32981157590257
1468,271.0402208473497
1469,319.01498110716057
1470,368.5439617185584
1471,373.64703138366895
1472,334.2640581477317
1473,267.0749094033599
1474,191.2394518948131
1475,139.12755172231118
1476,147.55907434636174
1477,236.9838845921622
1478,347.52184665393725
1479,394.69282409943116
1480,320.8066798742948
1481,186.96327630664382
1482,87.09247511150534
1483,89.06413739540585
1484,157.7081236609156
1485,232.35429381127324
1486,266.62250715498885
1487,264.27262241052813
1488,239.98449771098603
1489,207.4979906088156
1490,177.65295808056544
1491,160.7392565316586
1492,162.76674180120244
1493,178.3352691668042
1494,200.13469334946785
1495,219.11486851843802
1496,222.21564829618728
1497,195.84688576328335
1498,139.1184334634563
1499,76.56014340852562
1500,35.581867083499674
1501,29.213455451601476
1502,45.504758959377796
1503,70.15562754183702
1504,92.81591062756706
1505,109.03545714395659
1506,114.97411552236736
1507,112.70173370340854
1508,111.70815914216291
1509,121.46323881353237
1510,139.97681921752155
1511,153.13874638460766
1512,147.13886588113382
1513,125.00702281469421
1514,104.64306183960798
1515,103.06682716235446
1516,117.84816254707766
1517,132.20691132112916
1518,130.62291638061652
1519,114.13602019596874
1520,93.76606481756244
1521,79.76289188135343
1522,74.62634261456697
1523,77.08625784135438
1524,84.51247798854456
1525,85.59484309140316
1526,65.69319279938645
1527,16.46736638198854
1528,-39.442797265463014
1529,-69.88745961591849
1530,-53.8867825046982
1531,-12.710928123593476
1532,22.39994098508396
1533,29.675661934499658
1534,15.03607149929303
1535,-10.598993878396868
1536,-35.97969808284324
1537,-49.1262053186947
1538,-38.08868010476726
1539,-3.9372872679778084
1540,29.89780806284034
1541,38.286440463194594
1542,15.038444219113444
1543,-20.866346666593017
1544,-49.10809846801931
1545,-59.20697772987842
1546,-50.60315126115529
1547,-24.05678612871634
1548,6.52195034905526
1549,17.082890608704474
1550,-12.484133151854621
1551,-59.40928896684636
1552,-76.02274509615017
1553,-24.784670018743782
1554,58.08476757384051
1555,104.675398784133
1556,64.29705451528207
1557,-27.64043452221813
1558,-109.02723780393717
1559,-135.2335249847638
1560,-122.91946589219879
1561,-102.15523051959462
1562,-93.37098901938225
1563,-93.00691169625861
1564,-93.9831690003848
1565,-93.96993152048162
1566,-99.1573699769724
1567,-116.4356552150457
1568,-146.63495819776654
1569,-182.93544999904043
1570,-218.1173017966721
1571,-247.1106848653253
1572,-266.7657705694801
1573,-273.9527303563591
1574,-264.951735748833
1575,-235.6529583382835
1576,-184.63656977745268
1577,-130.46274177329178
1578,-100.57164607970844
1579,-114.87345449037457
1580,-156.79833883144966
1581,-198.79647095431574
1582,-217.52802272824192
1583,-202.98316603305284
1584,-147.88207275180685
1585,-61.264914763349225
1586,13.508136065058352
1587,29.496907885197288
1588,-21.118771124652994
1589,-90.53907275222082
1590,-128.45416874370858
1591,-121.97423079628061
1592,-94.31943055049123
1593,-69.21993958266467
1594,-58.945929397290456
1595,-68.3275714193951
1596,-98.91503698685119
1597,-130.2984973427083
1598,-132.68812362742392
1599,-88.77408687118077
1600,-34.81655798606516
1601,-21.495707758291246
1602,-73.00170684041223
1603,-142.80472574340092
1604,-173.04493482885664
1605,-140.55250430105298
1606,-81.04760419906233
1607,-35.170404388765746
1608,-19.661074554929655
1609,-25.129784193180967
1610,-41.05670260199986
1611,-60.05199887467461
1612,-76.9358418912343
1613,-86.78840031034997
1614,-86.2698425612507
1615,-72.78033683553076
1616,-44.94005107902922
1617,-6.589152983629901
1618,36.99219002096288
1619,78.0938107754555
1620,102.79554239920617
1621,96.43721829854621
1622,57.25867217504128
1623,3.399738033869653
1624,-45.4797498078442
1625,-73.37995671266981
1626,-67.79104771443599
1627,-19.38318750981125
1628,50.4534595501209
1629,102.39872946835749
1630,104.61245861047064
1631,68.05448371312013
1632,18.38464189259321
1633,-21.63722934663747
1634,-38.34129210329047
1635,-19.9677080707188
1636,30.92336147176684
1637,86.01175566753955
1638,115.2573140913264
1639,113.949876757928
1640,104.39928413091548
1641,108.07537713141937
1642,121.90799714684181
1643,127.40698603970668
1644,111.34218615642385
1645,92.22344033615445
1646,99.95059191965993
1647,146.1634847581845
1648,185.60196322233605
1649,162.51587221103546
1650,71.69505716046115
1651,-4.690635947001283
1652,20.308639426224545
1653,142.2627303819536
1654,266.3514845952195
1655,303.8447503233692
1656,263.9223764151211
1657,210.8142123196485
1658,195.84010809570464
1659,204.5099144207743
1660,202.29348260022016
1661,172.34066457645895
1662,142.6613129381476
1663,147.6352809294367
1664,192.28242245920046
1665,241.0625921102801
1666,257.65564514879225
1667,239.6514375334009
1668,210.51982592467903
1669,191.81066769441895
1670,187.35382093501175
1671,193.6591444688347
1672,201.81649785763148
1673,184.9657414119647
1674,112.86673620064175
1675,-9.180655939813732
1676,-114.73657239569366
1677,-134.96114976658646
1678,-75.47452385585893
1679,-10.656829661131269
1680,-7.578201364687629
1681,-51.82877232393366
1682,-89.24867506176633
1683,-82.29804125696319
1684,-58.98700173456746
1685,-62.8956864562042
1686,-110.26422451042163
1687,-164.9527441030059
1688,-186.5813725472417
1689,-172.29023625421178
1690,-156.45946072304469
1691,-171.07917053112578
1692,-213.65948932434367
1693,-264.1505398072659
1694,-304.9924437333284
1695,-329.26532189499267
1696,-332.659294113897
1697,-316.19447923096595
1698,-290.870995096544
1699,-268.44895856045696
1700,-252.1884854621203
1701,-237.35969062055847
1702,-219.34268782446998
1703,-196.94758982224266
1704,-170.61450831194634
1705,-141.78355393134734
1706,-115.49483624784989
1707,-97.54846374847148
1708,-92.69454382976801
1709,-104.03318278776533
1710,-133.6044858078567
1711,-168.9785569546857
1712,-186.06549916203767
1713,-166.49541422267976
1714,-130.20840277820207
1715,-111.90456430884842
1716,-133.7939971233136
1717,-183.71679834855422
1718,-243.56306391954968
1719,-292.8428885690664
1720,-307.9963658174038
1721,-268.9535879621326
1722,-196.25464606780588
1723,-135.39962995564565
1724,-120.94862819326227
1725,-137.5517280842796
1726,-156.2090156580307
1727,-160.66057565917254
1728,-159.0764915373329
1729,-161.96684543671108
1730,-171.12171818565548
1731,-180.4711892862997
1732,-184.9753369040791
1733,-188.2042378573151
1734,-197.25796760673802
1735,-211.2266002450433
1736,-207.30020848637287
1737,-159.80886365582955
1738,-75.80263567897418
1739,-2.4715930712827685
1740,15.664197072397656
1741,-16.475330911631318
1742,-66.37024124530944
1743,-106.2405966982733
1744,-127.1264585772442
1745,-124.65788671543123
1746,-107.76493946191476
1747,-106.24767367102322
1748,-147.79614469167427
1749,-207.27040635673075
1750,-222.34051097234988
1751,-150.92650930726813
1752,-51.03845058215484
1753,-9.926382458874286
1754,-61.29035102979287
1755,-136.14040080704763
1756,-157.75657471181148
1757,-115.72891406354938
1758,-54.89745856924128
1759,-16.912246312645948
1760,-15.553313743484978
1761,-54.8906956666724
1762,-124.86442523152073
1763,-184.77453392088682
1764,-191.91105154040088
1765,-146.7740062076009
1766,-89.77342434109414
1767,-57.4493306497061
1768,-52.641748121624914
1769,-65.33069801351121
1770,-85.55619983962788
1771,-103.57827136093874
1772,-109.77692857421425
1773,-96.4421857011148
1774,-57.714055177269984
1775,7.647452358651208
1776,72.03232807587483
1777,96.5705649624797
1778,65.97215783633874
1779,20.197103356098523
1780,5.315400032146499
1781,28.09704823759421
1782,58.16205021925816
1783,68.33041010868146
1784,59.90213393310478
1785,44.8572296265138
1786,32.325707040645284
1787,25.037577956007226
1788,24.982856092934526
1789,35.78155712262014
1790,62.413698678174114
1791,106.13930036566671
1792,147.78838377520697
1793,161.40097249201062
1794,137.44709210748442
1795,98.09677023029144
1796,68.10003649746432
1797,56.106922585486245
1798,58.57746222140486
1799,69.5916911939421
1800,73.87964736459071
