800,37.69407953702921
801,54.21783986386163
802,82.71870540065265
803,114.42788408231172
804,135.91758330601715
805,133.70400992817758
806,100.68137026145087
807,51.77487007178024
808,6.660714575471502
809,-15.375891563699952
810,-8.68574423735663
811,15.296360104665837
812,44.06762445150616
813,66.26125122852864
814,79.37344229457267
815,85.06539893927311
816,85.02432188037164
817,81.29641126109254
818,76.83686664753077
819,74.74288702607464
820,77.94267080086502
821,86.08841579128148
822,95.80531922946193
823,103.6155777578424
824,106.4703874267534
825,103.59494369200547
826,94.95244141254625
827,80.53207484812629
828,62.07303765699726
829,44.33252289363827
830,32.367723006518645
831,30.815829835893055
832,39.77303461160227
833,56.519527950939846
834,78.2994998565182
835,102.12513971417957
836,124.28263629092635
837,140.90917773288766
838,148.26895156331375
839,145.8731446805914
840,136.7859433563017
841,124.24653323329039
842,110.9650993237783
843,96.45782600749408
844,79.04889702983382
845,57.09249550005825
846,32.62480388949916
847,14.51600402981876
848,12.37827711126829
849,34.48280368099677
850,73.76876364137388
851,113.40233624834673
852,136.3967001098199
853,132.0760331840629
854,109.65451277814282
855,82.26731554639173
856,62.66461748888469
857,54.57559394996133
858,52.49941961676723
859,50.52226851780961
860,44.092314021557286
861,35.88772883506135
862,30.973685002588354
863,34.35535390429959
864,47.505906254937145
865,66.30451210255069
866,86.13534082724254
867,102.76456113992299
868,115.26934108113164
869,124.43584801983252
870,131.06924865227484
871,135.6897090008506
872,138.14639441299732
873,138.1864695601107
874,135.65909843649115
875,131.87644435830407
876,129.27266996257822
877,130.3079372062075
878,136.1244073650032
879,143.1192410327467
880,146.62459812027737
881,142.10963785459626
882,128.65851877801015
883,109.24039874727441
884,87.01743493276899
885,65.85478381771645
886,53.303601197382704
887,58.11204217834529
888,88.823261177743
889,143.18141192258463
890,203.08864744904804
891,249.1821201018265
892,264.8839815334786
893,254.21138270381743
894,230.40447387930453
895,206.71040463247573
896,191.31632384139266
897,182.56537968909743
898,177.66771966311262
899,174.1104905549464
900,172.23783845961952
901,174.06490877522356
902,181.62484620249415
903,195.27679474439628
904,211.17189770574714
905,224.80629769284587
906,231.9821366131373
907,232.75355567487622
908,230.30169538683458
909,227.8826955580089
910,227.73569529736506
911,228.90483301359018
912,229.8012464148669
913,229.01207250867537
914,228.51144760160696
915,233.27550729919676
916,248.38938650577893
917,274.4572194243692
918,294.90313955654074
919,289.02427970235294
920,237.24377196027672
921,147.73374772714214
922,57.47033769810969
923,4.771671866657925
924,17.37887952458823
925,75.4250892620521
926,145.66842896759135
927,195.4860258282015
928,212.04500632940562
929,205.70149625535942
930,188.12962068895922
931,169.88450401197952
932,155.80626990522433
933,148.93304134868595
934,152.1799406217442
935,164.10608930336184
936,177.67860827230197
937,185.49661770737657
938,181.5802370876845
939,167.81358519290188
940,148.78078010355057
941,129.03793920132648
942,111.89517916939622
943,98.96661599275467
944,91.74236495856894
945,90.87654065655624
946,92.16325697936554
947,89.64662712298377
948,77.50076358715705
949,55.97577817582169
950,33.767781997558814
951,20.200885466059844
952,22.52219830060949
953,35.83182952658353
954,50.814887475965406
955,58.24447978786975
956,53.10871340909034
957,36.21269459465566
958,8.791528908410328
959,-26.476678776403787
960,-58.70082427653779
961,-74.07480409812251
962,-59.167515436026406
963,-16.00585617322031
964,32.85127511990049
965,63.41897918617997
966,57.32435608239484
967,26.256505179967462
968,-8.07547483432154
969,-24.398485957602134
970,-17.245430870160817
971,-0.7312129346873917
972,9.812263804506074
973,2.1260946222682833
974,-21.071625886585934
975,-52.53180380646154
976,-85.07734590016207
977,-113.6981596080359
978,-135.8151530471323
979,-148.97423501032426
980,-151.33231496544158
981,-143.64230305436467
982,-127.34711009212515
983,-103.99764756598415
984,-77.56382763450438
985,-54.39556312660807
986,-40.948767540614426
987,-41.922355043274365
988,-55.6822404687955
989,-79.16933931783751
990,-109.1105677565265
991,-138.55084261541833
992,-157.44808138848475
993,-155.66620223206337
994,-128.3401239638215
995,-86.20876606167167
996,-42.88204866271553
997,-11.139892562149726
998,6.964780787833661
999,16.814049279141727
1000,23.934990148919496
1001,31.304679980664332
1002,35.88419470538065
1003,33.7646096027147
1004,21.032999302134158
1005,-4.663562215905586
1006,-35.20200161877892
1007,-58.141246220493485
1008,-61.27422398048475
1009,-44.63586350239984
1010,-25.849094032876565
1011,-23.903845460304183
1012,-52.63704831357609
1013,-97.83163376084303
1014,-135.78253360823237
1015,-143.3976802985917
1016,-117.70200691019
1017,-79.34244715542172
1018,-50.33393537951815
1019,-46.44640655921921
1020,-57.05579630145712
1021,-64.56304084201656
1022,-52.1090770442097
1023,-17.897842397504974
1024,25.90972498381325
1025,66.62068636202912
1026,93.45410237736087
1027,101.67603304935346
1028,87.73253777827267
1029,49.268675346505916
1030,-0.4704960800227127
1031,-37.28591895043883
1032,-36.80153632747442
1033,9.322708113953013
1034,73.00487008819528
1035,121.11800470032722
1036,125.03316644760253
1037,94.67540922092576
1038,59.516786306334325
1039,48.89535038648137
1040,72.57715354212178
1041,109.02624725362057
1042,133.88668240245988
1043,127.64650927275943
1044,97.77777755278657
1045,61.06153633649592
1046,33.882834125070076
1047,21.156718828458907
1048,15.228237766934399
1049,7.798437672644468
1050,-5.871635308812074
1051,-17.922935616816176
1052,-17.722418274151096
1053,4.144961114586295
1054,40.20524636457958
1055,70.7374807123897
1056,75.80270681756883
1057,49.301966764260214
1058,15.439302062834031
1059,2.438753651494153
1060,33.695361897930525
1061,96.21316660093544
1062,160.44120699206815
1063,197.1895217372903
1064,196.79514893862324
1065,175.86812613582424
1066,152.87349030803125
1067,142.20427787545214
1068,141.0005247010422
1069,141.85826609218202
1070,137.79053680237303
1071,128.73437103293054
1072,120.21180243468461
1073,117.90286410968747
1074,122.72558861292327
1075,124.52200795402314
1076,111.54915359899223
1077,75.00605647192879
1078,28.559746956760137
1079,-3.768745101022432
1080,1.5456096073803565
1081,46.052839855814454
1082,102.8049738849304
1083,142.92303940393595
1084,145.54506359235165
1085,120.55107310178118
1086,85.1920940576747
1087,56.02415206110436
1088,40.29127219054135
1089,38.64347900363464
1090,51.55179653900086
1091,75.06524831800743
1092,96.6908573465671
1093,102.96364611694298
1094,83.72563660953983
1095,48.07885029471527
1096,12.054308134584062
1097,-8.86496941516998
1098,-11.84396240346814
1099,-6.514651382030934
1100,-3.037017403548816
1101,-8.141042019854467
1102,-19.39370728009544
1103,-32.85299572890199
1104,-45.13789040454685
1105,-57.3993748371131
1106,-72.98243304664538
1107,-95.071049541305
1108,-120.43520931552212
1109,-137.78489784815156
1110,-135.2991011006061
1111,-106.839805515011
1112,-65.53599801233395
1113,-28.610665990532652
1114,-12.107797322681108
1115,-19.83838035511326
1116,-48.427403905538995
1117,-94.28185726118227
1118,-147.4907301769017
1119,-188.80001287331652
1120,-198.19269603492467
1121,-163.56877080822414
1122,-104.09222879982372
1123,-46.638062074563095
1124,-16.078263153625812
1125,-13.388825012640154
1126,-23.935741079802938
1127,-32.95500523397368
1128,-35.57161180278126
1129,-42.66455556073288
1130,-66.53283172731062
1131,-114.40143596507005
1132,-172.40336437774477
1133,-221.18361350833857
1134,-242.95718033721823
1135,-239.16006228021524
1136,-224.0192571867119
1137,-211.86376333773296
1138,-208.359579444038
1139,-205.49170464421422
1140,-194.0351385027534
1141,-168.56288100814982
1142,-138.76993257097547
1143,-118.12129402197752
1144,-118.74396661014907
1145,-137.89895200082265
1146,-163.59525227374343
1147,-183.7628699211591
1148,-189.3698078458965
1149,-175.76306935943558
1150,-138.62165818000358
1151,-78.99157843064313
1152,-16.470834637289045
1153,25.31556827314307
1154,25.870624974691964
1155,-6.815670255738041
1156,-49.57532353644456
1157,-79.53734137901301
1158,-88.59973068638465
1159,-86.36549875094079
1160,-83.48465325256984
1161,-86.026202256754
1162,-87.46115421263767
1163,-79.11151795110618
1164,-54.59030268286642
1165,-23.04851799651442
1166,-0.09917385662447487
1167,-0.6842806018121337
1168,-25.64584894282325
1169,-62.805889960602144
1170,-99.51641510438276
1171,-126.9634361897497
1172,-144.04896539673246
1173,-150.5950152678788
1174,-146.90559870633024
1175,-135.5097289739124
1176,-119.59341968920853
1177,-102.62068482564428
1178,-91.3565387095723
1179,-94.71799601835028
1180,-121.36307177843355
1181,-166.89678136345174
1182,-209.02314049230426
1183,-224.14316522723493
1184,-198.77287197193255
1185,-149.3982774696151
1186,-98.0463988011179
1187,-64.55225338298624
1188,-53.73285896557354
1189,-64.14923363112393
1190,-93.83039579188062
1191,-131.64336418817038
1192,-158.4811578865083
1193,-155.15379627769835
1194,-119.1702990749236
1195,-77.48568631186026
1196,-60.08097834077762
1197,-86.32519583064004
1198,-135.64135976521356
1199,-178.05849144117656
1200,-186.73561246623012
1201,-161.49974475721046
1202,-115.56991053819638
1203,-62.13813233863311
1204,-11.425432991441085
1205,29.31316436886027
1206,52.970636308034045
1207,55.34195909399841
1208,37.9211086987134
1209,2.858060800038402
1210,-45.62620921638245
1211,-94.9527262552574
1212,-130.4195155097841
1213,-139.0256024597711
1214,-122.7820128697922
1215,-91.45177278730989
1216,-54.919908540829965
1217,-24.131446738037994
1218,-11.077414263946594
1219,-27.676838279043295
1220,-72.69874621744839
1221,-120.32816578505845
1222,-142.0361249577063
1223,-118.70465197932572
1224,-66.0007753600994
1225,-7.617523874633662
1226,35.10007343988036
1227,58.667987285499294
1228,67.75018810534857
1229,66.87964608546099
1230,57.45833115658843
1231,38.245212996030205
1232,7.985261029443791
1233,-30.095555567331758
1234,-65.87826786647292
1235,-88.66290718635355
1236,-90.40350508974916
1237,-70.67109338201954
1238,-30.38970410932143
1239,28.299630443196293
1240,96.52587775318261
1241,163.1070050628805
1242,217.08297938091164
1243,250.1667674840637
1244,255.72633591907197
1245,227.73165100439473
1246,175.8336788319948
1247,126.90238526910616
1248,108.56673596001201
1249,131.21069632779654
1250,172.14023157612246
1251,204.8983066909832
1252,211.06288644245615
1253,200.03293538646085
1254,187.23641786650478
1255,185.89629801543288
1256,195.14053975716706
1257,208.53310680844243
1258,220.0819626805487
1259,229.4500706810568
1260,240.1633939155481
1261,255.58089528934943
1262,271.88253750923104
1263,277.08928308514714
1264,258.8580943319421
1265,214.96093337105413
1266,162.3847621322284
1267,120.28254235522036
1268,102.97123559148986
1269,109.02280320590398
1270,133.80520637841983
1271,171.99940610577596
1272,214.3623632031813
1273,250.26403830598701
1274,270.0953918713667
1275,274.8343841799897
1276,271.6899753376856
1277,267.56712527711716
1278,261.2827937594284
1279,244.01294037590833
1280,206.83352454964825
1281,151.84350553718014
1282,97.63884243013035
1283,64.15549415685018
1284,63.400419484065424
1285,88.33357701849945
1286,129.11892520849779
1287,175.41742234566573
1288,214.9580265664781
1289,234.9786958538998
1290,226.51738803899298
1291,205.3550608025298
1292,197.1786716765955
1293,224.94417804618297
1294,280.53453715079286
1295,336.38470608601983
1296,365.5976418051423
1297,362.06730112070727
1298,339.4626407061014
1299,312.15061709713063
1300,290.1271866935822
1301,277.1353057608012
1302,276.4169304312427
1303,287.907016706029
1304,304.3935204565023
1305,317.72839742577526
1306,322.3696032302714
1307,321.3860933612632
1308,319.63482318640854
1309,319.8977479512787
1310,314.3188227808869
1311,291.64300268120587
1312,244.0692425406878
1313,191.4704971317742
1314,166.99872111240256
1315,200.31186902751597
1316,274.32089531055044
1317,339.32375428494106
1318,346.87340016560665
1319,293.35578706042816
1320,219.77186897174306
1321,168.57959979781026
1322,158.6109333342847
1323,175.46382327568608
1324,202.24322321686213
1325,224.33008665443867
1326,231.63136698828475
1327,214.59301752294687
1328,170.94699146910807
1329,119.10424194501502
1330,81.13472197791998
1331,73.47938450550919
1332,89.59118237732218
1333,117.06406835618691
1334,144.14399511961892
1335,162.97191526124698
1336,167.0847812922084
1337,151.35654564255856
1338,121.87716066266876
1339,90.37557862461745
1340,68.13875172357257
1341,60.29563207918727
1342,67.79117173696432
1343,91.13132266964658
1344,123.90303677856718
1345,153.4252658950345
1346,167.08196178167782
1347,162.14707613380688
1348,147.67256058076327
1349,133.35736668726804
1350,125.20944595475976
1351,123.47174982273373
1352,127.88322967006843
1353,137.5008368163617
1354,150.0015225232446
1355,162.8872379957038
1356,173.61793438339737
1357,179.54756278195418
1358,178.0080742342825
1359,167.45841973187544
1360,150.31855021608862
1361,129.87741657944844
1362,109.51696966692725
1363,93.01416027721825
1364,84.26593916402362
1365,86.30725703731696
1366,97.03506456460946
1367,112.44431237221306
1368,128.254951046496
1369,138.1289311351402
1370,134.7672031483753
1371,112.34871756023767
1372,80.22042480979599
1373,56.559275302388414
1374,58.07121941085552
1375,80.19120747675242
1376,103.16618981158445
1377,107.97311669800729
1378,94.77993839104238
1379,80.35360511928229
1380,81.37406708609524
1381,98.7062744708137
1382,116.80717742992783
1383,119.78872609827613
1384,106.6228705902231
1385,94.63056100084032
1386,101.95174740707444
1387,129.4833798689233
1388,152.9794084305904
1389,146.43078312165198
1390,103.91045395820402
1391,53.91337094402206
1392,28.226484071696177
1393,42.68474332377991
1394,81.18809867392156
1395,123.834500087999
1396,155.44989752524634
1397,171.87524093937736
1398,170.51948027969956
1399,151.0835654922348
1400,119.43544652082346
1401,82.47707330823232
1402,48.97839579725496
1403,33.43736393180552
1404,51.46492765800758
1405,107.04903692529751
1406,163.31964168748073
1407,174.40869190383364
1408,113.325137540166
1409,28.09092856988991
1410,-14.606985024902315
1411,32.07034674760507
1412,126.53987389001668
1413,202.6265464167809
1414,209.20831435523542
1415,169.6841277466483
1416,130.42693664726085
1417,128.76069112931873
1418,152.70734128211552
1419,173.62183721299425
1420,168.60212904840046
1421,148.8991669348752
1422,138.29090104008628
1423,156.62628155383118
1424,198.37625868903706
1425,248.00878268277575
1426,291.9658037972513
1427,330.4712723208004
1428,369.514138568873
1429,413.7683528850266
1430,458.13986564190327
1431,493.2076272422055
1432,511.17058811967854
1433,516.7746987400642
1434,520.5639096020814
1435,531.9871712383801
1436,551.4154342164993
1437,574.8906491398238
1438,598.683766648529
1439,621.1577374205299
1440,641.7025121724246
1441,659.4600416604335
1442,671.437276681324
1443,673.5771680733524
1444,662.6256667171883
1445,642.294723536832
1446,619.7912895005429
1447,601.914315621746
1448,591.756752959951
1449,590.5445526216608
1450,598.3016657612661
1451,605.058043581962
1452,595.8696373366347
1453,559.1453983287593
1454,511.0692779132896
1455,481.41622749754606
1456,494.7481985421
1457,533.4011425616518
1458,559.5990111259043
1459,541.4347558604495
1460,492.75232844762104
1461,448.42668062737266
1462,437.3707641981382
1463,444.4095310176872
1464,434.9909330039927
1465,381.2679221360704
1466,301.87345045483926
1467,234.81747006396654
1468,210.84793313070713
1469,213.9807918867491
1470,209.93099862905365
1471,171.01650572067956
1472,108.76826559162419
1473,49.0022307396448
1474,13.820353731097384
1475,5.116587201738184
1476,18.00388385756196
1477,45.051196475608776
1478,66.42047790478227
1479,58.45968106665532
1480,6.855758956286081
1481,-61.387335356982476
1482,-107.82864872872415
1483,-104.78822793861582
1484,-67.14211968965083
1485,-20.281370607344797
1486,16.950972761061166
1487,48.678863947383434
1488,84.04325656329365
1489,123.25410430109332
1490,139.05036093449326
1491,98.92598031940543
1492,-5.895083605290893
1493,-120.52187681697615
1494,-179.56644520850386
1495,-150.71983458744944
1496,-78.76109067533162
1497,-19.289259106849386
1498,-3.839385429117101
1499,-15.557515100910678
1500,-31.934693491899452
1501,-42.43296588189969
1502,-57.191377460108015
1503,-88.10297332436312
1504,-131.16079848038316
1505,-158.93289784102308
1506,-142.9693162255253
1507,-86.57309835878277
1508,-32.77428887058613
1509,-25.346932294884937
1510,-62.09107306905844
1511,-92.2557555331623
1512,-65.60402392920605
1513,14.648077599590579
1514,98.01650500952019
1515,135.43221435712712
1516,120.79216179993455
1517,79.51430359716778
1518,36.573596110486505
1519,4.29499580470565
1520,-12.61154075147897
1521,-10.622056884766607
1522,4.889404183461011
1523,24.20979933787021
1524,38.20308556988584
1525,41.599219978411384
1526,30.632159770545513
1527,3.244862262294191
1528,-34.27971512071235
1529,-73.09561484250662
1530,-104.99987925607638
1531,-124.20955060264623
1532,-125.51867101097378
1533,-109.32428249664463
1534,-92.26242696134705
1535,-93.86714619218037
1536,-121.67348186094387
1537,-156.44347552342788
1538,-175.41616861870898
1539,-165.08960246844617
1540,-127.88681827617347
1541,-68.13885712659885
1542,-3.679759984901466
1543,29.805432303979615
1544,-2.613320983965423
1545,-88.16006045109862
1546,-165.65582657744562
1547,-175.83665971998562
1548,-121.92960011194646
1549,-55.455687862116065
1550,-24.793962954125163
1551,-33.2974652457533
1552,-58.15123446822781
1553,-78.00631022551715
1554,-84.26673199363267
1555,-73.79853911992177
1556,-47.490770822373634
1557,-26.069466188905608
1558,-36.421664176668855
1559,-92.0034036113384
1560,-159.20972318641452
1561,-194.16066146251615
1562,-171.431256866671
1563,-111.28754769161515
1564,-40.89057209509065
1565,19.301631900870234
1566,60.67302641064907
1567,75.9685736857482
1568,64.30623611550254
1569,32.84997622778701
1570,-10.326243310267273
1571,-49.7554596915661
1572,-63.27370996833724
1573,-32.076031051416976
1574,20.838540290474157
1575,45.6249674314322
1576,1.5562138891027644
1577,-81.6507566746086
1578,-142.86998045281143
1579,-135.4904934929109
1580,-83.62833169588066
1581,-32.64353081554418
1582,-15.233126457831531
1583,-23.90515408007741
1584,-43.246648990264475
1585,-62.180646346308095
1586,-78.7771811553157
1587,-92.26028827285245
1588,-102.03800240220335
1589,-107.77835809363296
1590,-109.08438974364435
1591,-103.64613159423516
1592,-87.32361773215052
1593,-56.91788208813523
1594,-21.12595843618783
1595,3.6411196072058374
1596,3.8053185838098216
1597,-13.544394805589036
1598,-32.546053700429184
1599,-42.42769107960521
1600,-54.407339760708055
1601,-85.58703239925217
1602,-139.6558014879056
1603,-184.41967935572302
1604,-182.04169816735248
1605,-120.16188992227035
1606,-29.691286453995417
1607,54.72008057070707
1608,112.38017965259769
1609,137.89097946077072
1610,127.85944883343927
1611,95.00255677874247
1612,63.40827247553989
1613,54.48856527422413
1614,68.1984046975258
1615,95.0097604413304
1616,124.83860237548652
1617,145.46690054464034
1618,144.10962516904783
1619,114.52074664540487
1620,66.96623554768485
1621,14.349062627966305
1622,-27.983801182718707
1623,-40.92238477354476
1624,-6.3487168530491545
1625,65.74417405173062
1626,138.603259596106
1627,177.37451161859826
1628,177.77790214180914
1629,153.3324033732897
1630,117.79798770641082
1631,84.96062772124515
1632,68.62329618545664
1633,77.93196605517824
1634,107.50961047591863
1635,149.13120278344832
1636,191.52171650470973
1637,217.96212535872837
1638,212.13940325752174
1639,183.46952430702095
1640,168.76246280799387
1641,201.65719325697773
1642,264.8346903472102
1643,308.8939289695718
1644,296.08188421353316
1645,259.0495313681031
1646,255.6728459227943
1647,319.0078035685774
1648,404.67638019885544
1649,453.64455191043544
1650,441.3092950045111
1651,402.63958598765475
1652,377.3024015728024
1653,376.39471868025976
1654,382.7335144387007
1655,379.9717661861887
1656,371.79745147118865
1657,373.16154805359656
1658,393.7540339057605
1659,417.0198872135361
1660,418.43508637731975
1661,387.26061001310245
1662,347.7624369535297
1663,329.23054624896486
1664,339.081917168568
1665,354.50652920136963
1666,351.6463620573604
1667,324.3553956685837
1668,280.0456101902382
1669,228.3669860017908
1670,191.6175037080875
1671,197.30714414047816
1672,255.665888357953
1673,319.14971764827624
1674,328.596613529141
1675,263.7385577493151
1676,171.2875322898126
1677,102.9235193650602
1678,75.96750142408109
1679,76.02046115167468
1680,89.0123814696226
1681,113.38224553788768
1682,153.67003675582419
1683,207.75873876340665
1684,247.68133544244847
1685,239.41481091785772
1686,175.21914955886496
1687,97.561335980291
1688,52.92135504381804
1689,49.24919185924591
1690,56.335831785789196
1691,45.43726043336392
1692,14.897463663898634
1693,-23.14857240737092
1694,-58.12586141056272
1695,-86.0734167198334
1696,-104.66025145203184
1697,-112.70337846534858
1698,-111.19181035795555
1699,-101.24955946664522
1700,-81.94263786544161
1701,-50.38105736421858
1702,-5.639829507292234
1703,37.18803442797707
1704,55.431523432614085
1705,35.51662676745582
1706,-4.1746660354110645
1707,-38.44036517119184
1708,-54.914480560928496
1709,-62.30202185002781
1710,-70.68199840677244
1711,-80.43241932082947
1712,-84.0832934017435
1713,-76.28162917742793
1714,-66.33243489262713
1715,-69.19071850738328
1716,-91.6394876954837
1717,-118.01974984290246
1718,-129.14351204622562
1719,-117.4837811110674
1720,-90.44756355047048
1721,-56.66086558330244
1722,-27.13369313263229
1723,-14.356051824101087
1724,-26.716946984274728
1725,-54.39638363898939
1726,-82.58336651168611
1727,-99.67690002172276
1728,-100.28198828268796
1729,-80.3486351006868
1730,-48.156843972636125
1731,-23.04561808451308
1732,-20.95196030963416
1733,-32.335873206880024
1734,-37.243359018934825
1735,-22.59741967049922
1736,5.587943233503211
1737,38.022728409736374
1738,65.01093489827326
1739,76.37156206443706
1740,63.44960960064509
1741,32.720077528276306
1742,-0.9150338004546938
1743,-24.669723700604663
1744,-34.10399115259406
1745,-26.86383480029417
1746,-9.620252949085625
1747,-3.2702435639193936
1748,-27.681804267351254
1749,-72.22393233756156
1750,-104.79262470636968
1751,-99.82587795722702
1752,-65.13068832320005
1753,-18.42705168492739
1754,20.802036431425222
1755,29.7415808562273
1756,-12.271413221534203
1757,-82.47494025215383
1758,-121.96599432310813
1759,-85.75756915691818
1760,-13.710658109019278
1761,24.835745834408044
1762,-3.7203499413999452
1763,-54.78293767759442
1764,-75.78600923951308
1765,-62.9845561144557
1766,-57.72356940945065
1767,-93.77603984900361
1768,-147.1459577728201
1769,-171.7693131335318
1770,-144.3480954943816
1771,-94.93029402691536
1772,-60.00989750863755
1773,-50.00289432066438
1774,-50.183272445354305
1775,-46.886019463918274
1776,-39.852122554014386
1777,-34.069568487337165
1778,-33.46134362716748
1779,-39.40743392591958
1780,-52.45182492267668
1781,-63.290501740681975
1782,-53.30144908485545
1783,-10.580651239236431
1784,33.666907935532436
1785,32.15724500478609
1786,-30.67362303758364
1787,-100.7136787665404
1788,-117.72190432327261
1789,-80.3932814125601
1790,-38.8427913001251
1791,-34.426414809950984
1792,-51.48713232159753
1793,-55.380923767479544
1794,-33.19776863014795
1795,-14.004645939528018
1796,-28.70753427015734
1797,-64.2804117384012
1798,-74.39725599963094
1799,-30.572044245413053
1800,11.908246799354856
