" File: Users\Wavelength\Desktop\test aimt.SSM
"  SCOPE->  Wave:448.60nm  Pix:451  Val:  3.400  Time: 70ms  Avg:5  Sm:0  Sg:0  Tc:off  Z  SNAP  Xt:1  Ch:1  Xtrig  
 400.00  -1.3671E+001
 400.50  -2.0701E+001
 401.00  -1.8373E+001
 401.50  -1.4861E+001
 402.00  -9.0362E+000
 402.50  -1.3663E+001
 403.00  -5.4348E+000
 403.50  -1.0653E+001
 404.00  -2.5479E+001
 404.50  -2.5366E+001
 405.00  -1.7665E+001
 405.50  -8.5191E+000
 406.00  -1.4336E+001
 406.50  -1.8246E+001
 407.00  -2.2514E+001
 407.50  -2.2480E+001
 408.00  -1.2679E+001
 408.50  -8.9595E+000
 409.00  -1.6090E+001
 409.50  -2.6809E+001
 410.00  -2.2260E+001
 410.50  -1.9991E+001
 411.00  -2.3744E+001
 411.50  -1.3827E+001
 412.00  -1.8471E+000
 412.50  -7.2546E+000
 413.00  -1.6092E+001
 413.50  -2.1611E+001
 414.00  -1.6956E+001
 414.50  -1.9730E+001
 415.00  -1.7851E+001
 415.50  -9.5399E+000
 416.00  5.0359E+000
 416.50  1.0654E+001
 417.00  2.0574E+000
 417.50  -1.1414E+001
 418.00  -1.1977E+001
 418.50  -1.1306E+001
 419.00  -1.5877E+001
 419.50  -1.0775E+001
 420.00  -5.8035E+000
 420.50  -2.1512E+001
 421.00  -2.0444E+001
 421.50  -7.7500E+000
 422.00  6.0242E-002
 422.50  6.2947E+000
 423.00  -6.3036E+000
 423.50  6.5282E+000
 424.00  1.4944E+001
 424.50  1.6081E+001
 425.00  1.6432E+001
 425.50  3.5639E+000
 426.00  -1.4200E+000
 426.50  4.3137E+000
 427.00  -1.1595E+001
 427.50  -2.9049E+001
 428.00  -2.7472E+001
 428.50  -1.5200E+001
 429.00  -9.9641E+000
 429.50  9.1760E-001
 430.00  4.2543E+000
 430.50  1.2055E+000
 431.00  -8.7110E+000
 431.50  -1.7931E+001
 432.00  -1.2588E+001
 432.50  -2.0467E+001
 433.00  -2.3023E+001
 433.50  -1.3126E+001
 434.00  -2.0260E+001
 434.50  -1.6442E+001
 435.00  -1.8326E+001
 435.50  -1.4730E+001
 436.00  1.1392E+000
 436.50  -2.0809E+000
 437.00  -4.6618E+000
 437.50  -2.4270E+000
 438.00  3.4940E-001
 438.50  1.6741E+000
 439.00  3.6357E+000
 439.50  1.5380E+000
 440.00  -8.7862E+000
 440.50  -7.1640E+000
 441.00  -5.9771E+000
 441.50  5.0588E+000
 442.00  1.4275E+001
 442.50  1.1899E+000
 443.00  3.1110E+000
 443.50  2.0733E+000
 444.00  1.6176E+000
 444.50  -1.6441E+000
 445.00  -1.5753E+000
 445.50  -2.8647E+000
 446.00  -4.9527E+000
 446.50  -1.3760E+001
 447.00  -6.6477E+000
 447.50  -1.2774E+001
 448.00  -4.6625E+000
 448.50  2.3787E+000
 449.00  -1.8882E+000
 449.50  -3.3631E+000
 450.00  5.0652E+000
 450.50  3.7594E+000
 451.00  -2.4724E+000
 451.50  -7.0732E+000
 452.00  -1.2405E+001
 452.50  -1.8976E+001
 453.00  -1.2967E+001
 453.50  -1.6899E+001
 454.00  3.0121E+000
 454.50  -2.0051E+001
 455.00  -3.3032E+001
 455.50  -2.0532E+001
 456.00  -4.4033E-001
 456.50  -2.1005E+001
 457.00  -6.4952E+000
 457.50  -1.7161E+001
 458.00  -1.3455E+000
 458.50  -1.0181E+000
 459.00  -2.7745E+000
 459.50  -1.8697E+000
 460.00  2.5655E-002
 460.50  -8.6519E+000
 461.00  6.9723E+000
 461.50  1.1114E+001
 462.00  8.8415E+000
 462.50  -9.4554E+000
 463.00  -5.6132E+000
 463.50  -5.3266E+000
 464.00  -1.7554E+001
 464.50  -2.2974E+001
 465.00  -1.0185E+001
 465.50  -1.4371E+001
 466.00  -2.1686E+001
 466.50  -1.1758E+001
 467.00  4.0829E+000
 467.50  -1.5066E+001
 468.00  -2.3277E+001
 468.50  -2.2781E+001
 469.00  -2.4922E+001
 469.50  -2.6057E+001
 470.00  -2.2741E+001
 470.50  -1.0772E+001
 471.00  -7.0729E+000
 471.50  -9.2420E+000
 472.00  -2.2295E+001
 472.50  -3.0632E+001
 473.00  -1.7587E+001
 473.50  -3.1337E+001
 474.00  -3.3174E+001
 474.50  -3.3616E+001
 475.00  -1.8832E+001
 475.50  -5.4905E+000
 476.00  -1.4599E+001
 476.50  -4.1529E+000
 477.00  3.7591E-001
 477.50  -1.0009E+001
 478.00  -3.2626E+000
 478.50  -2.2640E+001
 479.00  -3.5554E+000
 479.50  -6.8733E+000
 480.00  -7.2340E+000
 480.50  -3.3618E+000
 481.00  -1.3780E+001
 481.50  -2.5445E+001
 482.00  -1.5185E+001
 482.50  -8.4028E+000
 483.00  -2.7059E+000
 483.50  -2.0389E+001
 484.00  -1.9290E+001
 484.50  -1.7972E+001
 485.00  -2.4736E+001
 485.50  -2.0314E+001
 486.00  -2.1811E+001
 486.50  -5.9122E+000
 487.00  7.4034E+000
 487.50  7.1838E+000
 488.00  -2.8039E+000
 488.50  2.0541E+000
 489.00  1.0449E+001
 489.50  1.4558E+001
 490.00  1.5154E+001
 490.50  4.4786E+000
 491.00  1.0040E+001
 491.50  2.8416E+000
 492.00  1.1775E+001
 492.50  1.4738E+000
 493.00  -1.7568E+001
 493.50  5.5391E+000
 494.00  -1.7871E+001
 494.50  -1.2524E+001
 495.00  -3.1220E+001
 495.50  7.9126E-001
 496.00  -3.2025E+000
 496.50  3.3674E+000
 497.00  -3.6550E+000
 497.50  3.4879E+000
 498.00  1.0798E+001
 498.50  1.3552E+001
 499.00  6.3094E-001
 499.50  6.5326E+000
 500.00  -1.7204E+000
 500.50  -5.1493E+000
 501.00  8.6138E-001
 501.50  1.1640E+001
 502.00  1.3860E+001
 502.50  1.3811E+001
 503.00  7.7580E+000
 503.50  5.0656E+000
 504.00  1.2866E+001
 504.50  7.9712E+000
 505.00  1.9132E+001
 505.50  8.1992E+000
 506.00  5.6897E+000
 506.50  1.3197E+001
 507.00  2.1539E+001
 507.50  5.6847E+000
 508.00  1.9840E+001
 508.50  1.3561E+001
 509.00  1.9942E+001
 509.50  3.0394E+001
 510.00  3.2470E+001
 510.50  2.0862E+001
 511.00  2.1401E+001
 511.50  3.2552E+001
 512.00  3.2387E+001
 512.50  1.6435E+001
 513.00  1.4772E+001
 513.50  1.5201E+001
 514.00  1.1094E+001
 514.50  1.2493E+001
 515.00  5.5599E+000
 515.50  1.7566E+001
 516.00  1.6582E+001
 516.50  8.6954E-001
 517.00  -1.7249E+000
 517.50  -4.7686E+000
 518.00  -4.5124E+000
 518.50  4.3735E+000
 519.00  -1.4630E+000
 519.50  4.0189E+000
 520.00  1.2199E+001
 520.50  9.6000E+000
 521.00  9.3354E+000
 521.50  5.7041E+000
 522.00  2.5549E+000
 522.50  1.2695E+001
 523.00  4.8962E+000
 523.50  4.0948E+000
 524.00  -3.1273E-001
 524.50  2.3954E+000
 525.00  1.2379E+001
 525.50  1.7701E+001
 526.00  1.6426E+001
 526.50  1.0731E+001
 527.00  1.8155E+001
 527.50  1.9887E+001
 528.00  1.0419E+001
 528.50  2.4779E+001
 529.00  4.0827E+001
 529.50  2.3810E+001
 530.00  2.2464E+001
 530.50  2.6930E+001
 531.00  2.5139E+001
 531.50  3.8453E+001
 532.00  3.6948E+001
 532.50  2.5675E+001
 533.00  2.0892E+001
 533.50  2.5826E+001
 534.00  3.3155E+001
 534.50  2.7704E+001
 535.00  2.6367E+001
 535.50  2.3610E+001
 536.00  2.6413E+001
 536.50  3.2694E+001
 537.00  3.6222E+001
 537.50  3.7648E+001
 538.00  4.3041E+001
 538.50  3.3818E+001
 539.00  4.5529E+001
 539.50  2.7411E+001
 540.00  2.8909E+001
 540.50  1.9598E+001
 541.00  2.0627E+001
 541.50  2.7881E+001
 542.00  2.3871E+001
 542.50  3.6820E+001
 543.00  5.5481E+001
 543.50  5.3905E+001
 544.00  5.5005E+001
 544.50  4.9930E+001
 545.00  3.7864E+001
 545.50  3.8049E+001
 546.00  4.7884E+001
 546.50  3.9608E+001
 547.00  4.5143E+001
 547.50  3.8215E+001
 548.00  4.3793E+001
 548.50  5.4916E+001
 549.00  6.4553E+001
 549.50  5.4458E+001
 550.00  4.3150E+001
 550.50  4.0308E+001
 551.00  5.1905E+001
 551.50  4.8339E+001
 552.00  2.8299E+001
 552.50  2.6486E+001
 553.00  3.4090E+001
 553.50  3.5253E+001
 554.00  3.6957E+001
 554.50  1.5855E+001
 555.00  1.7397E+001
 555.50  2.0570E+001
 556.00  2.7174E+001
 556.50  2.2540E+001
 557.00  4.3033E+001
 557.50  3.2393E+001
 558.00  2.6519E+001
 558.50  4.0442E+001
 559.00  4.2230E+001
 559.50  3.7270E+001
 560.00  3.8820E+001
 560.50  3.7608E+001
 561.00  3.5034E+001
 561.50  3.8054E+001
 562.00  3.8663E+001
 562.50  5.2058E+001
 563.00  5.2618E+001
 563.50  3.3699E+001
 564.00  4.5529E+001
 564.50  2.3612E+001
 565.00  3.5650E+001
 565.50  3.7719E+001
 566.00  3.4122E+001
 566.50  3.8998E+001
 567.00  4.1735E+001
 567.50  4.7122E+001
 568.00  4.2797E+001
 568.50  6.3074E+001
 569.00  6.7605E+001
 569.50  6.7503E+001
 570.00  6.2278E+001
 570.50  7.0461E+001
 571.00  7.1218E+001
 571.50  5.1106E+001
 572.00  4.9738E+001
 572.50  5.3969E+001
 573.00  4.8199E+001
 573.50  5.6608E+001
 574.00  4.9837E+001
 574.50  5.0214E+001
 575.00  5.7747E+001
 575.50  7.2858E+001
 576.00  5.3577E+001
 576.50  6.8206E+001
 577.00  5.9295E+001
 577.50  5.0698E+001
 578.00  4.4237E+001
 578.50  6.8521E+001
 579.00  7.3772E+001
 579.50  7.4346E+001
 580.00  7.8629E+001
 580.50  6.8408E+001
 581.00  6.6732E+001
 581.50  6.5278E+001
 582.00  6.2684E+001
 582.50  6.4954E+001
 583.00  6.5400E+001
 583.50  4.3278E+001
 584.00  5.8922E+001
 584.50  7.1318E+001
 585.00  5.4309E+001
 585.50  4.2112E+001
 586.00  6.4692E+001
 586.50  6.7247E+001
 587.00  7.2635E+001
 587.50  6.3579E+001
 588.00  6.6561E+001
 588.50  6.1587E+001
 589.00  5.8091E+001
 589.50  5.8929E+001
 590.00  7.6672E+001
 590.50  6.3523E+001
 591.00  5.3341E+001
 591.50  6.7434E+001
 592.00  7.7763E+001
 592.50  8.5618E+001
 593.00  9.0783E+001
 593.50  9.8712E+001
 594.00  1.0035E+002
 594.50  9.1338E+001
 595.00  9.4080E+001
 595.50  9.2037E+001
 596.00  1.1645E+002
 596.50  1.0361E+002
 597.00  1.0835E+002
 597.50  1.0355E+002
 598.00  9.2542E+001
 598.50  6.6020E+001
 599.00  7.3666E+001
 599.50  8.2205E+001
 600.00  9.0976E+001
 600.50  8.1469E+001
 601.00  7.3383E+001
 601.50  9.5673E+001
 602.00  8.1980E+001
 602.50  1.0815E+002
 603.00  8.3498E+001
 603.50  9.4926E+001
 604.00  9.3423E+001
 604.50  9.7507E+001
 605.00  9.8922E+001
 605.50  9.4058E+001
 606.00  9.5736E+001
 606.50  9.4864E+001
 607.00  1.0385E+002
 607.50  8.8837E+001
 608.00  1.0534E+002
 608.50  9.8479E+001
 609.00  1.0237E+002
 609.50  1.0455E+002
 610.00  1.0109E+002
 610.50  9.3858E+001
 611.00  8.1334E+001
 611.50  1.1354E+002
 612.00  1.0391E+002
 612.50  1.0502E+002
 613.00  8.9329E+001
 613.50  9.3049E+001
 614.00  9.9121E+001
 614.50  9.6047E+001
 615.00  9.9158E+001
 615.50  9.4277E+001
 616.00  8.7623E+001
 616.50  9.0423E+001
 617.00  9.7803E+001
 617.50  8.7312E+001
 618.00  1.0464E+002
 618.50  8.5631E+001
 619.00  8.7282E+001
 619.50  1.0030E+002
 620.00  1.0941E+002
 620.50  1.2020E+002
 621.00  1.0994E+002
 621.50  1.0419E+002
 622.00  1.0227E+002
 622.50  1.1426E+002
 623.00  1.2353E+002
 623.50  1.1806E+002
 624.00  1.1371E+002
 624.50  1.1537E+002
 625.00  1.0863E+002
 625.50  1.0113E+002
 626.00  1.0190E+002
 626.50  9.7697E+001
 627.00  1.0272E+002
 627.50  9.6033E+001
 628.00  9.0227E+001
 628.50  1.1638E+002
 629.00  1.0097E+002
 629.50  1.0519E+002
 630.00  1.1396E+002
 630.50  1.1161E+002
 631.00  1.1307E+002
 631.50  1.2552E+002
 632.00  1.2694E+002
 632.50  1.2361E+002
 633.00  1.2575E+002
 633.50  1.2408E+002
 634.00  1.1725E+002
 634.50  1.1041E+002
 635.00  1.0805E+002
 635.50  1.0487E+002
 636.00  1.1930E+002
 636.50  1.1486E+002
 637.00  1.1829E+002
 637.50  1.2538E+002
 638.00  1.1687E+002
 638.50  1.0938E+002
 639.00  1.1402E+002
 639.50  1.2002E+002
 640.00  1.2202E+002
 640.50  1.2148E+002
 641.00  1.1859E+002
 641.50  1.1629E+002
 642.00  1.2775E+002
 642.50  1.3039E+002
 643.00  1.1824E+002
 643.50  1.2838E+002
 644.00  1.2635E+002
 644.50  1.2107E+002
 645.00  1.2394E+002
 645.50  1.1333E+002
 646.00  1.0229E+002
 646.50  1.0002E+002
 647.00  1.2519E+002
 647.50  1.2421E+002
 648.00  1.2839E+002
 648.50  1.3322E+002
 649.00  1.3531E+002
 649.50  1.3360E+002
 650.00  1.2385E+002
 650.50  1.3480E+002
 651.00  1.2954E+002
 651.50  1.2319E+002
 652.00  1.1872E+002
 652.50  1.2615E+002
 653.00  1.3177E+002
 653.50  1.2546E+002
 654.00  1.1780E+002
 654.50  1.2361E+002
 655.00  1.1802E+002
 655.50  1.1517E+002
 656.00  1.2076E+002
 656.50  1.2299E+002
 657.00  1.2174E+002
 657.50  1.1596E+002
 658.00  1.2826E+002
 658.50  1.3424E+002
 659.00  1.2832E+002
 659.50  1.3697E+002
 660.00  1.3447E+002
 660.50  1.3263E+002
 661.00  1.4428E+002
 661.50  1.4480E+002
 662.00  1.4022E+002
 662.50  1.3392E+002
 663.00  1.3835E+002
 663.50  1.4336E+002
 664.00  1.5218E+002
 664.50  1.4529E+002
 665.00  1.4767E+002
 665.50  1.3708E+002
 666.00  1.2491E+002
 666.50  1.3022E+002
 667.00  1.1395E+002
 667.50  1.3632E+002
 668.00  1.2420E+002
 668.50  1.2687E+002
 669.00  1.1841E+002
 669.50  1.2525E+002
 670.00  1.2764E+002
 670.50  1.2700E+002
 671.00  1.1989E+002
 671.50  1.2853E+002
 672.00  1.3589E+002
 672.50  1.3563E+002
 673.00  1.4962E+002
 673.50  1.3628E+002
 674.00  1.1448E+002
 674.50  1.2227E+002
 675.00  1.1627E+002
 675.50  1.0906E+002
 676.00  1.2193E+002
 676.50  1.3334E+002
 677.00  1.3661E+002
 677.50  1.3413E+002
 678.00  1.2566E+002
 678.50  1.3149E+002
 679.00  1.3585E+002
 679.50  1.3727E+002
 680.00  1.3676E+002
 680.50  1.3607E+002
 681.00  1.2769E+002
 681.50  1.2260E+002
 682.00  1.2767E+002
 682.50  1.2932E+002
 683.00  1.0321E+002
 683.50  1.3487E+002
 684.00  1.4013E+002
 684.50  1.2534E+002
 685.00  1.4084E+002
 685.50  1.4363E+002
 686.00  1.3447E+002
 686.50  1.3241E+002
 687.00  1.4917E+002
 687.50  1.4228E+002
 688.00  1.3967E+002
 688.50  1.4746E+002
 689.00  1.5591E+002
 689.50  1.6490E+002
 690.00  1.5474E+002
 690.50  1.3888E+002
 691.00  1.3195E+002
 691.50  1.3909E+002
 692.00  1.4250E+002
 692.50  1.4879E+002
 693.00  1.4880E+002
 693.50  1.3392E+002
 694.00  1.4270E+002
 694.50  1.4555E+002
 695.00  1.4126E+002
 695.50  1.2701E+002
 696.00  1.4932E+002
 696.50  1.5073E+002
 697.00  1.5338E+002
 697.50  1.5186E+002
 698.00  1.4270E+002
 698.50  1.5747E+002
 699.00  1.4600E+002
 699.50  1.4403E+002
 700.00  1.4447E+002
 700.50  1.3252E+002
 701.00  1.2155E+002
 701.50  1.5038E+002
 702.00  1.4905E+002
 702.50  1.4636E+002
 703.00  1.4397E+002
 703.50  1.3894E+002
 704.00  1.3754E+002
 704.50  1.4072E+002
 705.00  1.3896E+002
 705.50  1.2511E+002
 706.00  1.2572E+002
 706.50  1.3684E+002
 707.00  1.4624E+002
 707.50  1.3965E+002
 708.00  1.4138E+002
 708.50  1.3783E+002
 709.00  1.4161E+002
 709.50  1.5169E+002
 710.00  1.4562E+002
 710.50  1.5602E+002
 711.00  1.3649E+002
 711.50  1.3811E+002
 712.00  1.3728E+002
 712.50  1.5039E+002
 713.00  1.4855E+002
 713.50  1.4146E+002
 714.00  1.4355E+002
 714.50  1.4070E+002
 715.00  1.3535E+002
 715.50  1.2415E+002
 716.00  1.2565E+002
 716.50  1.3106E+002
 717.00  1.3779E+002
 717.50  1.3785E+002
 718.00  1.4148E+002
 718.50  1.2669E+002
 719.00  1.4559E+002
 719.50  1.3731E+002
 720.00  1.3405E+002
 720.50  1.4589E+002
 721.00  1.4226E+002
 721.50  1.4163E+002
 722.00  1.3132E+002
 722.50  1.2046E+002
 723.00  1.3632E+002
 723.50  1.4758E+002
 724.00  1.3069E+002
 724.50  1.4960E+002
 725.00  1.3976E+002
 725.50  1.4327E+002
 726.00  1.5446E+002
 726.50  1.5035E+002
 727.00  1.6014E+002
 727.50  1.5098E+002
 728.00  1.3252E+002
 728.50  1.2276E+002
 729.00  1.2857E+002
 729.50  1.4191E+002
 730.00  1.4573E+002
 730.50  1.3764E+002
 731.00  1.3562E+002
 731.50  1.3729E+002
 732.00  1.3386E+002
 732.50  1.5496E+002
 733.00  1.6155E+002
 733.50  1.3398E+002
 734.00  1.4921E+002
 734.50  1.4650E+002
 735.00  1.2514E+002
 735.50  1.2760E+002
 736.00  1.5213E+002
 736.50  1.5981E+002
 737.00  1.5124E+002
 737.50  1.5408E+002
 738.00  1.4928E+002
 738.50  1.4617E+002
 739.00  1.5287E+002
 739.50  1.5020E+002
 740.00  1.3673E+002
 740.50  1.4111E+002
 741.00  1.4340E+002
 741.50  1.3510E+002
 742.00  1.1411E+002
 742.50  1.2094E+002
 743.00  1.2176E+002
 743.50  1.3068E+002
 744.00  1.5646E+002
 744.50  1.4057E+002
 745.00  1.4416E+002
 745.50  1.4427E+002
 746.00  1.5280E+002
 746.50  1.4411E+002
 747.00  1.3953E+002
 747.50  1.3068E+002
 748.00  1.3117E+002
 748.50  1.5559E+002
 749.00  1.5501E+002
 749.50  1.4153E+002
 750.00  1.3122E+002
 750.50  1.4912E+002
 751.00  1.3875E+002
 751.50  1.3293E+002
 752.00  1.3976E+002
 752.50  1.4942E+002
 753.00  1.3736E+002
 753.50  1.4411E+002
 754.00  1.3958E+002
 754.50  1.3902E+002
 755.00  1.4175E+002
 755.50  1.6011E+002
 756.00  1.7797E+002
 756.50  1.7537E+002
 757.00  1.6765E+002
 757.50  1.5723E+002
 758.00  1.6212E+002
 758.50  1.5272E+002
 759.00  1.5559E+002
 759.50  1.3576E+002
 760.00  1.3577E+002
 760.50  1.5118E+002
 761.00  1.6033E+002
 761.50  1.6282E+002
 762.00  1.5797E+002
 762.50  1.5680E+002
 763.00  1.5044E+002
 763.50  1.5179E+002
 764.00  1.4374E+002
 764.50  1.5080E+002
 765.00  1.4530E+002
 765.50  1.4000E+002
 766.00  1.5616E+002
 766.50  1.3777E+002
 767.00  1.4733E+002
 767.50  1.5060E+002
 768.00  1.5498E+002
 768.50  1.5925E+002
 769.00  1.3998E+002
 769.50  1.6383E+002
 770.00  1.5382E+002
 770.50  1.5618E+002
 771.00  1.5451E+002
 771.50  1.4460E+002
 772.00  1.4377E+002
 772.50  1.4400E+002
 773.00  1.4570E+002
 773.50  1.5722E+002
 774.00  1.5730E+002
 774.50  1.4640E+002
 775.00  1.3743E+002
 775.50  1.4786E+002
 776.00  1.5824E+002
 776.50  1.3880E+002
 777.00  1.3576E+002
 777.50  1.3538E+002
 778.00  1.2152E+002
 778.50  1.2057E+002
 779.00  1.3765E+002
 779.50  1.4274E+002
 780.00  1.2878E+002
 780.50  1.2339E+002
 781.00  1.5022E+002
 781.50  1.4603E+002
 782.00  1.3544E+002
 782.50  1.4172E+002
 783.00  1.3630E+002
 783.50  1.4774E+002
 784.00  1.5078E+002
 784.50  1.7519E+002
 785.00  1.4348E+002
 785.50  1.5119E+002
 786.00  1.4917E+002
 786.50  1.2523E+002
 787.00  1.2924E+002
 787.50  1.4914E+002
 788.00  1.3842E+002
 788.50  1.3833E+002
 789.00  1.4116E+002
 789.50  1.4932E+002
 790.00  1.3690E+002
 790.50  1.4150E+002
 791.00  1.3284E+002
 791.50  1.3368E+002
 792.00  1.2778E+002
 792.50  1.1496E+002
 793.00  1.1944E+002
 793.50  1.1460E+002
 794.00  1.2779E+002
 794.50  9.1804E+001
 795.00  1.2176E+002
 795.50  1.3610E+002
 796.00  1.2446E+002
 796.50  1.2431E+002
 797.00  1.1443E+002
 797.50  1.3171E+002
 798.00  1.3698E+002
 798.50  1.2799E+002
 799.00  1.4441E+002
 799.50  1.3385E+002
 800.00  1.4022E+002
 800.50  1.3077E+002
 801.00  1.3220E+002
 801.50  1.4633E+002
 802.00  1.2882E+002
 802.50  1.2323E+002
 803.00  1.3300E+002
 803.50  1.6567E+002
 804.00  1.6523E+002
 804.50  1.5116E+002
 805.00  1.5228E+002
 805.50  1.3341E+002
 806.00  1.4250E+002
 806.50  1.2780E+002
 807.00  1.0925E+002
 807.50  1.1263E+002
 808.00  1.2433E+002
 808.50  1.2387E+002
 809.00  1.2614E+002
 809.50  1.3034E+002
 810.00  1.3399E+002
 810.50  1.4858E+002
 811.00  1.5126E+002
 811.50  1.3567E+002
 812.00  1.4546E+002
 812.50  1.3576E+002
 813.00  1.3351E+002
 813.50  1.2886E+002
 814.00  1.2675E+002
 814.50  1.1692E+002
 815.00  1.4408E+002
 815.50  1.2664E+002
 816.00  1.2512E+002
 816.50  1.1344E+002
 817.00  9.6694E+001
 817.50  1.1865E+002
 818.00  1.2608E+002
 818.50  1.2428E+002
 819.00  1.2150E+002
 819.50  1.3803E+002
 820.00  1.2974E+002
 820.50  1.3136E+002
 821.00  1.2735E+002
 821.50  1.4071E+002
 822.00  1.3826E+002
 822.50  1.3699E+002
 823.00  1.3823E+002
 823.50  1.4574E+002
 824.00  1.4184E+002
 824.50  1.2847E+002
 825.00  1.3186E+002
 825.50  1.4131E+002
 826.00  1.3746E+002
 826.50  1.4259E+002
 827.00  1.4014E+002
 827.50  1.3028E+002
 828.00  1.4861E+002
 828.50  1.5015E+002
 829.00  1.2685E+002
 829.50  1.2385E+002
 830.00  1.1993E+002
 830.50  1.3141E+002
 831.00  1.3130E+002
 831.50  1.3911E+002
 832.00  1.2623E+002
 832.50  1.4488E+002
 833.00  1.4318E+002
 833.50  1.4642E+002
 834.00  1.3712E+002
 834.50  1.2052E+002
 835.00  1.3386E+002
 835.50  1.2985E+002
 836.00  1.1962E+002
 836.50  1.1699E+002
 837.00  1.0709E+002
 837.50  1.0579E+002
 838.00  1.1531E+002
 838.50  1.2485E+002
 839.00  1.1961E+002
 839.50  1.0998E+002
 840.00  1.1293E+002
 840.50  1.3258E+002
 841.00  1.2177E+002
 841.50  1.2394E+002
 842.00  1.2991E+002
 842.50  1.3489E+002
 843.00  1.3731E+002
 843.50  1.4253E+002
 844.00  1.3188E+002
 844.50  1.2031E+002
 845.00  1.0603E+002
 845.50  1.0512E+002
 846.00  1.1289E+002
 846.50  1.1285E+002
 847.00  1.2479E+002
 847.50  1.3675E+002
 848.00  1.2342E+002
 848.50  1.2389E+002
 849.00  1.3993E+002
 849.50  1.3593E+002
 850.00  1.3218E+002
 850.50  1.4133E+002
 851.00  1.4576E+002
 851.50  1.3901E+002
 852.00  1.2744E+002
 852.50  1.1499E+002
 853.00  1.1026E+002
 853.50  1.1633E+002
 854.00  1.1098E+002
 854.50  1.0391E+002
 855.00  1.2432E+002
 855.50  1.3178E+002
 856.00  1.2558E+002
 856.50  1.2752E+002
 857.00  1.0533E+002
 857.50  1.0738E+002
 858.00  1.3226E+002
 858.50  1.1133E+002
 859.00  1.1660E+002
 859.50  1.0921E+002
 860.00  1.1682E+002
 860.50  1.0204E+002
 861.00  1.0306E+002
 861.50  1.1447E+002
 862.00  1.1568E+002
 862.50  1.2525E+002
 863.00  1.1855E+002
 863.50  1.1213E+002
 864.00  1.2274E+002
 864.50  9.9690E+001
 865.00  9.4498E+001
 865.50  1.0318E+002
 866.00  1.0292E+002
 866.50  9.8154E+001
 867.00  9.9687E+001
 867.50  1.0552E+002
 868.00  9.8029E+001
 868.50  1.1907E+002
 869.00  1.2262E+002
 869.50  1.0403E+002
 870.00  1.2495E+002
 870.50  1.2359E+002
 871.00  1.2907E+002
 871.50  1.3583E+002
 872.00  1.1414E+002
 872.50  1.1704E+002
 873.00  1.0120E+002
 873.50  8.1011E+001
 874.00  9.7878E+001
 874.50  9.3981E+001
 875.00  8.8636E+001
 875.50  9.9057E+001
 876.00  1.0189E+002
 876.50  1.0330E+002
 877.00  1.1369E+002
 877.50  9.0059E+001
 878.00  1.0789E+002
 878.50  1.0316E+002
 879.00  1.1965E+002
 879.50  1.1002E+002
 880.00  1.0578E+002
 880.50  1.2131E+002
 881.00  1.0587E+002
 881.50  1.1795E+002
 882.00  1.1995E+002
 882.50  1.2643E+002
 883.00  1.1875E+002
 883.50  1.0496E+002
 884.00  9.3562E+001
 884.50  8.6627E+001
 885.00  9.4525E+001
 885.50  8.6102E+001
 886.00  8.0294E+001
 886.50  1.0253E+002
 887.00  1.1257E+002
 887.50  1.0504E+002
 888.00  1.0833E+002
 888.50  1.1010E+002
 889.00  1.0095E+002
 889.50  1.1164E+002
 890.00  1.0083E+002
 890.50  9.7298E+001
 891.00  1.0626E+002
 891.50  1.0389E+002
 892.00  1.0730E+002
 892.50  1.0303E+002
 893.00  8.8157E+001
 893.50  9.8198E+001
 894.00  9.7643E+001
 894.50  1.1540E+002
 895.00  1.2111E+002
 895.50  1.2039E+002
 896.00  1.1218E+002
 896.50  1.1394E+002
 897.00  9.4885E+001
 897.50  9.8430E+001
 898.00  9.7068E+001
 898.50  1.0879E+002
 899.00  1.0161E+002
 899.50  9.7247E+001
