" File: Users\Wavelength\Desktop\test ssu table.
"  SCOPE->  Wave:448.60nm  Pix:451  Val: -3.600  Time: 70ms  Avg:5  Sm:0  Sg:0  Tc:off  Z  SNAP  Xt:1  Ch:1  Xtrig  
 400.00  1.9073E+000
 400.50  -7.6273E+000
 401.00  -8.1134E+000
 401.50  -4.0782E+000
 402.00  -2.1668E+000
 402.50  -2.9757E+000
 403.00  -5.3420E+000
 403.50  -1.8174E+001
 404.00  -2.8779E+001
 404.50  -2.1425E+001
 405.00  -1.1976E+001
 405.50  3.2518E-001
 406.00  -1.8438E+000
 406.50  2.9375E+000
 407.00  -7.2277E+000
 407.50  -1.3457E+001
 408.00  -1.5058E+001
 408.50  -2.1189E+001
 409.00  -1.9178E+001
 409.50  -3.0772E+001
 410.00  -2.6716E+001
 410.50  -1.7644E+001
 411.00  -2.8684E+001
 411.50  -2.0352E+001
 412.00  -2.0851E+001
 412.50  -2.7111E+001
 413.00  -3.9090E+001
 413.50  -3.2626E+001
 414.00  -2.7053E+001
 414.50  -2.0743E+001
 415.00  -1.0584E+001
 415.50  -7.3283E+000
 416.00  -5.2547E+000
 416.50  -3.4044E+000
 417.00  -9.2606E+000
 417.50  -2.2714E+001
 418.00  -3.0345E+001
 418.50  -2.4463E+001
 419.00  -1.3405E+001
 419.50  -1.7546E+001
 420.00  -1.8828E+001
 420.50  -2.1401E+001
 421.00  -7.6086E+000
 421.50  -7.5099E+000
 422.00  -1.6649E+000
 422.50  5.3401E+000
 423.00  2.4593E+000
 423.50  3.3499E+000
 424.00  -1.2986E+000
 424.50  -4.0993E-002
 425.00  1.0593E+001
 425.50  4.3454E+000
 426.00  3.3216E+000
 426.50  5.2515E+000
 427.00  -5.6754E+000
 427.50  -1.6256E+001
 428.00  -1.2319E+001
 428.50  1.7120E+000
 429.00  -3.0361E+000
 429.50  1.6211E+000
 430.00  1.3770E+001
 430.50  1.0094E+001
 431.00  -5.9650E+000
 431.50  -2.1452E+001
 432.00  -1.7219E+001
 432.50  -1.8989E+001
 433.00  -2.0392E+001
 433.50  -2.2193E+001
 434.00  -1.6846E+001
 434.50  -9.6477E+000
 435.00  -1.5378E+001
 435.50  -8.2195E+000
 436.00  -8.9307E+000
 436.50  -1.4602E+001
 437.00  -3.5198E+000
 437.50  7.7498E+000
 438.00  6.9646E+000
 438.50  1.9570E-001
 439.00  3.5589E+000
 439.50  6.9415E+000
 440.00  2.9461E-001
 440.50  9.4000E-001
 441.00  6.0092E+000
 441.50  9.7781E+000
 442.00  -5.9647E-001
 442.50  3.4063E-001
 443.00  9.1434E+000
 443.50  7.9731E+000
 444.00  3.1140E+000
 444.50  -5.9124E+000
 445.00  -1.3355E+000
 445.50  2.1844E-001
 446.00  -6.2194E+000
 446.50  -1.7347E+001
 447.00  -1.2837E+001
 447.50  -1.6887E+001
 448.00  -8.7906E+000
 448.50  -4.0681E+000
 449.00  -9.6894E+000
 449.50  -9.7321E+000
 450.00  -5.0844E+000
 450.50  -8.0852E+000
 451.00  -1.0863E+001
 451.50  -1.0850E+001
 452.00  -2.1657E+001
 452.50  -2.4630E+001
 453.00  -1.1166E+001
 453.50  -1.5061E+001
 454.00  9.9846E-001
 454.50  -1.7402E+001
 455.00  -2.6484E+001
 455.50  -1.8030E+001
 456.00  -2.7216E+001
 456.50  -3.6915E+001
 457.00  -2.0393E+001
 457.50  -3.5709E+001
 458.00  -1.4400E+001
 458.50  -1.6291E+001
 459.00  -1.7668E+001
 459.50  -3.2587E+001
 460.00  -3.0088E+001
 460.50  -2.9824E+001
 461.00  -2.0049E+000
 461.50  4.6844E+000
 462.00  -7.9161E+000
 462.50  -2.8394E+001
 463.00  -2.8010E+001
 463.50  -1.4194E+001
 464.00  -1.9212E+001
 464.50  -2.2173E+001
 465.00  -1.2560E+001
 465.50  -3.5500E+000
 466.00  -1.6217E+001
 466.50  -1.6751E+001
 467.00  -1.0459E+001
 467.50  -2.5052E+001
 468.00  -2.7378E+001
 468.50  -2.9168E+001
 469.00  -3.7315E+001
 469.50  -3.7251E+001
 470.00  -3.4306E+001
 470.50  -2.4850E+001
 471.00  -2.0310E+001
 471.50  -1.8349E+001
 472.00  -2.3889E+001
 472.50  -2.0570E+001
 473.00  -1.7853E+001
 473.50  -2.6890E+001
 474.00  -3.7782E+001
 474.50  -2.2550E+001
 475.00  -5.2322E+000
 475.50  -2.5109E+001
 476.00  -1.6054E+001
 476.50  -1.5311E+001
 477.00  -1.2774E+001
 477.50  -1.5493E+001
 478.00  -3.1096E+000
 478.50  -1.3670E+001
 479.00  -1.6797E+001
 479.50  -4.4199E+000
 480.00  -8.0894E+000
 480.50  -1.3676E+001
 481.00  -1.3043E+000
 481.50  -1.4169E+001
 482.00  6.7426E+000
 482.50  3.3173E+000
 483.00  -8.8704E+000
 483.50  -1.7418E+001
 484.00  -1.2716E+001
 484.50  -2.3987E+001
 485.00  -2.3796E+001
 485.50  -6.5103E+000
 486.00  -1.9095E+000
 486.50  3.7066E+000
 487.00  1.4792E+000
 487.50  3.3949E+000
 488.00  7.8251E+000
 488.50  1.1039E+001
 489.00  1.6208E+001
 489.50  1.2025E+001
 490.00  -4.9158E+000
 490.50  -9.2306E+000
 491.00  8.6484E+000
 491.50  2.0747E+000
 492.00  1.4422E+001
 492.50  -6.9564E+000
 493.00  -1.8190E+001
 493.50  1.1565E+001
 494.00  -1.2054E+001
 494.50  -2.1249E+001
 495.00  -2.8906E+001
 495.50  -2.2469E+001
 496.00  -2.8023E+001
 496.50  -2.6951E+001
 497.00  -2.6310E+001
 497.50  -1.2329E+001
 498.00  -6.8173E+000
 498.50  -1.4575E+001
 499.00  -2.1732E+001
 499.50  -1.5981E+001
 500.00  -1.5720E+001
 500.50  -1.0739E+001
 501.00  -5.6605E+000
 501.50  -2.6577E+000
 502.00  2.1920E+000
 502.50  5.3885E+000
 503.00  -6.4871E+000
 503.50  1.6403E+000
 504.00  9.2591E+000
 504.50  6.5237E+000
 505.00  9.6702E+000
 505.50  9.4844E+000
 506.00  1.7993E+001
 506.50  1.2544E+001
 507.00  1.4250E+001
 507.50  -3.2913E+000
 508.00  1.5992E+001
 508.50  -9.3161E+000
 509.00  -8.3572E+000
 509.50  1.0529E+001
 510.00  -8.3541E+000
 510.50  -8.7744E-001
 511.00  5.7089E+000
 511.50  2.1307E+000
 512.00  -9.1686E+000
 512.50  -2.0921E+001
 513.00  -7.9995E+000
 513.50  2.2734E+000
 514.00  -5.0245E+000
 514.50  -1.5624E+001
 515.00  -2.1468E+001
 515.50  -2.2123E+001
 516.00  -2.5546E+001
 516.50  -3.1713E+001
 517.00  -3.0372E+001
 517.50  -2.9095E+001
 518.00  -2.4917E+001
 518.50  -1.1706E+001
 519.00  -1.5109E+001
 519.50  -1.8227E+001
 520.00  -1.1169E+001
 520.50  -5.2681E+000
 521.00  7.8058E-002
 521.50  1.1326E+001
 522.00  1.9035E+000
 522.50  7.8162E+000
 523.00  6.7854E+000
 523.50  5.6633E+000
 524.00  -1.0178E+000
 524.50  2.0996E+000
 525.00  -1.6955E+000
 525.50  -7.0324E+000
 526.00  -6.5982E+000
 526.50  -1.6136E+001
 527.00  -1.3779E+001
 527.50  1.2508E+001
 528.00  1.3686E+001
 528.50  1.9443E+001
 529.00  2.0010E+001
 529.50  1.5402E+001
 530.00  3.2942E+000
 530.50  8.9226E+000
 531.00  9.2922E+000
 531.50  6.9235E+000
 532.00  1.2800E+001
 532.50  4.3548E+000
 533.00  -9.7508E+000
 533.50  7.6382E+000
 534.00  1.3842E+001
 534.50  2.8543E+000
 535.00  -1.8140E+000
 535.50  -1.8654E+000
 536.00  -7.9082E+000
 536.50  -3.7589E+000
 537.00  9.7506E+000
 537.50  1.3279E+001
 538.00  1.5930E+001
 538.50  3.5414E+000
 539.00  -8.4607E-002
 539.50  -6.6029E+000
 540.00  -1.7099E+001
 540.50  -1.6583E+001
 541.00  -1.4190E+001
 541.50  -7.0824E+000
 542.00  -1.1784E+001
 542.50  -4.3703E+000
 543.00  7.7383E+000
 543.50  1.1411E+001
 544.00  9.5896E+000
 544.50  9.0433E+000
 545.00  3.6127E+000
 545.50  -1.0315E+001
 546.00  -3.5494E+000
 546.50  3.1930E+000
 547.00  6.2393E+000
 547.50  8.5955E+000
 548.00  5.8073E+000
 548.50  -1.1476E+000
 549.00  1.6631E+001
 549.50  6.5928E+000
 550.00  2.3769E+000
 550.50  5.0706E-001
 551.00  7.5870E+000
 551.50  1.0270E+001
 552.00  -7.4106E+000
 552.50  -2.1880E+001
 553.00  -1.4508E+001
 553.50  -5.8700E+000
 554.00  1.9080E-001
 554.50  -1.3578E+000
 555.00  -7.1671E+000
 555.50  -5.8194E+000
 556.00  -2.9519E-001
 556.50  -1.3095E+001
 557.00  1.2095E+001
 557.50  1.3929E+001
 558.00  -9.1468E+000
 558.50  -4.6316E+000
 559.00  1.2357E+001
 559.50  -1.0246E+000
 560.00  -2.0148E+000
 560.50  -1.4245E+000
 561.00  -3.9593E+000
 561.50  8.5776E+000
 562.00  9.3058E+000
 562.50  1.8893E+000
 563.00  8.8200E+000
 563.50  -4.1427E+000
 564.00  1.3703E+001
 564.50  -1.7145E+001
 565.00  7.9506E+000
 565.50  -7.7685E-001
 566.00  -2.4392E+000
 566.50  -4.1632E+000
 567.00  -6.4674E+000
 567.50  -1.0866E+000
 568.00  -1.1408E+001
 568.50  9.9621E-001
 569.00  2.7123E+000
 569.50  -8.7739E+000
 570.00  1.2045E+000
 570.50  9.8160E+000
 571.00  -1.6138E+001
 571.50  -1.3170E+001
 572.00  -8.6227E+000
 572.50  -3.7296E+000
 573.00  -1.0030E+001
 573.50  -9.5793E+000
 574.00  -5.0016E+000
 574.50  -1.3613E+001
 575.00  -6.3827E+000
 575.50  1.0556E+001
 576.00  6.0370E-001
 576.50  4.9949E+000
 577.00  6.3844E+000
 577.50  -6.2165E+000
 578.00  -8.4327E+000
 578.50  8.2419E+000
 579.00  1.5461E+001
 579.50  1.0374E+001
 580.00  1.4488E+001
 580.50  3.3757E+000
 581.00  1.0660E+001
 581.50  9.0323E+000
 582.00  5.7784E+000
 582.50  9.9451E+000
 583.00  1.2584E+001
 583.50  -7.3817E+000
 584.00  2.2633E+000
 584.50  7.1961E+000
 585.00  2.7450E+000
 585.50  -7.3433E+000
 586.00  -7.0709E+000
 586.50  -6.5029E+000
 587.00  9.9495E+000
 587.50  7.8839E+000
 588.00  9.8808E+000
 588.50  8.4934E+000
 589.00  -8.9371E+000
 589.50  -5.4823E+000
 590.00  -4.4598E+000
 590.50  -9.6669E+000
 591.00  -5.7362E+000
 591.50  -8.0594E-002
 592.00  1.1519E+000
 592.50  -1.2206E+001
 593.00  -1.9543E+000
 593.50  1.2793E+001
 594.00  1.1100E+001
 594.50  3.0405E+000
 595.00  -1.8015E+001
 595.50  -1.3267E+001
 596.00  1.7756E+001
 596.50  -4.8192E+000
 597.00  -5.7968E+000
 597.50  -8.3867E+000
 598.00  -8.3498E+000
 598.50  -2.0243E+001
 599.00  -2.2805E+001
 599.50  -2.5519E+001
 600.00  -2.3394E+001
 600.50  -2.9158E+001
 601.00  -2.8456E+001
 601.50  -7.8177E+000
 602.00  -2.5303E+001
 602.50  -1.4849E+001
 603.00  -3.1109E+001
 603.50  -2.3655E+001
 604.00  -2.5527E+001
 604.50  -8.7613E+000
 605.00  1.1020E+000
 605.50  1.3053E+001
 606.00  7.8526E+000
 606.50  1.3586E+001
 607.00  1.1802E+001
 607.50  2.8042E+000
 608.00  -3.2563E+000
 608.50  -8.7144E+000
 609.00  -1.0143E+001
 609.50  -1.8232E+000
 610.00  -7.0584E+000
 610.50  -1.4108E+001
 611.00  -1.5420E+001
 611.50  -1.6364E+001
 612.00  -1.3229E+001
 612.50  -1.2800E+001
 613.00  -1.5442E+001
 613.50  -5.1859E+000
 614.00  -2.4121E+000
 614.50  -2.4814E+000
 615.00  -1.1957E+000
 615.50  6.7548E+000
 616.00  -3.8125E+000
 616.50  -6.1909E+000
 617.00  7.5774E+000
 617.50  -1.4703E+000
 618.00  -1.6012E+001
 618.50  -1.7273E+001
 619.00  -1.3442E+001
 619.50  -1.9393E+000
 620.00  8.6760E+000
 620.50  1.3170E+001
 621.00  9.3887E+000
 621.50  -5.2608E-001
 622.00  -1.0085E+001
 622.50  1.3958E+001
 623.00  3.5245E+000
 623.50  9.6600E-001
 624.00  -6.1625E+000
 624.50  -7.2470E+000
 625.00  -4.0360E+000
 625.50  -4.3439E+000
 626.00  2.5175E+000
 626.50  -3.0011E+000
 627.00  -6.9187E+000
 627.50  -1.0595E+001
 628.00  -1.3785E+001
 628.50  -6.2929E-001
 629.00  -2.0471E+001
 629.50  -8.3335E+000
 630.00  -4.2215E-002
 630.50  3.8352E+000
 631.00  -5.8393E+000
 631.50  4.0939E-002
 632.00  2.7366E+000
 632.50  -1.1223E+001
 633.00  -8.4750E+000
 633.50  -4.5047E+000
 634.00  4.4990E-001
 634.50  -4.3020E+000
 635.00  -1.8487E+001
 635.50  -1.4576E+001
 636.00  -1.8103E+001
 636.50  -2.7530E+001
 637.00  -2.7688E+001
 637.50  -2.3012E+001
 638.00  -1.7672E+001
 638.50  -9.5038E-001
 639.00  3.4448E+000
 639.50  2.8301E+000
 640.00  9.0727E+000
 640.50  6.0422E+000
 641.00  -5.7257E+000
 641.50  -1.9623E+001
 642.00  -1.1608E+001
 642.50  -3.8283E+000
 643.00  -4.2797E+000
 643.50  3.0643E+000
 644.00  -1.6752E+001
 644.50  -1.2085E+001
 645.00  -5.6249E+000
 645.50  -1.6874E+001
 646.00  -2.2341E+001
 646.50  -2.1223E+001
 647.00  -1.5615E+001
 647.50  2.8742E+000
 648.00  -1.8640E-001
 648.50  3.9322E+000
 649.00  9.1414E+000
 649.50  9.5268E+000
 650.00  -8.7912E+000
 650.50  2.3996E+000
 651.00  9.7878E+000
 651.50  -1.1232E+001
 652.00  -2.4367E+001
 652.50  -1.2590E+001
 653.00  -7.1385E+000
 653.50  -1.3798E+001
 654.00  -2.1108E+001
 654.50  -2.2043E+001
 655.00  -2.1800E+001
 655.50  -3.3612E+001
 656.00  -3.4017E+001
 656.50  -2.3196E+001
 657.00  -2.4724E+001
 657.50  -1.6917E+001
 658.00  -2.4171E+001
 658.50  -1.3338E+001
 659.00  -7.3449E+000
 659.50  7.2949E-001
 660.00  -6.2577E+000
 660.50  -1.9241E+001
 661.00  -6.4422E+000
 661.50  -7.1967E+000
 662.00  -8.5895E+000
 662.50  -4.2921E+000
 663.00  -1.3328E+000
 663.50  -3.7738E+000
 664.00  1.7503E+001
 664.50  1.3742E+001
 665.00  1.0531E+001
 665.50  -8.2830E+000
 666.00  -3.0517E+001
 666.50  -2.4977E+001
 667.00  -1.7544E+001
 667.50  -2.3285E+001
 668.00  -3.6680E+001
 668.50  -1.4171E+001
 669.00  -2.0861E+001
 669.50  -2.2691E+001
 670.00  -1.4926E+001
 670.50  -1.1277E+001
 671.00  -2.5304E+001
 671.50  -3.0181E+001
 672.00  -2.7563E+001
 672.50  -2.9653E+001
 673.00  -1.8268E+001
 673.50  -4.6278E+000
 674.00  -4.3340E+000
 674.50  -3.5640E+000
 675.00  -1.8811E+001
 675.50  -1.0148E+001
 676.00  1.0140E+000
 676.50  5.6493E+000
 677.00  8.8000E+000
 677.50  1.3602E+001
 678.00  4.7358E+000
 678.50  -6.8989E+000
 679.00  4.9686E+000
 679.50  -4.3044E+000
 680.00  2.4520E+000
 680.50  4.5383E+000
 681.00  -6.1144E+000
 681.50  1.4043E+000
 682.00  5.8832E+000
 682.50  -6.2765E+000
 683.00  -2.9009E+001
 683.50  -5.8435E-001
 684.00  8.5731E+000
 684.50  5.2836E+000
 685.00  6.4142E+000
 685.50  8.4711E+000
 686.00  5.0450E+000
 686.50  -8.4327E+000
 687.00  7.9853E+000
 687.50  7.5645E-001
 688.00  -2.2968E+000
 688.50  6.1099E-001
 689.00  4.4172E-001
 689.50  5.5858E+000
 690.00  3.7020E+000
 690.50  -1.1015E+001
 691.00  8.0365E-001
 691.50  1.5990E-001
 692.00  2.6433E+000
 692.50  5.9297E+000
 693.00  1.5128E+001
 693.50  5.5013E+000
 694.00  2.2984E+000
 694.50  2.7750E+000
 695.00  -4.8164E+000
 695.50  -6.7709E+000
 696.00  4.0871E+000
 696.50  1.2273E+000
 697.00  5.6075E+000
 697.50  7.7324E+000
 698.00  -1.2876E+001
 698.50  -5.6747E+000
 699.00  -1.5519E+001
 699.50  -2.7277E+001
 700.00  -2.2494E+001
 700.50  -2.8234E+001
 701.00  -2.5745E+001
 701.50  -6.1476E+000
 702.00  -2.6588E+000
 702.50  1.9563E+000
 703.00  6.7560E+000
 703.50  9.8026E+000
 704.00  5.8258E+000
 704.50  7.8594E+000
 705.00  -2.8913E+000
 705.50  -1.1566E+001
 706.00  -1.3425E+001
 706.50  -1.0189E+001
 707.00  1.0619E+001
 707.50  4.3290E+000
 708.00  -3.8405E-001
 708.50  2.6053E+000
 709.00  8.0834E+000
 709.50  1.1086E+001
 710.00  -1.5568E+000
 710.50  1.4212E+001
 711.00  -4.4845E+000
 711.50  -2.2338E+000
 712.00  -9.1511E+000
 712.50  -8.3598E+000
 713.00  -1.5220E+001
 713.50  -1.2649E+001
 714.00  -2.0474E+001
 714.50  -1.5941E+001
 715.00  -1.9390E+001
 715.50  -2.6232E+001
 716.00  -2.4060E+001
 716.50  -1.8096E+001
 717.00  -7.3883E+000
 717.50  -1.4035E+001
 718.00  -1.5051E+001
 718.50  -1.8234E+001
 719.00  -1.5215E+001
 719.50  -1.3861E+001
 720.00  -1.6972E+001
 720.50  -2.4766E+001
 721.00  -1.9826E+001
 721.50  -1.0508E+001
 722.00  -5.3328E+000
 722.50  -1.9608E+001
 723.00  -1.2384E+001
 723.50  -4.0248E+000
 724.00  -3.3826E+000
 724.50  -7.8046E+000
 725.00  -1.3386E+001
 725.50  -1.5326E+001
 726.00  -7.7200E+000
 726.50  -1.5289E+001
 727.00  -9.1669E+000
 727.50  -7.2933E+000
 728.00  -1.1735E+001
 728.50  -1.6270E+001
 729.00  -1.3541E+001
 729.50  2.2930E+000
 730.00  -4.9316E+000
 730.50  -1.5957E+001
 731.00  -2.4237E+001
 731.50  -2.2987E+001
 732.00  -3.5521E+001
 732.50  -1.7004E+001
 733.00  -1.3100E+000
 733.50  -2.4128E+001
 734.00  -1.3721E+001
 734.50  -1.2151E+001
 735.00  -1.2797E+001
 735.50  -1.8514E+001
 736.00  -4.3132E+000
 736.50  2.1405E+001
 737.00  1.7009E+001
 737.50  1.2238E+001
 738.00  3.2241E+000
 738.50  -9.3981E+000
 739.00  -6.6613E+000
 739.50  3.8370E+000
 740.00  -9.0299E+000
 740.50  6.1065E+000
 741.00  1.4702E+000
 741.50  -9.8588E+000
 742.00  -1.5433E+001
 742.50  -1.9960E+001
 743.00  -1.9080E+001
 743.50  -1.5943E+001
 744.00  -4.8406E+000
 744.50  -6.9260E+000
 745.00  1.0727E+001
 745.50  1.5609E+001
 746.00  1.5837E+001
 746.50  2.6786E+000
 747.00  -1.7829E-001
 747.50  -5.9380E+000
 748.00  -1.2132E+001
 748.50  -2.9398E+000
 749.00  -1.0670E+001
 749.50  -8.4080E+000
 750.00  -1.9250E+001
 750.50  1.2186E+000
 751.00  -1.1881E+001
 751.50  -1.8752E+001
 752.00  -1.2857E+001
 752.50  -1.5254E+001
 753.00  -6.7459E+000
 753.50  -2.9581E+000
 754.00  4.6025E-001
 754.50  -3.8232E+000
 755.00  -2.9339E+000
 755.50  8.2309E+000
 756.00  9.2065E+000
 756.50  1.1073E+001
 757.00  1.0850E+001
 757.50  -4.4800E+000
 758.00  -9.7429E-001
 758.50  8.7791E+000
 759.00  -6.0795E+000
 759.50  -8.5778E-001
 760.00  -1.7201E+001
 760.50  -4.0942E+000
 761.00  7.5803E-001
 761.50  -1.3701E+001
 762.00  -2.0246E+001
 762.50  -1.7388E+001
 763.00  -1.2198E+000
 763.50  5.2779E+000
 764.00  -6.4320E+000
 764.50  -1.2844E+001
 765.00  -2.0007E+001
 765.50  -1.8080E+001
 766.00  -1.2446E+001
 766.50  -2.3932E+001
 767.00  -8.1516E+000
 767.50  -1.5096E+001
 768.00  -1.1584E+001
 768.50  9.6347E+000
 769.00  -3.6586E+000
 769.50  7.0713E+000
 770.00  -2.7625E+001
 770.50  -2.0533E+001
 771.00  -8.3821E+000
 771.50  -8.1022E+000
 772.00  -9.6751E+000
 772.50  -1.9894E+001
 773.00  -2.4483E+001
 773.50  -1.7395E+001
 774.00  -2.7930E+001
 774.50  -2.6602E+001
 775.00  -4.0972E+001
 775.50  -4.2427E+001
 776.00  -3.3598E+001
 776.50  -2.8168E+001
 777.00  -1.8211E+001
 777.50  -1.7228E+001
 778.00  -2.6800E+001
 778.50  -3.0558E+001
 779.00  -2.1430E+001
 779.50  -9.3029E+000
 780.00  -1.7722E+001
 780.50  -2.1255E+001
 781.00  -1.2452E+001
 781.50  -2.3935E+001
 782.00  -7.4731E+000
 782.50  3.4960E+000
 783.00  -1.6701E-001
 783.50  -1.6779E+000
 784.00  -4.0687E+000
 784.50  -6.6961E+000
 785.00  -1.6039E+001
 785.50  -2.8171E+000
 786.00  -2.0261E+000
 786.50  -1.7054E+000
 787.00  -9.0313E+000
 787.50  1.0437E+001
 788.00  -3.7904E+000
 788.50  -7.1044E-001
 789.00  3.2403E+000
 789.50  5.5598E+000
 790.00  -2.2462E+000
 790.50  -6.5696E+000
 791.00  -1.1196E+001
 791.50  -1.0008E+001
 792.00  -2.0000E+001
 792.50  -2.6898E+001
 793.00  -2.1942E+001
 793.50  -1.9846E+001
 794.00  -3.1042E+000
 794.50  -1.7223E+001
 795.00  -7.0822E-001
 795.50  -1.2008E+000
 796.00  -1.5504E+000
 796.50  -7.4198E+000
 797.00  -2.7199E+000
 797.50  7.0765E+000
 798.00  4.4327E+000
 798.50  -7.1688E+000
 799.00  -1.4089E+001
 799.50  -9.4075E+000
 800.00  -1.7989E+001
 800.50  -1.9162E+001
 801.00  -1.0702E+001
 801.50  -6.9578E+000
 802.00  -2.1466E+001
 802.50  -1.8350E+001
 803.00  -1.2490E+001
 803.50  1.2282E+000
 804.00  1.4052E+000
 804.50  -7.9246E+000
 805.00  -4.5028E+000
 805.50  -1.4710E+001
 806.00  -2.4980E+000
 806.50  9.3169E+000
 807.00  -1.4293E+001
 807.50  3.7031E+000
 808.00  1.1325E+001
 808.50  -4.5847E+000
 809.00  6.3075E+000
 809.50  4.2553E+000
 810.00  4.7946E+000
 810.50  8.9031E+000
 811.00  9.2610E+000
 811.50  9.7136E+000
 812.00  1.5858E+001
 812.50  -4.1335E+000
 813.00  2.7520E+000
 813.50  -1.6312E+001
 814.00  -1.3585E+001
 814.50  -2.9898E+001
 815.00  9.5581E+000
 815.50  -5.5867E+000
 816.00  -8.0322E+000
 816.50  -2.2848E+001
 817.00  -3.4318E+001
 817.50  -2.9824E+001
 818.00  -3.8263E+001
 818.50  -3.2133E+001
 819.00  -2.2008E+001
 819.50  -2.0706E+000
 820.00  -2.8933E+001
 820.50  -1.5114E+001
 821.00  -1.1000E+001
 821.50  -8.0199E+000
 822.00  -6.5745E+000
 822.50  -3.7244E+000
 823.00  -1.3682E+001
 823.50  -1.3781E+000
 824.00  1.4472E+000
 824.50  -1.3090E+001
 825.00  -5.0082E+000
 825.50  2.1326E+000
 826.00  1.2272E+001
 826.50  1.4614E+001
 827.00  -3.9851E+000
 827.50  -1.9783E+001
 828.00  -3.1254E+000
 828.50  4.5020E+000
 829.00  -6.7534E+000
 829.50  -9.6155E+000
 830.00  -4.0000E+000
 830.50  2.2703E+000
 831.00  8.1825E+000
 831.50  1.6194E+000
 832.00  8.0874E+000
 832.50  2.0325E+001
 833.00  8.7024E+000
 833.50  6.4606E+000
 834.00  4.9578E+000
 834.50  -8.1360E+000
 835.00  -4.5539E-001
 835.50  -7.5392E+000
 836.00  -1.9893E+001
 836.50  -1.5603E+001
 837.00  -1.7356E+001
 837.50  -1.3927E+001
 838.00  -2.1426E+000
 838.50  -7.4751E+000
 839.00  -2.0122E+001
 839.50  -1.8050E+001
 840.00  -1.5688E+001
 840.50  -1.4722E+001
 841.00  -3.5023E+000
 841.50  6.6365E+000
 842.00  1.1539E+001
 842.50  1.7731E+001
 843.00  2.5439E+000
 843.50  -1.0360E+000
 844.00  -8.3584E+000
 844.50  -9.8987E+000
 845.00  -1.6005E+001
 845.50  -1.0668E+001
 846.00  -8.3420E+000
 846.50  -7.4000E+000
 847.00  7.2548E+000
 847.50  1.3843E+001
 848.00  -4.0682E-001
 848.50  -3.4426E+000
 849.00  -4.2364E+000
 849.50  9.0064E+000
 850.00  2.0467E+000
 850.50  -1.8160E+000
 851.00  1.0600E+001
 851.50  3.8528E+000
 852.00  -5.5164E+000
 852.50  -1.3008E+001
 853.00  -6.9575E+000
 853.50  -1.5276E+001
 854.00  -1.9955E+000
 854.50  -1.3135E+001
 855.00  1.2584E+001
 855.50  1.5870E+001
 856.00  9.1489E+000
 856.50  1.5278E+001
 857.00  -7.9999E-001
 857.50  -3.9609E-001
 858.00  5.6521E+000
 858.50  -3.5861E+000
 859.00  -4.3016E+000
 859.50  -4.1242E+000
 860.00  4.7475E+000
 860.50  -8.2906E+000
 861.00  -9.0781E+000
 861.50  1.9962E+000
 862.00  -5.1137E+000
 862.50  1.7419E-001
 863.00  -9.9494E+000
 863.50  -1.3821E+001
 864.00  -1.0730E+001
 864.50  -2.8094E+000
 865.00  -1.3041E+001
 865.50  -1.6227E+001
 866.00  -1.8862E+001
 866.50  -1.0284E+001
 867.00  -1.6402E+001
 867.50  -1.6963E+001
 868.00  -2.3492E+001
 868.50  -2.4314E+000
 869.00  -1.9484E+000
 869.50  -5.5137E+000
 870.00  1.0429E+001
 870.50  9.1129E+000
 871.00  -2.1909E+000
 871.50  2.0934E+000
 872.00  -3.4463E+000
 872.50  -6.8344E+000
 873.00  -1.5109E+001
 873.50  -3.0391E+001
 874.00  -9.2544E+000
 874.50  -1.6047E+001
 875.00  -1.4073E+001
 875.50  -1.4173E+001
 876.00  -3.3642E+000
 876.50  -7.3860E+000
 877.00  -1.0185E+001
 877.50  -2.0767E+001
 878.00  -5.4655E+000
 878.50  -7.7243E+000
 879.00  -2.7387E+000
 879.50  -9.5191E+000
 880.00  6.5390E+000
 880.50  1.2797E+001
 881.00  -3.1484E+000
 881.50  4.0100E-001
 882.00  -3.3679E+000
 882.50  -5.2749E+000
 883.00  -1.8893E+001
 883.50  -2.0231E+001
 884.00  -3.0713E+001
 884.50  -1.9228E+001
 885.00  -2.0886E+000
 885.50  -1.9223E+000
 886.00  -2.4216E+001
 886.50  6.6485E+000
 887.00  6.6683E+000
 887.50  -6.1913E+000
 888.00  8.3845E+000
 888.50  6.3135E+000
 889.00  -1.1782E+001
 889.50  -1.7931E+001
 890.00  -1.6605E+001
 890.50  -1.4105E+001
 891.00  -8.0397E+000
 891.50  1.0115E+001
 892.00  1.1151E+001
 892.50  -4.2164E+000
 893.00  8.0305E+000
 893.50  -4.0257E+000
 894.00  6.0754E+000
 894.50  9.6171E+000
 895.00  6.8534E+000
 895.50  1.6030E+001
 896.00  9.2884E+000
 896.50  6.2259E+000
 897.00  -1.0095E+001
 897.50  -2.7998E+000
 898.00  -8.6019E+000
 898.50  -6.6353E+000
 899.00  2.6633E+000
 899.50  7.5024E+000
