" File: Users\Wavelength\Desktop\test finger3.SS
"  SCOPE->  Wave:448.60nm  Pix:451  Val: 15.200  Time: 70ms  Avg:5  Sm:0  Sg:0  Tc:off  Z  SNAP  Xt:1  Ch:1  Xtrig  
 400.00  -1.0038E+001
 400.50  -1.2442E+001
 401.00  -1.2459E+001
 401.50  -1.1935E+001
 402.00  -1.0536E+001
 402.50  -1.5206E+001
 403.00  -1.5125E+001
 403.50  -2.6924E+001
 404.00  -3.1442E+001
 404.50  -3.2372E+001
 405.00  -2.4780E+001
 405.50  -1.2090E+001
 406.00  -1.7159E+001
 406.50  -2.0222E+001
 407.00  -1.7386E+001
 407.50  -1.4154E+001
 408.00  -2.5425E+001
 408.50  -2.1623E+001
 409.00  -2.6402E+000
 409.50  -1.1473E+001
 410.00  -1.9390E+001
 410.50  -1.8736E+001
 411.00  -2.3594E+001
 411.50  -1.8593E+001
 412.00  -1.9118E+001
 412.50  -1.3190E+001
 413.00  -1.4238E+001
 413.50  -2.0785E+001
 414.00  -2.3014E+001
 414.50  -1.2286E+001
 415.00  -6.2812E+000
 415.50  -6.8459E+000
 416.00  -1.6526E+000
 416.50  -2.5049E+000
 417.00  -9.4000E+000
 417.50  -1.3050E+001
 418.00  -2.3181E+001
 418.50  -2.3769E+001
 419.00  -1.3123E+001
 419.50  -8.4345E+000
 420.00  -6.3590E+000
 420.50  -1.3641E+001
 421.00  -1.2626E+001
 421.50  -1.6510E+001
 422.00  -6.8749E+000
 422.50  -3.9999E-001
 423.00  -1.6889E+000
 423.50  -4.3611E+000
 424.00  -1.1779E+001
 424.50  -2.4042E+001
 425.00  -1.8333E+001
 425.50  -6.1980E+000
 426.00  -1.5417E+000
 426.50  5.2584E+000
 427.00  1.0508E-001
 427.50  -1.8371E+001
 428.00  -2.5756E+001
 428.50  -2.3244E+001
 429.00  -1.6336E+001
 429.50  -1.1317E+001
 430.00  -9.9325E+000
 430.50  -1.4117E+001
 431.00  -1.7182E+001
 431.50  -2.4509E+001
 432.00  -2.3186E+001
 432.50  -2.3273E+001
 433.00  -1.7071E+001
 433.50  -7.2738E+000
 434.00  -1.3360E+001
 434.50  -1.2173E+001
 435.00  -1.3042E+001
 435.50  -1.0114E+001
 436.00  -1.0087E+001
 436.50  -1.8579E+001
 437.00  -1.6907E+001
 437.50  -1.7043E+001
 438.00  -1.9857E+001
 438.50  -1.3212E+001
 439.00  -2.3535E+000
 439.50  -8.8231E-002
 440.00  7.6161E-001
 440.50  6.2735E+000
 441.00  1.0127E+001
 441.50  1.9225E+001
 442.00  5.0307E+000
 442.50  -4.9452E-001
 443.00  4.9422E+000
 443.50  1.7822E+000
 444.00  5.3695E+000
 444.50  1.0112E+001
 445.00  -1.7921E+000
 445.50  -9.0985E+000
 446.00  -4.4688E+000
 446.50  -1.9560E+001
 447.00  -1.3259E+001
 447.50  -1.5231E+001
 448.00  1.5172E+000
 448.50  1.3455E+001
 449.00  -2.3529E-002
 449.50  -3.6369E+000
 450.00  -1.2762E+000
 450.50  -1.5665E+001
 451.00  -4.9923E+000
 451.50  -1.4007E+000
 452.00  -2.3625E+001
 452.50  -1.9337E+001
 453.00  -3.3080E+000
 453.50  -8.3729E+000
 454.00  7.2171E+000
 454.50  2.7632E+000
 455.00  -2.1864E+001
 455.50  -1.8380E+001
 456.00  -1.2110E+001
 456.50  -7.2502E+000
 457.00  5.8399E+000
 457.50  -1.0542E+001
 458.00  -9.3456E+000
 458.50  -4.2112E+000
 459.00  -3.9401E-001
 459.50  -6.6450E+000
 460.00  -7.2913E+000
 460.50  -2.4277E+001
 461.00  -1.1997E+001
 461.50  -9.1507E+000
 462.00  -6.6068E+000
 462.50  -1.8219E+001
 463.00  -6.9528E+000
 463.50  -2.5019E+000
 464.00  -1.4471E+001
 464.50  -1.8731E+001
 465.00  -1.7504E+001
 465.50  -1.3280E+001
 466.00  -1.4091E+001
 466.50  -1.1142E+001
 467.00  -7.9086E+000
 467.50  -3.0103E+001
 468.00  -3.2172E+001
 468.50  -3.2900E+001
 469.00  -4.2892E+001
 469.50  -4.6868E+001
 470.00  -4.1765E+001
 470.50  -3.2207E+001
 471.00  -2.9037E+001
 471.50  -2.0555E+001
 472.00  -2.5834E+001
 472.50  -2.0713E+001
 473.00  -6.9827E+000
 473.50  -1.5974E+001
 474.00  -2.1878E+001
 474.50  -7.8585E+000
 475.00  9.6012E+000
 475.50  -1.2171E+001
 476.00  -1.1420E+001
 476.50  -1.1529E+001
 477.00  -6.3486E+000
 477.50  3.6442E+000
 478.00  6.1809E+000
 478.50  -2.6222E+001
 479.00  -5.8994E+000
 479.50  -2.9351E+000
 480.00  6.6456E+000
 480.50  -5.1676E+000
 481.00  -6.9672E+000
 481.50  -2.1619E+001
 482.00  -7.0574E+000
 482.50  -6.3935E+000
 483.00  -4.2349E+000
 483.50  -1.1136E+001
 484.00  -7.3455E+000
 484.50  -8.3654E+000
 485.00  -7.0037E+000
 485.50  5.0859E+000
 486.00  -5.7182E-001
 486.50  8.3557E+000
 487.00  1.3436E+001
 487.50  1.6325E+001
 488.00  1.4834E+001
 488.50  1.8143E+001
 489.00  2.1848E+001
 489.50  3.9891E+000
 490.00  -6.0911E+000
 490.50  3.0791E+000
 491.00  1.0450E+001
 491.50  9.9938E+000
 492.00  1.7127E+001
 492.50  3.2902E+000
 493.00  -2.0866E+001
 493.50  5.4894E+000
 494.00  -1.0091E+001
 494.50  -1.3655E+001
 495.00  -2.1996E+001
 495.50  -6.6799E+000
 496.00  5.7586E+000
 496.50  -5.8372E+000
 497.00  -1.2783E+001
 497.50  -6.9538E-001
 498.00  -5.6372E-001
 498.50  -4.4437E+000
 499.00  -4.2581E+000
 499.50  -2.6674E+000
 500.00  -6.9990E+000
 500.50  -6.7358E+000
 501.00  -5.7227E+000
 501.50  2.8256E-001
 502.00  8.8459E+000
 502.50  1.1927E+001
 503.00  3.9966E-001
 503.50  1.3236E+001
 504.00  2.3468E+001
 504.50  1.6269E+001
 505.00  2.6906E+001
 505.50  2.7640E+001
 506.00  1.7517E+001
 506.50  1.7624E+001
 507.00  2.0062E+001
 507.50  2.1969E+001
 508.00  1.7964E+001
 508.50  7.5935E+000
 509.00  -1.6027E-002
 509.50  1.1471E+001
 510.00  1.9132E+001
 510.50  1.8215E+001
 511.00  2.9019E+001
 511.50  3.3052E+001
 512.00  2.7804E+001
 512.50  1.5397E+001
 513.00  1.5417E+001
 513.50  2.0856E+001
 514.00  1.5914E+001
 514.50  1.0919E+001
 515.00  3.6836E+000
 515.50  8.4757E+000
 516.00  6.1864E+000
 516.50  -1.6125E+000
 517.00  -3.9969E+000
 517.50  1.5338E+001
 518.00  -3.0134E+000
 518.50  2.9735E+000
 519.00  5.7543E+000
 519.50  1.6061E+001
 520.00  1.8975E+001
 520.50  2.7040E+001
 521.00  3.1899E+001
 521.50  2.9041E+001
 522.00  2.0447E+001
 522.50  2.7894E+001
 523.00  1.8649E+001
 523.50  1.0793E+001
 524.00  4.2459E+000
 524.50  5.8999E+000
 525.00  1.2830E+001
 525.50  2.1950E+001
 526.00  3.2230E+001
 526.50  1.5128E+001
 527.00  1.2074E+001
 527.50  2.3763E+001
 528.00  2.5692E+001
 528.50  3.2602E+001
 529.00  3.1503E+001
 529.50  2.0606E+001
 530.00  2.5568E+001
 530.50  3.5015E+001
 531.00  2.7339E+001
 531.50  4.0506E+001
 532.00  3.3510E+001
 532.50  3.5456E+001
 533.00  3.8890E+001
 533.50  4.3130E+001
 534.00  3.8328E+001
 534.50  2.3659E+001
 535.00  2.8169E+001
 535.50  3.7217E+001
 536.00  4.7435E+001
 536.50  3.6527E+001
 537.00  3.5802E+001
 537.50  3.6661E+001
 538.00  3.8226E+001
 538.50  3.0345E+001
 539.00  4.3205E+001
 539.50  2.9169E+001
 540.00  1.9491E+001
 540.50  2.8400E+001
 541.00  3.2329E+001
 541.50  4.3377E+001
 542.00  3.7172E+001
 542.50  3.6191E+001
 543.00  3.9389E+001
 543.50  3.8832E+001
 544.00  4.9849E+001
 544.50  4.6744E+001
 545.00  3.9496E+001
 545.50  1.8379E+001
 546.00  3.8544E+001
 546.50  3.4560E+001
 547.00  2.8134E+001
 547.50  3.8977E+001
 548.00  1.4672E+001
 548.50  3.1145E+001
 549.00  4.6237E+001
 549.50  3.3146E+001
 550.00  2.7505E+001
 550.50  3.4260E+001
 551.00  3.9407E+001
 551.50  4.3262E+001
 552.00  3.7904E+001
 552.50  3.3182E+001
 553.00  4.0846E+001
 553.50  2.7662E+001
 554.00  2.5034E+001
 554.50  1.4596E+001
 555.00  1.8907E+001
 555.50  3.2853E+001
 556.00  2.0109E+001
 556.50  2.7764E+001
 557.00  4.6041E+001
 557.50  4.6651E+001
 558.00  2.1412E+001
 558.50  2.3804E+001
 559.00  2.9939E+001
 559.50  3.7723E+001
 560.00  5.2685E+001
 560.50  5.6643E+001
 561.00  5.6173E+001
 561.50  5.3371E+001
 562.00  5.4894E+001
 562.50  5.6855E+001
 563.00  5.8172E+001
 563.50  4.1021E+001
 564.00  5.8938E+001
 564.50  3.1754E+001
 565.00  4.3551E+001
 565.50  3.6072E+001
 566.00  3.8904E+001
 566.50  4.3068E+001
 567.00  3.8827E+001
 567.50  3.7233E+001
 568.00  4.3804E+001
 568.50  5.7516E+001
 569.00  5.3156E+001
 569.50  4.6101E+001
 570.00  4.5970E+001
 570.50  3.1013E+001
 571.00  3.1039E+001
 571.50  2.5368E+001
 572.00  2.8099E+001
 572.50  3.7622E+001
 573.00  3.6208E+001
 573.50  4.4691E+001
 574.00  4.7446E+001
 574.50  4.2567E+001
 575.00  4.2265E+001
 575.50  6.2862E+001
 576.00  5.3164E+001
 576.50  5.1599E+001
 577.00  5.1021E+001
 577.50  5.0265E+001
 578.00  4.4248E+001
 578.50  5.3684E+001
 579.00  7.6592E+001
 579.50  7.7278E+001
 580.00  8.1232E+001
 580.50  6.5751E+001
 581.00  5.7159E+001
 581.50  5.4664E+001
 582.00  3.7566E+001
 582.50  4.3775E+001
 583.00  4.8563E+001
 583.50  3.3470E+001
 584.00  5.3483E+001
 584.50  6.0682E+001
 585.00  6.9764E+001
 585.50  6.1942E+001
 586.00  6.3828E+001
 586.50  6.7964E+001
 587.00  8.4854E+001
 587.50  6.9204E+001
 588.00  5.8989E+001
 588.50  7.8327E+001
 589.00  6.7324E+001
 589.50  6.9974E+001
 590.00  6.1794E+001
 590.50  6.1126E+001
 591.00  6.0330E+001
 591.50  6.2519E+001
 592.00  7.3062E+001
 592.50  8.5064E+001
 593.00  9.5633E+001
 593.50  9.4864E+001
 594.00  9.5631E+001
 594.50  8.3270E+001
 595.00  7.4761E+001
 595.50  8.6777E+001
 596.00  1.1706E+002
 596.50  1.0332E+002
 597.00  9.5217E+001
 597.50  9.6627E+001
 598.00  9.5967E+001
 598.50  9.5846E+001
 599.00  1.0441E+002
 599.50  1.0595E+002
 600.00  1.0622E+002
 600.50  1.1502E+002
 601.00  1.1475E+002
 601.50  1.0767E+002
 602.00  9.4585E+001
 602.50  1.0826E+002
 603.00  1.0131E+002
 603.50  1.1287E+002
 604.00  1.1942E+002
 604.50  1.2259E+002
 605.00  1.2317E+002
 605.50  1.3107E+002
 606.00  1.2524E+002
 606.50  1.2988E+002
 607.00  1.4385E+002
 607.50  1.3446E+002
 608.00  1.4871E+002
 608.50  1.5328E+002
 609.00  1.3262E+002
 609.50  1.4027E+002
 610.00  1.4822E+002
 610.50  1.4328E+002
 611.00  1.3251E+002
 611.50  1.4390E+002
 612.00  1.4684E+002
 612.50  1.4219E+002
 613.00  1.2597E+002
 613.50  1.2584E+002
 614.00  1.2772E+002
 614.50  1.2803E+002
 615.00  1.3315E+002
 615.50  1.3497E+002
 616.00  1.3944E+002
 616.50  1.4241E+002
 617.00  1.4671E+002
 617.50  1.4468E+002
 618.00  1.5196E+002
 618.50  1.4608E+002
 619.00  1.4085E+002
 619.50  1.4564E+002
 620.00  1.5489E+002
 620.50  1.5884E+002
 621.00  1.5332E+002
 621.50  1.4870E+002
 622.00  1.3777E+002
 622.50  1.5412E+002
 623.00  1.7007E+002
 623.50  1.6677E+002
 624.00  1.5524E+002
 624.50  1.4011E+002
 625.00  1.3874E+002
 625.50  1.4221E+002
 626.00  1.4069E+002
 626.50  1.2811E+002
 627.00  1.2599E+002
 627.50  1.4783E+002
 628.00  1.5001E+002
 628.50  1.6027E+002
 629.00  1.4166E+002
 629.50  1.3748E+002
 630.00  1.4934E+002
 630.50  1.5539E+002
 631.00  1.6679E+002
 631.50  1.7429E+002
 632.00  1.5914E+002
 632.50  1.4255E+002
 633.00  1.4676E+002
 633.50  1.5089E+002
 634.00  1.4895E+002
 634.50  1.3565E+002
 635.00  1.2465E+002
 635.50  1.2578E+002
 636.00  1.2774E+002
 636.50  1.2290E+002
 637.00  1.2113E+002
 637.50  1.4534E+002
 638.00  1.3139E+002
 638.50  1.2301E+002
 639.00  1.2631E+002
 639.50  1.3737E+002
 640.00  1.4953E+002
 640.50  1.5184E+002
 641.00  1.5935E+002
 641.50  1.5297E+002
 642.00  1.5963E+002
 642.50  1.7622E+002
 643.00  1.5884E+002
 643.50  1.6497E+002
 644.00  1.4630E+002
 644.50  1.3735E+002
 645.00  1.4058E+002
 645.50  1.3442E+002
 646.00  1.3270E+002
 646.50  1.2690E+002
 647.00  1.3972E+002
 647.50  1.4315E+002
 648.00  1.5492E+002
 648.50  1.4942E+002
 649.00  1.5467E+002
 649.50  1.6113E+002
 650.00  1.5704E+002
 650.50  1.6004E+002
 651.00  1.6264E+002
 651.50  1.5027E+002
 652.00  1.6277E+002
 652.50  1.7248E+002
 653.00  1.8887E+002
 653.50  1.8574E+002
 654.00  1.7765E+002
 654.50  1.6536E+002
 655.00  1.6546E+002
 655.50  1.5002E+002
 656.00  1.7454E+002
 656.50  1.5627E+002
 657.00  1.4472E+002
 657.50  1.4965E+002
 658.00  1.4912E+002
 658.50  1.4875E+002
 659.00  1.4866E+002
 659.50  1.5182E+002
 660.00  1.6251E+002
 660.50  1.5116E+002
 661.00  1.5407E+002
 661.50  1.5140E+002
 662.00  1.5469E+002
 662.50  1.5382E+002
 663.00  1.7208E+002
 663.50  1.6134E+002
 664.00  1.7399E+002
 664.50  1.6642E+002
 665.00  1.6375E+002
 665.50  1.6387E+002
 666.00  1.5086E+002
 666.50  1.5596E+002
 667.00  1.4755E+002
 667.50  1.6052E+002
 668.00  1.4603E+002
 668.50  1.6162E+002
 669.00  1.5173E+002
 669.50  1.4655E+002
 670.00  1.3949E+002
 670.50  1.5347E+002
 671.00  1.4703E+002
 671.50  1.4897E+002
 672.00  1.3500E+002
 672.50  1.5294E+002
 673.00  1.6521E+002
 673.50  1.6022E+002
 674.00  1.5490E+002
 674.50  1.6641E+002
 675.00  1.6606E+002
 675.50  1.6696E+002
 676.00  1.5665E+002
 676.50  1.5750E+002
 677.00  1.6180E+002
 677.50  1.6366E+002
 678.00  1.6696E+002
 678.50  1.6101E+002
 679.00  1.6185E+002
 679.50  1.5109E+002
 680.00  1.6154E+002
 680.50  1.5861E+002
 681.00  1.5393E+002
 681.50  1.5615E+002
 682.00  1.5170E+002
 682.50  1.6408E+002
 683.00  1.4536E+002
 683.50  1.6868E+002
 684.00  1.6557E+002
 684.50  1.4584E+002
 685.00  1.6258E+002
 685.50  1.7000E+002
 686.00  1.5082E+002
 686.50  1.6018E+002
 687.00  1.5745E+002
 687.50  1.6339E+002
 688.00  1.6450E+002
 688.50  1.6476E+002
 689.00  1.6041E+002
 689.50  1.5895E+002
 690.00  1.7112E+002
 690.50  1.3115E+002
 691.00  1.4779E+002
 691.50  1.5914E+002
 692.00  1.6746E+002
 692.50  1.7293E+002
 693.00  1.5625E+002
 693.50  1.4564E+002
 694.00  1.4256E+002
 694.50  1.4552E+002
 695.00  1.3959E+002
 695.50  1.4286E+002
 696.00  1.6650E+002
 696.50  1.7004E+002
 697.00  1.6621E+002
 697.50  1.6491E+002
 698.00  1.5836E+002
 698.50  1.5464E+002
 699.00  1.3755E+002
 699.50  1.3046E+002
 700.00  1.3686E+002
 700.50  1.4269E+002
 701.00  1.3382E+002
 701.50  1.6174E+002
 702.00  1.6459E+002
 702.50  1.5746E+002
 703.00  1.4811E+002
 703.50  1.5337E+002
 704.00  1.3364E+002
 704.50  1.3791E+002
 705.00  1.4151E+002
 705.50  1.4247E+002
 706.00  1.5233E+002
 706.50  1.5524E+002
 707.00  1.5369E+002
 707.50  1.3731E+002
 708.00  1.5344E+002
 708.50  1.4775E+002
 709.00  1.4980E+002
 709.50  1.6041E+002
 710.00  1.5887E+002
 710.50  1.6369E+002
 711.00  1.4010E+002
 711.50  1.4471E+002
 712.00  1.4939E+002
 712.50  1.5462E+002
 713.00  1.4777E+002
 713.50  1.4920E+002
 714.00  1.3722E+002
 714.50  1.5110E+002
 715.00  1.4154E+002
 715.50  1.4041E+002
 716.00  1.4004E+002
 716.50  1.4556E+002
 717.00  1.5826E+002
 717.50  1.5954E+002
 718.00  1.4446E+002
 718.50  1.4581E+002
 719.00  1.4620E+002
 719.50  1.4712E+002
 720.00  1.5200E+002
 720.50  1.4095E+002
 721.00  1.4001E+002
 721.50  1.4175E+002
 722.00  1.4045E+002
 722.50  1.3063E+002
 723.00  1.3352E+002
 723.50  1.4173E+002
 724.00  1.5256E+002
 724.50  1.5590E+002
 725.00  1.4119E+002
 725.50  1.3320E+002
 726.00  1.4500E+002
 726.50  1.3711E+002
 727.00  1.5202E+002
 727.50  1.4361E+002
 728.00  1.4141E+002
 728.50  1.3373E+002
 729.00  1.3848E+002
 729.50  1.4418E+002
 730.00  1.4951E+002
 730.50  1.4544E+002
 731.00  1.4190E+002
 731.50  1.4702E+002
 732.00  1.3711E+002
 732.50  1.5791E+002
 733.00  1.6164E+002
 733.50  1.4489E+002
 734.00  1.6206E+002
 734.50  1.6493E+002
 735.00  1.6047E+002
 735.50  1.7222E+002
 736.00  2.0043E+002
 736.50  1.9360E+002
 737.00  1.9191E+002
 737.50  1.8409E+002
 738.00  1.6277E+002
 738.50  1.7643E+002
 739.00  1.7476E+002
 739.50  1.7639E+002
 740.00  1.6319E+002
 740.50  1.7767E+002
 741.00  1.6944E+002
 741.50  1.6684E+002
 742.00  1.6083E+002
 742.50  1.5400E+002
 743.00  1.5704E+002
 743.50  1.6242E+002
 744.00  1.8480E+002
 744.50  1.7465E+002
 745.00  1.8939E+002
 745.50  1.8416E+002
 746.00  1.6740E+002
 746.50  1.5226E+002
 747.00  1.6558E+002
 747.50  1.6544E+002
 748.00  1.3983E+002
 748.50  1.5713E+002
 749.00  1.6286E+002
 749.50  1.5952E+002
 750.00  1.4655E+002
 750.50  1.6811E+002
 751.00  1.4587E+002
 751.50  1.4106E+002
 752.00  1.4791E+002
 752.50  1.4901E+002
 753.00  1.5413E+002
 753.50  1.6692E+002
 754.00  1.5534E+002
 754.50  1.6643E+002
 755.00  1.7151E+002
 755.50  1.8028E+002
 756.00  1.7993E+002
 756.50  1.7780E+002
 757.00  1.7756E+002
 757.50  1.6352E+002
 758.00  1.5970E+002
 758.50  1.7352E+002
 759.00  1.6988E+002
 759.50  1.6745E+002
 760.00  1.5598E+002
 760.50  1.6007E+002
 761.00  1.5237E+002
 761.50  1.5343E+002
 762.00  1.5548E+002
 762.50  1.5757E+002
 763.00  1.6064E+002
 763.50  1.5400E+002
 764.00  1.5360E+002
 764.50  1.5316E+002
 765.00  1.6061E+002
 765.50  1.4504E+002
 766.00  1.4697E+002
 766.50  1.3228E+002
 767.00  1.3490E+002
 767.50  1.4173E+002
 768.00  1.4486E+002
 768.50  1.6858E+002
 769.00  1.5199E+002
 769.50  1.6008E+002
 770.00  1.4615E+002
 770.50  1.5076E+002
 771.00  1.5047E+002
 771.50  1.4655E+002
 772.00  1.4063E+002
 772.50  1.4896E+002
 773.00  1.4585E+002
 773.50  1.4183E+002
 774.00  1.6178E+002
 774.50  1.4341E+002
 775.00  1.3205E+002
 775.50  1.3416E+002
 776.00  1.4693E+002
 776.50  1.4122E+002
 777.00  1.4156E+002
 777.50  1.3279E+002
 778.00  1.4339E+002
 778.50  1.4688E+002
 779.00  1.5659E+002
 779.50  1.6596E+002
 780.00  1.5745E+002
 780.50  1.3312E+002
 781.00  1.5316E+002
 781.50  1.4237E+002
 782.00  1.2637E+002
 782.50  1.5420E+002
 783.00  1.5667E+002
 783.50  1.5965E+002
 784.00  1.5416E+002
 784.50  1.5570E+002
 785.00  1.6493E+002
 785.50  1.6116E+002
 786.00  1.5904E+002
 786.50  1.5282E+002
 787.00  1.4456E+002
 787.50  1.6299E+002
 788.00  1.5553E+002
 788.50  1.5581E+002
 789.00  1.5844E+002
 789.50  1.6530E+002
 790.00  1.4659E+002
 790.50  1.4035E+002
 791.00  1.3251E+002
 791.50  1.3116E+002
 792.00  1.3346E+002
 792.50  1.3350E+002
 793.00  1.3957E+002
 793.50  1.3387E+002
 794.00  1.3938E+002
 794.50  1.2921E+002
 795.00  1.5166E+002
 795.50  1.5930E+002
 796.00  1.6154E+002
 796.50  1.4959E+002
 797.00  1.5844E+002
 797.50  1.7581E+002
 798.00  1.7115E+002
 798.50  1.5788E+002
 799.00  1.5287E+002
 799.50  1.5380E+002
 800.00  1.5631E+002
 800.50  1.6062E+002
 801.00  1.6533E+002
 801.50  1.6325E+002
 802.00  1.5384E+002
 802.50  1.4558E+002
 803.00  1.4311E+002
 803.50  1.4898E+002
 804.00  1.6356E+002
 804.50  1.4794E+002
 805.00  1.4872E+002
 805.50  1.4471E+002
 806.00  1.4518E+002
 806.50  1.5624E+002
 807.00  1.4290E+002
 807.50  1.5338E+002
 808.00  1.3974E+002
 808.50  1.2812E+002
 809.00  1.2852E+002
 809.50  1.3294E+002
 810.00  1.2855E+002
 810.50  1.4759E+002
 811.00  1.4610E+002
 811.50  1.4316E+002
 812.00  1.5519E+002
 812.50  1.4814E+002
 813.00  1.4227E+002
 813.50  1.3575E+002
 814.00  1.2578E+002
 814.50  1.3412E+002
 815.00  1.4930E+002
 815.50  1.4165E+002
 816.00  1.5295E+002
 816.50  1.4338E+002
 817.00  1.1782E+002
 817.50  1.3253E+002
 818.00  1.4541E+002
 818.50  1.3433E+002
 819.00  1.4577E+002
 819.50  1.7078E+002
 820.00  1.4136E+002
 820.50  1.3654E+002
 821.00  1.3399E+002
 821.50  1.3384E+002
 822.00  1.4527E+002
 822.50  1.3849E+002
 823.00  1.2900E+002
 823.50  1.2712E+002
 824.00  1.2534E+002
 824.50  1.2672E+002
 825.00  1.3147E+002
 825.50  1.4331E+002
 826.00  1.4220E+002
 826.50  1.4245E+002
 827.00  1.3944E+002
 827.50  1.2350E+002
 828.00  1.3193E+002
 828.50  1.4072E+002
 829.00  1.3944E+002
 829.50  1.3758E+002
 830.00  1.4189E+002
 830.50  1.3148E+002
 831.00  1.3612E+002
 831.50  1.4562E+002
 832.00  1.4450E+002
 832.50  1.3315E+002
 833.00  1.4039E+002
 833.50  1.3839E+002
 834.00  1.3224E+002
 834.50  1.3015E+002
 835.00  1.4362E+002
 835.50  1.1678E+002
 836.00  1.1339E+002
 836.50  1.0820E+002
 837.00  1.1209E+002
 837.50  1.1378E+002
 838.00  1.1984E+002
 838.50  1.2432E+002
 839.00  1.2037E+002
 839.50  1.2457E+002
 840.00  1.2908E+002
 840.50  1.1481E+002
 841.00  1.2754E+002
 841.50  1.3155E+002
 842.00  1.3421E+002
 842.50  1.4796E+002
 843.00  1.3563E+002
 843.50  1.5121E+002
 844.00  1.4354E+002
 844.50  1.2585E+002
 845.00  1.2870E+002
 845.50  1.3809E+002
 846.00  1.3963E+002
 846.50  1.3401E+002
 847.00  1.5355E+002
 847.50  1.5593E+002
 848.00  1.3184E+002
 848.50  1.5240E+002
 849.00  1.4130E+002
 849.50  1.4370E+002
 850.00  1.2599E+002
 850.50  1.3362E+002
 851.00  1.2982E+002
 851.50  1.3064E+002
 852.00  1.1555E+002
 852.50  1.1494E+002
 853.00  1.1005E+002
 853.50  1.1835E+002
 854.00  1.3025E+002
 854.50  1.3914E+002
 855.00  1.4263E+002
 855.50  1.4004E+002
 856.00  1.3131E+002
 856.50  1.2901E+002
 857.00  1.1937E+002
 857.50  1.1945E+002
 858.00  1.3391E+002
 858.50  1.1954E+002
 859.00  1.1163E+002
 859.50  1.1152E+002
 860.00  1.2212E+002
 860.50  1.2172E+002
 861.00  1.1793E+002
 861.50  1.3236E+002
 862.00  1.2568E+002
 862.50  1.2506E+002
 863.00  1.2353E+002
 863.50  1.3346E+002
 864.00  1.3077E+002
 864.50  1.2546E+002
 865.00  1.1971E+002
 865.50  1.2477E+002
 866.00  1.3259E+002
 866.50  1.0570E+002
 867.00  1.0961E+002
 867.50  9.2386E+001
 868.00  1.0385E+002
 868.50  1.0301E+002
 869.00  1.0272E+002
 869.50  9.6445E+001
 870.00  1.1625E+002
 870.50  1.1744E+002
 871.00  1.1105E+002
 871.50  1.2810E+002
 872.00  1.0720E+002
 872.50  1.1103E+002
 873.00  1.0149E+002
 873.50  1.0459E+002
 874.00  1.1997E+002
 874.50  1.1807E+002
 875.00  1.1235E+002
 875.50  1.1057E+002
 876.00  1.2125E+002
 876.50  1.1872E+002
 877.00  1.1313E+002
 877.50  1.0324E+002
 878.00  1.1618E+002
 878.50  1.1032E+002
 879.00  1.1176E+002
 879.50  1.1601E+002
 880.00  1.1214E+002
 880.50  9.7449E+001
 881.00  1.0692E+002
 881.50  1.2250E+002
 882.00  1.1382E+002
 882.50  1.1547E+002
 883.00  1.1985E+002
 883.50  1.1313E+002
 884.00  1.0061E+002
 884.50  1.0290E+002
 885.00  1.1675E+002
 885.50  1.2229E+002
 886.00  1.1741E+002
 886.50  1.2453E+002
 887.00  1.2379E+002
 887.50  1.1390E+002
 888.00  1.1176E+002
 888.50  1.1304E+002
 889.00  9.3436E+001
 889.50  9.5245E+001
 890.00  8.9972E+001
 890.50  1.0081E+002
 891.00  9.5915E+001
 891.50  8.8709E+001
 892.00  1.0755E+002
 892.50  1.0302E+002
 893.00  8.7792E+001
 893.50  1.0048E+002
 894.00  9.9124E+001
 894.50  1.2164E+002
 895.00  1.2291E+002
 895.50  1.2108E+002
 896.00  1.1219E+002
 896.50  1.1748E+002
 897.00  9.7346E+001
 897.50  1.1506E+002
 898.00  9.7833E+001
 898.50  1.0181E+002
 899.00  1.0434E+002
 899.50  1.1234E+002
