" File: Users\Wavelength\Desktop\test black.SSM
"  SCOPE->  Wave:448.60nm  Pix:451  Val: 18.000  Time: 70ms  Avg:5  Sm:0  Sg:0  Tc:off  Z  SNAP  Xt:1  Ch:1  Xtrig  
 400.00  -7.7938E+000
 400.50  -7.5677E+000
 401.00  3.9137E+000
 401.50  1.6082E+000
 402.00  2.8843E+000
 402.50  8.8431E+000
 403.00  1.3038E+001
 403.50  -1.2991E+000
 404.00  -2.3745E+001
 404.50  -2.9004E+001
 405.00  -2.8363E+001
 405.50  -2.1766E+001
 406.00  -2.2731E+001
 406.50  -1.9942E+001
 407.00  -2.0908E+001
 407.50  -1.1435E+001
 408.00  -6.8778E+000
 408.50  -1.7382E+001
 409.00  -2.3195E+001
 409.50  -3.0369E+001
 410.00  -2.8050E+001
 410.50  -2.0242E+001
 411.00  -2.5216E+001
 411.50  -2.0965E+001
 412.00  -1.5655E+001
 412.50  -2.4142E+001
 413.00  -2.8135E+001
 413.50  -3.3718E+001
 414.00  -2.9970E+001
 414.50  -2.5055E+001
 415.00  -1.8884E+001
 415.50  -8.1763E+000
 416.00  -2.1157E+000
 416.50  2.9524E+000
 417.00  7.3216E-001
 417.50  -1.2292E+001
 418.00  -1.3561E+001
 418.50  -8.8000E+000
 419.00  -8.9364E+000
 419.50  -9.4739E+000
 420.00  -1.2064E+001
 420.50  -1.3234E+001
 421.00  -1.5582E+001
 421.50  -2.5250E+001
 422.00  -1.0666E+001
 422.50  -2.0992E+000
 423.00  1.0915E+000
 423.50  1.0183E+001
 424.00  -6.0329E+000
 424.50  -1.8189E+001
 425.00  -1.1469E+001
 425.50  -4.4849E+000
 426.00  -1.3461E+001
 426.50  -1.2061E+001
 427.00  -2.3372E+001
 427.50  -4.2518E+001
 428.00  -3.4845E+001
 428.50  -1.6431E+001
 429.00  -8.9460E+000
 429.50  -4.4882E-001
 430.00  1.2519E-001
 430.50  -3.9175E-001
 431.00  -1.0072E+001
 431.50  -2.6629E+001
 432.00  -2.6144E+001
 432.50  -2.1466E+001
 433.00  -1.3254E+001
 433.50  -9.3974E+000
 434.00  -2.2461E+001
 434.50  -1.6614E+001
 435.00  -1.1980E+001
 435.50  -3.9086E+000
 436.00  -8.7220E+000
 436.50  -2.1540E+001
 437.00  -2.0448E+001
 437.50  -1.4853E+001
 438.00  -1.2137E+001
 438.50  -9.9580E+000
 439.00  -3.6410E+000
 439.50  -3.4620E+000
 440.00  -1.6930E+001
 440.50  -1.0573E+001
 441.00  -4.6977E+000
 441.50  -6.7545E+000
 442.00  -6.4750E+000
 442.50  -2.8385E+000
 443.00  1.2717E+000
 443.50  3.3226E+000
 444.00  5.0076E+000
 444.50  5.4634E+000
 445.00  2.4800E+000
 445.50  4.8801E+000
 446.00  -3.7202E-001
 446.50  -1.1947E+001
 447.00  -8.4816E+000
 447.50  -1.6230E+001
 448.00  -3.3125E+000
 448.50  1.4468E+001
 449.00  -3.6335E+000
 449.50  -4.1071E+000
 450.00  -3.4423E-001
 450.50  3.1081E-002
 451.00  -4.4692E+000
 451.50  -5.5499E+000
 452.00  -1.4855E+001
 452.50  -2.3787E+001
 453.00  -1.3914E+001
 453.50  -2.8370E+001
 454.00  -7.6625E+000
 454.50  -8.7335E+000
 455.00  -2.6951E+001
 455.50  4.7466E+000
 456.00  -1.1168E+001
 456.50  6.0253E-002
 457.00  8.2752E-001
 457.50  -1.2283E+001
 458.00  -1.0546E+001
 458.50  -6.8442E+000
 459.00  2.2962E-001
 459.50  -1.6730E+001
 460.00  -2.3704E+001
 460.50  -3.3022E+001
 461.00  -1.3478E+001
 461.50  -1.3980E+001
 462.00  -2.0601E+001
 462.50  -2.9550E+001
 463.00  -2.2983E+001
 463.50  -1.7435E+001
 464.00  -2.5929E+001
 464.50  -2.2481E+001
 465.00  -1.5473E+001
 465.50  -2.1323E+001
 466.00  -2.8440E+001
 466.50  -1.6743E+001
 467.00  -1.2411E+001
 467.50  -2.7752E+001
 468.00  -2.7552E+001
 468.50  -2.9128E+001
 469.00  -3.5666E+001
 469.50  -3.5669E+001
 470.00  -3.1977E+001
 470.50  -2.9089E+001
 471.00  -2.6223E+001
 471.50  -2.3477E+001
 472.00  -2.9016E+001
 472.50  -2.8685E+001
 473.00  -2.4616E+001
 473.50  -2.6478E+001
 474.00  -4.2582E+001
 474.50  -4.0499E+001
 475.00  -1.6165E+001
 475.50  -3.7546E+001
 476.00  -1.8964E+001
 476.50  -1.3995E+001
 477.00  -3.2972E+000
 477.50  -2.7929E+000
 478.00  -1.1722E+001
 478.50  -2.7145E+001
 479.00  -2.3469E+001
 479.50  -7.5549E+000
 480.00  -1.9875E+000
 480.50  -2.3451E+001
 481.00  -1.5518E+001
 481.50  -2.4541E+001
 482.00  -5.5147E+000
 482.50  -3.1647E+000
 483.00  7.8193E+000
 483.50  2.6039E+000
 484.00  5.1936E+000
 484.50  1.0842E-002
 485.00  -1.1599E+001
 485.50  -4.4137E+000
 486.00  -2.0905E-001
 486.50  2.8168E+000
 487.00  5.4189E+000
 487.50  1.3721E+001
 488.00  1.0545E+001
 488.50  6.3879E+000
 489.00  1.2289E+001
 489.50  5.7324E+000
 490.00  9.5442E-001
 490.50  -5.4454E+000
 491.00  1.3322E+000
 491.50  9.3005E+000
 492.00  9.2618E+000
 492.50  -5.9618E+000
 493.00  -2.1753E+001
 493.50  4.7394E+000
 494.00  -2.7605E+001
 494.50  -2.2010E+001
 495.00  -2.2612E+001
 495.50  5.0916E-001
 496.00  -1.6640E+000
 496.50  -1.0463E+001
 497.00  -1.1128E+001
 497.50  -5.4593E+000
 498.00  3.9185E-002
 498.50  -4.9832E+000
 499.00  -1.0625E+001
 499.50  -5.9484E+000
 500.00  -2.8803E+000
 500.50  -2.6256E+000
 501.00  2.4386E+000
 501.50  2.1103E+000
 502.00  1.0598E+001
 502.50  8.8654E+000
 503.00  5.0628E+000
 503.50  5.2041E+000
 504.00  3.0139E+000
 504.50  -3.7933E+000
 505.00  9.6543E+000
 505.50  2.8172E+000
 506.00  9.5378E+000
 506.50  1.2263E+001
 507.00  8.4423E+000
 507.50  2.6961E+000
 508.00  -2.1649E+000
 508.50  -8.5871E+000
 509.00  -1.7120E+000
 509.50  4.1819E+000
 510.00  -5.3510E+000
 510.50  -5.1233E+000
 511.00  -5.9104E+000
 511.50  -1.1513E+001
 512.00  -7.8531E+000
 512.50  -1.9522E+001
 513.00  -1.5410E+001
 513.50  -9.0560E+000
 514.00  -1.0800E+001
 514.50  -9.8810E+000
 515.00  -1.0066E+001
 515.50  -1.2853E+001
 516.00  -1.9516E+001
 516.50  -2.0296E+001
 517.00  -1.1671E+001
 517.50  -1.7011E+001
 518.00  -1.7690E+001
 518.50  -8.0799E+000
 519.00  -1.7193E+001
 519.50  -9.7171E+000
 520.00  -1.3769E+001
 520.50  -7.1095E+000
 521.00  -2.2400E-001
 521.50  -5.8048E+000
 522.00  -8.4457E-001
 522.50  3.0633E+000
 523.00  -8.9276E+000
 523.50  -1.9119E+001
 524.00  -2.4716E+001
 524.50  -2.1899E+001
 525.00  -2.3146E+001
 525.50  -1.4392E+001
 526.00  -2.6516E-001
 526.50  -1.9048E+001
 527.00  -1.9539E+001
 527.50  -7.6337E+000
 528.00  -9.2973E+000
 528.50  7.9541E+000
 529.00  4.3091E+000
 529.50  -9.5926E+000
 530.00  -1.1609E+000
 530.50  9.9622E+000
 531.00  2.1384E+000
 531.50  9.9995E-001
 532.00  4.9549E+000
 532.50  -3.0500E+000
 533.00  -6.0064E+000
 533.50  6.1303E+000
 534.00  1.0465E+000
 534.50  -6.9363E+000
 535.00  -6.6422E-002
 535.50  -1.6728E+000
 536.00  -4.8631E+000
 536.50  1.5545E+000
 537.00  1.4433E+001
 537.50  2.8909E+001
 538.00  2.3049E+001
 538.50  4.9383E+000
 539.00  1.1761E+001
 539.50  -4.7099E+000
 540.00  -7.0784E+000
 540.50  2.8610E+000
 541.00  -4.9855E+000
 541.50  -4.7118E+000
 542.00  -8.0082E+000
 542.50  6.8474E+000
 543.00  2.3899E+001
 543.50  1.8021E+001
 544.00  1.4823E+001
 544.50  1.4443E+001
 545.00  2.0795E+001
 545.50  1.5078E+001
 546.00  2.0557E+001
 546.50  3.9494E+000
 547.00  -6.6683E+000
 547.50  6.1730E+000
 548.00  7.3989E-002
 548.50  1.0266E+001
 549.00  3.6543E+000
 549.50  -5.7247E+000
 550.00  -1.6212E+001
 550.50  -1.0490E+001
 551.00  3.5698E-001
 551.50  3.6601E+000
 552.00  -1.4786E+001
 552.50  -1.9766E+001
 553.00  -1.7579E+001
 553.50  -1.8900E+001
 554.00  -1.0698E+001
 554.50  -1.0124E+001
 555.00  -1.9839E+001
 555.50  -7.9383E+000
 556.00  -9.8124E+000
 556.50  -2.5848E+001
 557.00  -1.1710E+001
 557.50  -1.9633E+001
 558.00  -3.4178E+001
 558.50  -2.8324E+001
 559.00  -2.1909E+001
 559.50  -1.6850E+001
 560.00  -1.0170E+001
 560.50  -1.6284E+001
 561.00  -1.3406E+001
 561.50  -1.3074E+001
 562.00  -1.5715E+001
 562.50  5.8232E+000
 563.00  9.5631E+000
 563.50  -1.8685E+000
 564.00  2.2868E+000
 564.50  -1.8316E+001
 565.00  -5.9505E+000
 565.50  -1.5855E+000
 566.00  -4.1584E+000
 566.50  -2.4744E+000
 567.00  -1.6405E+000
 567.50  -1.0271E+001
 568.00  -2.0136E+001
 568.50  -2.0337E+000
 569.00  -1.1426E+000
 569.50  2.8508E+000
 570.00  5.5007E+000
 570.50  -5.5966E+000
 571.00  -2.1792E+001
 571.50  -4.4792E+000
 572.00  5.2460E+000
 572.50  2.8927E+000
 573.00  -4.1326E+000
 573.50  3.9969E+000
 574.00  -5.7537E-002
 574.50  1.1369E+000
 575.00  6.9823E+000
 575.50  1.0701E+001
 576.00  8.9257E+000
 576.50  4.9825E+000
 577.00  -4.5568E+000
 577.50  4.4227E+000
 578.00  -8.5331E+000
 578.50  7.2809E+000
 579.00  8.8128E+000
 579.50  4.1879E+000
 580.00  1.0858E+001
 580.50  7.2707E-001
 581.00  -5.0034E+000
 581.50  -3.7364E+000
 582.00  -3.7473E+000
 582.50  -1.3575E+000
 583.00  -1.0970E+001
 583.50  -5.4081E+000
 584.00  -7.3074E+000
 584.50  -1.8549E+000
 585.00  -4.0129E+000
 585.50  -1.3725E+000
 586.00  -1.4844E-001
 586.50  -1.1684E+001
 587.00  8.1454E-001
 587.50  2.6291E-001
 588.00  4.7781E+000
 588.50  1.0333E+001
 589.00  6.7310E+000
 589.50  -1.0610E+000
 590.00  3.2184E+000
 590.50  -1.2471E+001
 591.00  -1.4349E+000
 591.50  4.5665E-001
 592.00  3.6138E+000
 592.50  -1.8845E+000
 593.00  1.6426E+000
 593.50  -4.5779E-001
 594.00  3.9464E+000
 594.50  9.3627E+000
 595.00  -1.2749E+001
 595.50  -6.6299E+000
 596.00  9.7842E+000
 596.50  -1.1196E+001
 597.00  -1.9550E+001
 597.50  -1.1280E+001
 598.00  -8.5098E+000
 598.50  -1.9007E+001
 599.00  -7.2746E+000
 599.50  -9.7211E+000
 600.00  -1.3046E+001
 600.50  -2.9517E+001
 601.00  -2.4618E+001
 601.50  -1.8779E+001
 602.00  -1.5675E+001
 602.50  -2.3390E+001
 603.00  -3.6503E+001
 603.50  -2.8489E+001
 604.00  -1.8981E+001
 604.50  -2.5012E+000
 605.00  -8.2764E-001
 605.50  -5.1345E+000
 606.00  -4.2846E+000
 606.50  -5.7065E+000
 607.00  1.0047E+001
 607.50  -3.9552E+000
 608.00  2.9767E+000
 608.50  1.9793E+000
 609.00  -3.5239E+000
 609.50  4.2490E+000
 610.00  3.2537E+000
 610.50  -3.0770E+000
 611.00  -9.8350E+000
 611.50  -1.4293E+000
 612.00  4.3979E+000
 612.50  -7.4844E+000
 613.00  -2.1032E+001
 613.50  -2.1097E+001
 614.00  -1.8733E+001
 614.50  -1.8242E+001
 615.00  -1.1666E+001
 615.50  -1.1977E+001
 616.00  -1.6496E+001
 616.50  -1.2079E+001
 617.00  -6.7388E+000
 617.50  -1.1653E+001
 618.00  4.1287E+000
 618.50  -4.7695E+000
 619.00  -6.2747E+000
 619.50  1.8752E+000
 620.00  9.0906E-001
 620.50  1.3525E+001
 621.00  8.8920E+000
 621.50  -1.4280E+000
 622.00  -1.4155E+001
 622.50  2.1403E+000
 623.00  -3.5268E+000
 623.50  9.4646E+000
 624.00  -1.4683E+001
 624.50  -3.0440E+000
 625.00  -8.8434E+000
 625.50  -1.6774E+001
 626.00  -1.1192E+001
 626.50  -1.0635E+001
 627.00  -1.5875E+001
 627.50  -2.4468E+001
 628.00  -1.9796E+001
 628.50  -1.6311E+001
 629.00  -2.2096E+001
 629.50  -1.3257E+001
 630.00  -8.7927E+000
 630.50  -9.1384E+000
 631.00  -3.8937E+000
 631.50  1.0641E+001
 632.00  1.7284E+000
 632.50  -2.6204E+001
 633.00  7.7078E+000
 633.50  -5.1221E+000
 634.00  -1.1050E+001
 634.50  -1.6783E+001
 635.00  -2.2175E+001
 635.50  -1.4403E+001
 636.00  -1.1484E+001
 636.50  -2.0077E+001
 637.00  -2.0354E+001
 637.50  -8.6298E+000
 638.00  6.7248E+000
 638.50  -1.0609E+001
 639.00  -1.4319E+001
 639.50  -2.2409E+000
 640.00  5.8214E+000
 640.50  1.4024E+001
 641.00  3.5080E+000
 641.50  -3.3634E+000
 642.00  8.1458E+000
 642.50  1.9340E+001
 643.00  1.4880E+001
 643.50  2.3254E+001
 644.00  1.2561E+001
 644.50  9.3206E-002
 645.00  -3.3586E+000
 645.50  -2.4455E+001
 646.00  -2.7292E+001
 646.50  -1.0083E+001
 647.00  -8.7397E+000
 647.50  -1.0780E+001
 648.00  -3.6991E-001
 648.50  -4.3239E+000
 649.00  -7.4617E+000
 649.50  4.2536E+000
 650.00  -1.6228E+000
 650.50  -1.7751E+000
 651.00  8.9307E+000
 651.50  3.1298E+000
 652.00  4.1378E+000
 652.50  7.2354E+000
 653.00  1.5996E+001
 653.50  7.5356E+000
 654.00  -4.4805E+000
 654.50  8.9970E+000
 655.00  5.7999E+000
 655.50  -2.0388E+001
 656.00  -1.8104E+001
 656.50  -2.1961E+001
 657.00  -2.0146E+001
 657.50  -1.3672E+001
 658.00  -1.8505E+000
 658.50  3.5977E+000
 659.00  1.3503E+001
 659.50  1.5893E+001
 660.00  8.4185E+000
 660.50  -9.1143E-001
 661.00  -1.9217E+000
 661.50  2.6944E+000
 662.00  -2.4912E+000
 662.50  -4.2462E-001
 663.00  -2.4072E-001
 663.50  7.7174E+000
 664.00  9.4580E+000
 664.50  4.0189E+000
 665.00  1.6390E+000
 665.50  -2.9570E+000
 666.00  -1.2545E+001
 666.50  -5.4524E+000
 667.00  -5.6564E+000
 667.50  -5.0216E+000
 668.00  -1.9041E+001
 668.50  -1.2475E+001
 669.00  -2.0734E+001
 669.50  -1.4586E+001
 670.00  -1.1845E+001
 670.50  -6.8303E+000
 671.00  -1.0194E+001
 671.50  -5.4386E+000
 672.00  1.8242E+000
 672.50  4.2396E+000
 673.00  9.0386E+000
 673.50  -8.7670E+000
 674.00  -1.9953E+001
 674.50  -1.7436E+001
 675.00  -1.2196E+001
 675.50  -7.0561E+000
 676.00  -8.5711E+000
 676.50  -4.0568E+000
 677.00  -4.9464E+000
 677.50  7.5337E+000
 678.00  4.5817E+000
 678.50  -3.3321E+000
 679.00  -5.6693E+000
 679.50  -1.6658E+001
 680.00  -1.7482E+001
 680.50  -1.4011E+001
 681.00  -1.9046E+001
 681.50  -2.2232E+001
 682.00  -1.4461E+001
 682.50  -1.5596E+001
 683.00  -3.5811E+001
 683.50  -7.1319E+000
 684.00  5.5856E+000
 684.50  -1.5188E+000
 685.00  -2.9619E+000
 685.50  2.4586E+000
 686.00  2.0126E+000
 686.50  -6.6334E+000
 687.00  -6.6431E+000
 687.50  -1.6293E+001
 688.00  -1.4674E+001
 688.50  -1.6215E+001
 689.00  -1.2066E+001
 689.50  -2.7451E+000
 690.00  -6.7073E+000
 690.50  -1.2752E+001
 691.00  -1.3193E+001
 691.50  -1.8948E+001
 692.00  -1.1520E+001
 692.50  8.2671E-001
 693.00  3.8699E+000
 693.50  -3.5191E+000
 694.00  -1.3057E+001
 694.50  -1.6225E+001
 695.00  -2.1223E+001
 695.50  -1.7211E+001
 696.00  -1.7765E+001
 696.50  -1.8154E+001
 697.00  4.4547E+000
 697.50  9.7363E+000
 698.00  -1.5368E+001
 698.50  -7.4362E+000
 699.00  -9.3426E+000
 699.50  -9.2141E+000
 700.00  -1.8579E+000
 700.50  -2.2935E+000
 701.00  -1.1264E+001
 701.50  4.0515E+000
 702.00  1.4463E+001
 702.50  1.4739E+001
 703.00  1.1384E+001
 703.50  1.1021E+001
 704.00  3.1971E-001
 704.50  1.0396E+001
 705.00  -9.5973E+000
 705.50  -2.4410E+001
 706.00  -2.7249E+001
 706.50  -2.8832E+001
 707.00  -2.0534E+001
 707.50  -2.8095E+001
 708.00  -9.5440E+000
 708.50  -8.6864E+000
 709.00  -1.7504E+001
 709.50  -4.2776E+000
 710.00  2.7397E+000
 710.50  1.7065E+001
 711.00  -7.9532E+000
 711.50  -3.6526E+000
 712.00  -2.0837E+001
 712.50  -1.1367E+001
 713.00  -1.8132E+001
 713.50  -1.0178E+001
 714.00  8.8485E+000
 714.50  1.1747E+001
 715.00  -6.3987E+000
 715.50  -1.8564E+001
 716.00  -1.0765E+001
 716.50  -1.0588E+001
 717.00  -1.1476E+001
 717.50  -2.6277E+000
 718.00  -1.6651E+001
 718.50  -1.4768E+001
 719.00  -6.6085E+000
 719.50  -2.3759E+000
 720.00  -2.3230E+001
 720.50  -1.5551E+001
 721.00  -2.7783E+001
 721.50  -2.8942E+001
 722.00  -2.7456E+001
 722.50  -2.2521E+001
 723.00  -1.6259E+001
 723.50  2.9791E+000
 724.00  4.6082E+000
 724.50  1.2229E+001
 725.00  2.9550E+000
 725.50  -3.4375E+000
 726.00  -4.3440E+000
 726.50  -1.0145E+001
 727.00  -1.1070E+001
 727.50  -1.6516E+000
 728.00  -8.4690E+000
 728.50  -1.0182E+001
 729.00  -8.6629E+000
 729.50  -1.1303E+001
 730.00  -2.0923E+001
 730.50  -5.0362E+000
 731.00  -1.4579E+001
 731.50  -1.6296E+001
 732.00  -2.3293E+001
 732.50  -1.1741E+001
 733.00  -6.6612E+000
 733.50  -2.8115E+001
 734.00  -1.1174E+001
 734.50  -3.4869E+000
 735.00  -1.4378E+001
 735.50  -1.9071E+001
 736.00  -1.0831E+001
 736.50  1.3120E+001
 737.00  6.0972E+000
 737.50  -3.4655E+000
 738.00  -1.2967E+001
 738.50  -1.0938E+001
 739.00  -8.4462E+000
 739.50  5.5679E+000
 740.00  -1.2293E+001
 740.50  -9.8828E-001
 741.00  -1.3052E+001
 741.50  -3.4800E+001
 742.00  -1.3650E+001
 742.50  -2.3360E+001
 743.00  -1.3997E+001
 743.50  -8.1589E+000
 744.00  7.1852E+000
 744.50  -4.7039E+000
 745.00  3.8688E+000
 745.50  9.7187E+000
 746.00  1.9552E+001
 746.50  1.7462E+001
 747.00  2.0192E+001
 747.50  1.0298E+001
 748.00  2.8005E+000
 748.50  4.8479E+000
 749.00  3.3611E+000
 749.50  6.2237E+000
 750.00  -1.0125E+001
 750.50  -1.3655E+001
 751.00  -2.2493E+001
 751.50  -1.9720E+001
 752.00  -7.5733E+000
 752.50  -1.8023E+001
 753.00  -2.0873E+001
 753.50  -2.4831E+001
 754.00  -1.0800E+001
 754.50  -1.2112E+001
 755.00  -1.9633E+001
 755.50  -4.7116E+000
 756.00  1.1221E+000
 756.50  5.5871E-001
 757.00  2.5354E-001
 757.50  -9.0726E+000
 758.00  -1.1145E+001
 758.50  2.3798E+000
 759.00  3.4810E+000
 759.50  5.6491E-001
 760.00  -2.2860E+000
 760.50  -1.0717E+000
 761.00  -1.1451E+001
 761.50  -5.6133E+000
 762.00  -1.6276E+000
 762.50  7.2580E-001
 763.00  1.2449E+001
 763.50  -9.3004E+000
 764.00  -9.4651E+000
 764.50  -1.6651E+001
 765.00  -5.3738E+000
 765.50  -1.4100E+001
 766.00  2.4782E-001
 766.50  -1.5784E+001
 767.00  -1.7362E+001
 767.50  -2.4371E+000
 768.00  -1.5552E+000
 768.50  1.0361E+001
 769.00  5.6536E+000
 769.50  1.1425E+001
 770.00  -9.5916E+000
 770.50  -6.3761E+000
 771.00  -6.8094E+000
 771.50  -1.0474E+001
 772.00  -1.6555E+001
 772.50  -8.9570E+000
 773.00  -2.1282E+001
 773.50  -2.2634E+001
 774.00  -1.5853E+001
 774.50  -6.8047E+000
 775.00  -1.8272E+001
 775.50  -1.7168E+001
 776.00  -3.4289E+000
 776.50  -1.0729E+001
 777.00  -8.7244E-001
 777.50  -7.5789E+000
 778.00  -1.5027E+001
 778.50  -2.0256E+001
 779.00  2.5735E+000
 779.50  1.3734E-001
 780.00  3.4172E+000
 780.50  -1.4325E+001
 781.00  -3.1655E+000
 781.50  -1.3583E+001
 782.00  -1.6544E+001
 782.50  -6.8560E+000
 783.00  -9.7367E+000
 783.50  1.1484E+001
 784.00  7.7969E+000
 784.50  6.7091E+000
 785.00  4.7650E-001
 785.50  -9.3819E-001
 786.00  -4.5915E+000
 786.50  -2.0762E+001
 787.00  -1.9854E+001
 787.50  1.3025E+000
 788.00  -8.3004E+000
 788.50  2.0282E+000
 789.00  -3.5614E+000
 789.50  -2.6769E+000
 790.00  -1.0669E+001
 790.50  2.6835E+000
 791.00  -1.9053E+000
 791.50  -7.8442E+000
 792.00  -7.3153E+000
 792.50  -8.2075E+000
 793.00  7.1134E+000
 793.50  -2.5854E+000
 794.00  -3.2772E+000
 794.50  -1.8612E+001
 795.00  1.6433E+000
 795.50  -5.2012E+000
 796.00  -8.2606E-001
 796.50  5.6295E+000
 797.00  7.4859E+000
 797.50  1.4620E+001
 798.00  -1.4331E+000
 798.50  -1.2188E+001
 799.00  -4.1939E+000
 799.50  -1.7920E+000
 800.00  -5.4216E+000
 800.50  -3.0487E-001
 801.00  -8.2295E+000
 801.50  -1.0383E+001
 802.00  -5.8264E+000
 802.50  -1.1396E+000
 803.00  6.6573E+000
 803.50  1.2593E+001
 804.00  9.2522E-001
 804.50  8.0939E-001
 805.00  3.6096E+000
 805.50  -1.1241E+001
 806.00  -1.5007E+001
 806.50  3.4698E+000
 807.00  -8.8790E+000
 807.50  1.2058E+000
 808.00  -5.0679E+000
 808.50  -8.6924E+000
 809.00  -4.7530E+000
 809.50  -9.3835E+000
 810.00  2.8011E-001
 810.50  1.4085E+001
 811.00  3.4058E+000
 811.50  -9.8164E+000
 812.00  5.1978E+000
 812.50  -7.3853E+000
 813.00  -1.2038E+001
 813.50  -1.0444E+001
 814.00  -1.4276E+001
 814.50  -1.9758E+001
 815.00  -6.3351E+000
 815.50  -1.6862E+001
 816.00  -1.1165E+001
 816.50  -2.2550E+001
 817.00  -3.7924E+001
 817.50  -1.0989E+001
 818.00  -1.3787E+001
 818.50  -1.8187E+001
 819.00  -2.7471E+000
 819.50  1.1169E+001
 820.00  7.9324E+000
 820.50  1.2521E-001
 821.00  -1.5709E+001
 821.50  -1.6316E+001
 822.00  -2.3163E+000
 822.50  -3.4027E+000
 823.00  -6.2613E+000
 823.50  -7.6727E+000
 824.00  3.3190E-001
 824.50  -6.4210E+000
 825.00  -8.3063E+000
 825.50  9.2454E+000
 826.00  1.8578E+001
 826.50  4.7456E+000
 827.00  6.5176E+000
 827.50  -8.0469E+000
 828.00  -6.3702E+000
 828.50  3.8627E+000
 829.00  -1.3372E+001
 829.50  -1.6851E+001
 830.00  -1.9550E+001
 830.50  -1.5365E+001
 831.00  -1.1858E+001
 831.50  -1.6005E+001
 832.00  -1.9265E+001
 832.50  -1.0460E+001
 833.00  -5.4499E+000
 833.50  2.9198E+000
 834.00  -8.6762E+000
 834.50  -3.6267E+000
 835.00  4.8321E+000
 835.50  -1.5970E+001
 836.00  -2.3286E+001
 836.50  -1.2004E+001
 837.00  -1.5016E+001
 837.50  -7.8121E+000
 838.00  -9.7277E+000
 838.50  -5.3595E+000
 839.00  -8.8535E+000
 839.50  -1.2919E+001
 840.00  -1.9961E+000
 840.50  -8.2212E+000
 841.00  -1.3922E+000
 841.50  7.6712E+000
 842.00  4.8660E+000
 842.50  1.1860E+001
 843.00  1.2800E+001
 843.50  1.3645E+001
 844.00  8.1020E+000
 844.50  7.9203E+000
 845.00  -8.1991E+000
 845.50  -1.1604E+001
 846.00  -3.0557E+000
 846.50  -7.4091E+000
 847.00  1.0267E+000
 847.50  1.6278E+001
 848.00  1.3471E+001
 848.50  9.1573E+000
 849.00  9.5973E+000
 849.50  1.4397E+001
 850.00  -6.1796E+000
 850.50  1.2648E+000
 851.00  2.8355E+000
 851.50  -1.0808E+000
 852.00  -1.0337E+001
 852.50  -1.8094E+001
 853.00  -1.8496E+001
 853.50  -1.3329E+001
 854.00  -1.0581E+001
 854.50  -7.0723E+000
 855.00  1.0104E+000
 855.50  2.6256E-001
 856.00  1.4384E+000
 856.50  9.9016E+000
 857.00  -9.8234E+000
 857.50  -5.6059E+000
 858.00  -3.7559E+000
 858.50  -1.7001E+001
 859.00  -2.7466E+000
 859.50  -8.7655E+000
 860.00  -4.3814E+000
 860.50  1.4307E+000
 861.00  -2.1031E+000
 861.50  9.4816E+000
 862.00  -5.5242E+000
 862.50  -8.6613E+000
 863.00  -1.3296E+001
 863.50  -2.0283E+001
 864.00  -1.4689E+001
 864.50  -1.5609E+001
 865.00  -2.9389E+001
 865.50  -3.1922E+001
 866.00  -3.7465E+001
 866.50  -3.0054E+001
 867.00  -3.4508E+001
 867.50  -2.6990E+001
 868.00  -3.4197E+001
 868.50  -1.8299E+001
 869.00  -1.0547E+001
 869.50  -2.3227E+001
 870.00  -4.5464E-001
 870.50  2.2281E+000
 871.00  -4.5238E+000
 871.50  -2.8793E+000
 872.00  -1.3760E+001
 872.50  -1.1593E+001
 873.00  -1.9946E+001
 873.50  -1.9601E+001
 874.00  -1.6588E+001
 874.50  -1.9045E+001
 875.00  -2.8545E+001
 875.50  -2.4565E+001
 876.00  -2.6200E+001
 876.50  -2.3381E+001
 877.00  -1.1727E+001
 877.50  -2.3882E+001
 878.00  -1.5140E+001
 878.50  -1.9267E+001
 879.00  -1.4053E+001
 879.50  -1.7731E+001
 880.00  -9.0087E+000
 880.50  -2.1361E+000
 881.00  -1.2515E+001
 881.50  3.7475E+000
 882.00  7.7305E-001
 882.50  1.1965E+001
 883.00  -8.6450E+000
 883.50  -9.6063E+000
 884.00  -1.2651E+001
 884.50  -6.9211E+000
 885.00  -1.1212E+001
 885.50  -1.1108E+001
 886.00  -1.7071E+001
 886.50  1.1122E-001
 887.00  -1.4151E+000
 887.50  -5.4799E+000
 888.00  1.4317E+001
 888.50  2.6446E+000
 889.00  -1.6307E+001
 889.50  -2.0771E+001
 890.00  -9.2750E+000
 890.50  -2.7723E+000
 891.00  -1.0000E+000
 891.50  -3.7369E+000
 892.00  5.3812E+000
 892.50  5.4969E+000
 893.00  -1.4031E+001
 893.50  -1.3741E+001
 894.00  -3.5984E+000
 894.50  7.2593E+000
 895.00  3.8534E+000
 895.50  2.0338E+001
 896.00  1.4922E+001
 896.50  -1.1100E+001
 897.00  2.6932E+000
 897.50  2.2978E-001
 898.00  8.1414E+000
 898.50  1.2485E+001
 899.00  1.4586E+001
 899.50  1.0422E+001
