" File: Users\Wavelength\Desktop\test aimh.SSM
"  SCOPE->  Wave:448.60nm  Pix:451  Val: 13.400  Time: 70ms  Avg:5  Sm:0  Sg:0  Tc:off  Z  SNAP  Xt:1  Ch:1  Xtrig  
 400.00  -7.8587E+000
 400.50  -1.1796E+001
 401.00  3.0467E-002
 401.50  4.1318E+000
 402.00  2.9836E+000
 402.50  -3.4376E+000
 403.00  -1.0959E+001
 403.50  -1.0966E+001
 404.00  -2.5981E+001
 404.50  -3.4477E+001
 405.00  -1.9928E+001
 405.50  -1.0298E+001
 406.00  -6.2850E+000
 406.50  -2.1756E+000
 407.00  -1.6562E+001
 407.50  -1.6971E+001
 408.00  -8.4996E+000
 408.50  -1.2771E+001
 409.00  -6.6606E+000
 409.50  -3.0831E+000
 410.00  -3.3190E+000
 410.50  -8.1732E+000
 411.00  -1.4524E+001
 411.50  -5.3930E+000
 412.00  -3.4647E+000
 412.50  -1.1011E+001
 413.00  -2.2168E+001
 413.50  -3.1936E+001
 414.00  -2.7193E+001
 414.50  -1.3618E+001
 415.00  -4.5816E+000
 415.50  -1.7369E+000
 416.00  2.0465E+000
 416.50  6.6212E+000
 417.00  -6.1208E+000
 417.50  -1.6825E+001
 418.00  -2.1281E+001
 418.50  -1.9128E+001
 419.00  -1.1805E+001
 419.50  -1.2337E+001
 420.00  -1.8172E+001
 420.50  -3.0805E+001
 421.00  -3.0774E+001
 421.50  -2.0660E+001
 422.00  -6.8808E+000
 422.50  6.1980E+000
 423.00  3.7037E+000
 423.50  5.0999E+000
 424.00  2.4890E-001
 424.50  1.2457E+000
 425.00  9.6337E+000
 425.50  5.0702E+000
 426.00  -2.0026E+000
 426.50  -1.8356E+000
 427.00  -3.9621E+000
 427.50  -2.2230E+001
 428.00  -2.0241E+001
 428.50  -1.6129E+000
 429.00  1.4910E+000
 429.50  -6.3717E+000
 430.00  -9.6695E+000
 430.50  -3.7092E+000
 431.00  -1.0481E+001
 431.50  -1.3798E+001
 432.00  -4.1151E+000
 432.50  -9.2141E+000
 433.00  -1.5271E+001
 433.50  -1.0313E+001
 434.00  -1.4525E+001
 434.50  -1.9889E+001
 435.00  -1.9036E+001
 435.50  -1.3296E+001
 436.00  -1.9362E+001
 436.50  -1.7203E+001
 437.00  -1.0151E+001
 437.50  -1.1335E+001
 438.00  -1.0268E+001
 438.50  -8.3524E+000
 439.00  -8.1728E-001
 439.50  -2.4943E+000
 440.00  -6.1877E+000
 440.50  -7.0885E+000
 441.00  -3.2519E+000
 441.50  7.6828E-001
 442.00  8.3729E+000
 442.50  1.6067E+000
 443.00  -1.3041E+000
 443.50  -7.1808E-001
 444.00  -5.1569E+000
 444.50  3.3809E+000
 445.00  -2.8169E-001
 445.50  -5.8400E+000
 446.00  -1.4092E+001
 446.50  -1.2160E+001
 447.00  5.0842E-002
 447.50  -7.1900E+000
 448.00  -1.1528E+001
 448.50  8.0383E+000
 449.00  -2.7850E+000
 449.50  -2.2621E+001
 450.00  -2.5038E+001
 450.50  -2.5025E+000
 451.00  9.1247E-001
 451.50  -2.3484E+000
 452.00  -1.1699E+001
 452.50  -1.3705E+001
 453.00  3.8657E-001
 453.50  -3.6483E+000
 454.00  2.8645E+000
 454.50  -7.0797E+000
 455.00  -2.7524E+001
 455.50  -9.4508E+000
 456.00  -2.4372E+001
 456.50  -3.8376E+000
 457.00  -5.2193E+000
 457.50  -1.2152E+001
 458.00  -9.9088E+000
 458.50  -1.6383E+001
 459.00  3.4962E+000
 459.50  -6.4787E+000
 460.00  -7.8647E+000
 460.50  -2.2229E+001
 461.00  -1.0771E+001
 461.50  -3.8227E+000
 462.00  -6.5397E+000
 462.50  -1.1760E+001
 463.00  -3.6357E+000
 463.50  8.3341E+000
 464.00  -3.1067E+000
 464.50  -9.5852E+000
 465.00  5.1562E-001
 465.50  8.6639E-001
 466.00  -5.8741E+000
 466.50  -1.5695E+000
 467.00  5.0545E+000
 467.50  -1.7854E+001
 468.00  -2.2689E+001
 468.50  -1.4145E+001
 469.00  -1.3682E+001
 469.50  -1.6979E+001
 470.00  -1.8082E+001
 470.50  -1.3487E+001
 471.00  -1.9904E-001
 471.50  4.2942E+000
 472.00  1.6328E+000
 472.50  -3.6728E+000
 473.00  -5.7465E+000
 473.50  -5.1940E+000
 474.00  -2.2686E+001
 474.50  -1.8714E+001
 475.00  2.5683E+000
 475.50  -6.4870E+000
 476.00  -8.9541E+000
 476.50  -2.8031E+000
 477.00  3.8016E+000
 477.50  2.8498E+000
 478.00  -5.5269E+000
 478.50  -2.7347E+001
 479.00  -1.3270E+001
 479.50  -1.7015E+000
 480.00  3.6095E+000
 480.50  -4.2189E+000
 481.00  -5.8960E-001
 481.50  -1.6228E+001
 482.00  -1.4128E+001
 482.50  -7.8239E+000
 483.00  2.5838E+000
 483.50  -9.2909E+000
 484.00  -9.6856E+000
 484.50  -8.8159E+000
 485.00  -1.5415E+001
 485.50  -4.0451E+000
 486.00  1.1146E+000
 486.50  8.2048E+000
 487.00  1.0827E+001
 487.50  8.8342E+000
 488.00  9.4323E+000
 488.50  1.0928E+001
 489.00  1.1792E+001
 489.50  9.6554E+000
 490.00  9.0000E+000
 490.50  -8.7904E-001
 491.00  8.2283E+000
 491.50  1.8104E+001
 492.00  1.6087E+001
 492.50  -5.6509E+000
 493.00  -2.1088E+001
 493.50  6.4769E+000
 494.00  -1.9586E+001
 494.50  -2.5252E+001
 495.00  -3.2498E+001
 495.50  -6.4335E+000
 496.00  -5.3089E+000
 496.50  -1.1431E+001
 497.00  -6.0177E+000
 497.50  -1.0355E+001
 498.00  -2.9493E+000
 498.50  -5.0614E+000
 499.00  -2.5049E+000
 499.50  9.5516E+000
 500.00  -2.8060E-001
 500.50  2.6123E-001
 501.00  3.7252E+000
 501.50  1.3039E+001
 502.00  2.2510E+001
 502.50  2.5896E+001
 503.00  2.2809E+001
 503.50  2.0798E+001
 504.00  2.4217E+001
 504.50  2.0345E+001
 505.00  2.7210E+001
 505.50  2.7133E+001
 506.00  1.7117E+001
 506.50  9.1049E+000
 507.00  8.7770E+000
 507.50  -6.3359E+000
 508.00  9.3576E+000
 508.50  7.5097E+000
 509.00  6.9611E+000
 509.50  1.2253E+001
 510.00  7.0725E+000
 510.50  1.6215E+001
 511.00  2.3745E+001
 511.50  2.1195E+001
 512.00  1.7813E+001
 512.50  1.3583E+000
 513.00  1.3467E+001
 513.50  2.3586E+001
 514.00  1.4502E+001
 514.50  3.5798E+000
 515.00  -4.0185E+000
 515.50  -8.1112E+000
 516.00  -1.6648E+001
 516.50  -1.3084E+001
 517.00  -1.4507E+001
 517.50  -3.9466E+000
 518.00  -1.5825E+001
 518.50  -8.8265E+000
 519.00  -5.4581E+000
 519.50  -2.7608E+000
 520.00  5.9974E+000
 520.50  4.2374E+000
 521.00  2.9502E+001
 521.50  2.3281E+001
 522.00  9.9592E+000
 522.50  2.1923E+001
 523.00  2.1560E+001
 523.50  1.5558E+001
 524.00  6.5023E+000
 524.50  1.3976E+000
 525.00  -5.5743E+000
 525.50  -3.3763E+000
 526.00  9.5957E+000
 526.50  2.7486E+000
 527.00  7.7577E+000
 527.50  1.2475E+001
 528.00  2.3645E+001
 528.50  2.4882E+001
 529.00  2.9353E+001
 529.50  1.5008E+001
 530.00  3.3216E+000
 530.50  3.0860E+001
 531.00  2.4723E+001
 531.50  3.3394E+001
 532.00  2.1026E+001
 532.50  1.8055E+001
 533.00  1.9451E+001
 533.50  3.1958E+001
 534.00  3.2426E+001
 534.50  1.9300E+001
 535.00  1.9160E+001
 535.50  2.0852E+001
 536.00  3.2500E+001
 536.50  3.4253E+001
 537.00  4.6172E+001
 537.50  3.0086E+001
 538.00  4.0515E+001
 538.50  3.2986E+001
 539.00  4.3697E+001
 539.50  2.3904E+001
 540.00  3.0618E+001
 540.50  1.6239E+001
 541.00  3.1935E+001
 541.50  2.8851E+001
 542.00  2.1121E+001
 542.50  2.9602E+001
 543.00  3.9948E+001
 543.50  4.5463E+001
 544.00  5.2093E+001
 544.50  4.1988E+001
 545.00  2.8729E+001
 545.50  2.5640E+001
 546.00  3.2446E+001
 546.50  2.1348E+001
 547.00  2.6542E+001
 547.50  1.4226E+001
 548.00  2.8258E+001
 548.50  2.9603E+001
 549.00  3.3961E+001
 549.50  3.3821E+001
 550.00  1.4142E+001
 550.50  2.0543E+001
 551.00  3.0702E+001
 551.50  2.7150E+001
 552.00  1.1394E+001
 552.50  1.0608E+001
 553.00  2.0846E+001
 553.50  2.9577E+001
 554.00  3.0522E+001
 554.50  1.8996E+001
 555.00  8.3166E+000
 555.50  1.8481E+001
 556.00  1.2838E+001
 556.50  7.6937E+000
 557.00  1.7691E+001
 557.50  1.4355E+001
 558.00  2.6970E+000
 558.50  1.1446E+001
 559.00  1.7597E+001
 559.50  1.2798E+001
 560.00  2.0195E+001
 560.50  2.1462E+001
 561.00  2.4021E+001
 561.50  1.6462E+001
 562.00  1.7441E+001
 562.50  3.2749E+001
 563.00  2.2672E+001
 563.50  2.4114E+001
 564.00  4.1161E+001
 564.50  2.5916E+001
 565.00  4.0001E+001
 565.50  2.7414E+001
 566.00  2.1815E+001
 566.50  1.9183E+001
 567.00  2.4987E+001
 567.50  2.5582E+001
 568.00  2.4334E+001
 568.50  3.3903E+001
 569.00  2.6331E+001
 569.50  2.2042E+001
 570.00  2.2180E+001
 570.50  3.0764E+001
 571.00  1.0751E+001
 571.50  8.3856E+000
 572.00  1.9351E+001
 572.50  2.4571E+001
 573.00  2.6643E+001
 573.50  2.9039E+001
 574.00  4.0163E+001
 574.50  2.6044E+001
 575.00  3.1641E+001
 575.50  3.9900E+001
 576.00  4.1814E+001
 576.50  4.0761E+001
 577.00  4.3717E+001
 577.50  3.8587E+001
 578.00  3.2019E+001
 578.50  4.6763E+001
 579.00  6.4972E+001
 579.50  6.1181E+001
 580.00  5.0489E+001
 580.50  3.8685E+001
 581.00  4.5230E+001
 581.50  4.2169E+001
 582.00  3.1561E+001
 582.50  3.2005E+001
 583.00  2.1003E+001
 583.50  2.6392E+001
 584.00  3.5946E+001
 584.50  3.1204E+001
 585.00  3.1320E+001
 585.50  3.0970E+001
 586.00  4.3130E+001
 586.50  4.0751E+001
 587.00  4.5229E+001
 587.50  3.5120E+001
 588.00  3.3761E+001
 588.50  4.4273E+001
 589.00  2.3959E+001
 589.50  3.5237E+001
 590.00  4.9289E+001
 590.50  3.9185E+001
 591.00  4.1105E+001
 591.50  4.9775E+001
 592.00  7.2041E+001
 592.50  6.8301E+001
 593.00  6.4068E+001
 593.50  6.3286E+001
 594.00  6.1235E+001
 594.50  5.9449E+001
 595.00  5.6371E+001
 595.50  6.3578E+001
 596.00  8.1853E+001
 596.50  6.8640E+001
 597.00  7.5372E+001
 597.50  8.7213E+001
 598.00  8.0115E+001
 598.50  6.5474E+001
 599.00  7.4145E+001
 599.50  6.9877E+001
 600.00  6.9625E+001
 600.50  4.9582E+001
 601.00  5.8571E+001
 601.50  7.6369E+001
 602.00  4.4611E+001
 602.50  6.0080E+001
 603.00  3.9441E+001
 603.50  5.7400E+001
 604.00  6.0388E+001
 604.50  6.9436E+001
 605.00  7.4317E+001
 605.50  7.9916E+001
 606.00  8.2753E+001
 606.50  7.3755E+001
 607.00  7.8053E+001
 607.50  8.7442E+001
 608.00  8.9711E+001
 608.50  9.2218E+001
 609.00  7.6138E+001
 609.50  7.8587E+001
 610.00  7.9035E+001
 610.50  8.0294E+001
 611.00  8.2427E+001
 611.50  9.5153E+001
 612.00  1.0547E+002
 612.50  9.5275E+001
 613.00  8.8897E+001
 613.50  1.0380E+002
 614.00  1.1347E+002
 614.50  9.8554E+001
 615.00  1.0338E+002
 615.50  1.0984E+002
 616.00  1.0802E+002
 616.50  1.0354E+002
 617.00  1.1853E+002
 617.50  9.4648E+001
 618.00  9.6578E+001
 618.50  9.3388E+001
 619.00  9.1687E+001
 619.50  1.0216E+002
 620.00  1.0232E+002
 620.50  1.1003E+002
 621.00  1.0576E+002
 621.50  1.0130E+002
 622.00  9.1479E+001
 622.50  1.0741E+002
 623.00  1.0702E+002
 623.50  1.0461E+002
 624.00  1.1232E+002
 624.50  1.0075E+002
 625.00  1.0008E+002
 625.50  9.3644E+001
 626.00  1.0264E+002
 626.50  9.4133E+001
 627.00  8.9421E+001
 627.50  9.2757E+001
 628.00  9.0407E+001
 628.50  9.6427E+001
 629.00  9.0929E+001
 629.50  1.0517E+002
 630.00  1.1320E+002
 630.50  1.1241E+002
 631.00  1.2184E+002
 631.50  1.2934E+002
 632.00  1.1962E+002
 632.50  1.1274E+002
 633.00  1.1100E+002
 633.50  1.0585E+002
 634.00  1.0450E+002
 634.50  1.0318E+002
 635.00  9.8294E+001
 635.50  1.0890E+002
 636.00  1.0986E+002
 636.50  1.0481E+002
 637.00  9.3522E+001
 637.50  1.0596E+002
 638.00  1.1196E+002
 638.50  1.0527E+002
 639.00  1.0790E+002
 639.50  1.2376E+002
 640.00  1.4328E+002
 640.50  1.4095E+002
 641.00  1.3176E+002
 641.50  1.2124E+002
 642.00  1.1452E+002
 642.50  1.3133E+002
 643.00  1.3700E+002
 643.50  1.5806E+002
 644.00  1.4133E+002
 644.50  1.2814E+002
 645.00  1.2977E+002
 645.50  1.2093E+002
 646.00  1.1737E+002
 646.50  1.0776E+002
 647.00  1.2763E+002
 647.50  1.3991E+002
 648.00  1.4480E+002
 648.50  1.4485E+002
 649.00  1.3690E+002
 649.50  1.3999E+002
 650.00  1.4443E+002
 650.50  1.4661E+002
 651.00  1.5910E+002
 651.50  1.4833E+002
 652.00  1.3602E+002
 652.50  1.3633E+002
 653.00  1.4034E+002
 653.50  1.3419E+002
 654.00  1.2975E+002
 654.50  1.2179E+002
 655.00  1.2511E+002
 655.50  1.1715E+002
 656.00  1.2891E+002
 656.50  1.3204E+002
 657.00  1.2831E+002
 657.50  1.3362E+002
 658.00  1.3961E+002
 658.50  1.3478E+002
 659.00  1.2846E+002
 659.50  1.4254E+002
 660.00  1.3820E+002
 660.50  1.3454E+002
 661.00  1.3544E+002
 661.50  1.3200E+002
 662.00  1.3191E+002
 662.50  1.3189E+002
 663.00  1.3775E+002
 663.50  1.3622E+002
 664.00  1.4416E+002
 664.50  1.4572E+002
 665.00  1.4282E+002
 665.50  1.4452E+002
 666.00  1.3987E+002
 666.50  1.3881E+002
 667.00  1.3169E+002
 667.50  1.3531E+002
 668.00  1.2444E+002
 668.50  1.2901E+002
 669.00  1.2683E+002
 669.50  1.2692E+002
 670.00  1.1556E+002
 670.50  1.1884E+002
 671.00  1.2223E+002
 671.50  1.3571E+002
 672.00  1.3379E+002
 672.50  1.4028E+002
 673.00  1.6111E+002
 673.50  1.5988E+002
 674.00  1.4764E+002
 674.50  1.4151E+002
 675.00  1.5233E+002
 675.50  1.4495E+002
 676.00  1.5937E+002
 676.50  1.6096E+002
 677.00  1.6540E+002
 677.50  1.6595E+002
 678.00  1.6383E+002
 678.50  1.6276E+002
 679.00  1.6694E+002
 679.50  1.5264E+002
 680.00  1.5520E+002
 680.50  1.4827E+002
 681.00  1.4684E+002
 681.50  1.4843E+002
 682.00  1.5617E+002
 682.50  1.5336E+002
 683.00  1.2754E+002
 683.50  1.4899E+002
 684.00  1.5548E+002
 684.50  1.4750E+002
 685.00  1.6020E+002
 685.50  1.6598E+002
 686.00  1.5642E+002
 686.50  1.3872E+002
 687.00  1.6480E+002
 687.50  1.6775E+002
 688.00  1.7098E+002
 688.50  1.6091E+002
 689.00  1.6194E+002
 689.50  1.7822E+002
 690.00  1.8906E+002
 690.50  1.6672E+002
 691.00  1.5461E+002
 691.50  1.5685E+002
 692.00  1.6703E+002
 692.50  1.7624E+002
 693.00  1.7128E+002
 693.50  1.5726E+002
 694.00  1.5105E+002
 694.50  1.6518E+002
 695.00  1.6352E+002
 695.50  1.7408E+002
 696.00  1.9077E+002
 696.50  1.7491E+002
 697.00  1.7561E+002
 697.50  1.7238E+002
 698.00  1.6443E+002
 698.50  1.7857E+002
 699.00  1.7727E+002
 699.50  1.6474E+002
 700.00  1.6041E+002
 700.50  1.6494E+002
 701.00  1.5445E+002
 701.50  1.7229E+002
 702.00  1.6786E+002
 702.50  1.7155E+002
 703.00  1.7676E+002
 703.50  1.6838E+002
 704.00  1.4617E+002
 704.50  1.5489E+002
 705.00  1.5325E+002
 705.50  1.3984E+002
 706.00  1.3884E+002
 706.50  1.4856E+002
 707.00  1.5835E+002
 707.50  1.4215E+002
 708.00  1.5872E+002
 708.50  1.6384E+002
 709.00  1.5524E+002
 709.50  1.5658E+002
 710.00  1.6947E+002
 710.50  1.7220E+002
 711.00  1.5268E+002
 711.50  1.5339E+002
 712.00  1.5015E+002
 712.50  1.5723E+002
 713.00  1.4980E+002
 713.50  1.4490E+002
 714.00  1.4417E+002
 714.50  1.6560E+002
 715.00  1.5415E+002
 715.50  1.3366E+002
 716.00  1.4338E+002
 716.50  1.5386E+002
 717.00  1.6925E+002
 717.50  1.9124E+002
 718.00  1.7569E+002
 718.50  1.6727E+002
 719.00  1.8260E+002
 719.50  1.7597E+002
 720.00  1.7110E+002
 720.50  1.6633E+002
 721.00  1.7618E+002
 721.50  1.7028E+002
 722.00  1.5946E+002
 722.50  1.5220E+002
 723.00  1.5460E+002
 723.50  1.6323E+002
 724.00  1.5498E+002
 724.50  1.5785E+002
 725.00  1.5508E+002
 725.50  1.5034E+002
 726.00  1.7134E+002
 726.50  1.6794E+002
 727.00  1.7468E+002
 727.50  1.7631E+002
 728.00  1.5903E+002
 728.50  1.5422E+002
 729.00  1.4643E+002
 729.50  1.6666E+002
 730.00  1.5549E+002
 730.50  1.5836E+002
 731.00  1.6476E+002
 731.50  1.8325E+002
 732.00  1.7559E+002
 732.50  1.8975E+002
 733.00  2.0092E+002
 733.50  1.8438E+002
 734.00  1.9365E+002
 734.50  2.0548E+002
 735.00  1.8476E+002
 735.50  1.8805E+002
 736.00  1.9591E+002
 736.50  2.0825E+002
 737.00  1.9961E+002
 737.50  2.0179E+002
 738.00  1.9081E+002
 738.50  2.0185E+002
 739.00  1.9645E+002
 739.50  1.8805E+002
 740.00  1.7183E+002
 740.50  1.8611E+002
 741.00  1.7080E+002
 741.50  1.6402E+002
 742.00  1.5111E+002
 742.50  1.5809E+002
 743.00  1.5650E+002
 743.50  1.5698E+002
 744.00  1.7169E+002
 744.50  1.8403E+002
 745.00  1.7352E+002
 745.50  1.9244E+002
 746.00  1.9147E+002
 746.50  1.7947E+002
 747.00  1.9113E+002
 747.50  1.9975E+002
 748.00  1.8067E+002
 748.50  2.0242E+002
 749.00  1.9888E+002
 749.50  1.8585E+002
 750.00  1.6850E+002
 750.50  1.7724E+002
 751.00  1.5580E+002
 751.50  1.6093E+002
 752.00  1.6779E+002
 752.50  1.6985E+002
 753.00  1.7234E+002
 753.50  1.7148E+002
 754.00  1.8012E+002
 754.50  1.8256E+002
 755.00  1.7722E+002
 755.50  1.9661E+002
 756.00  1.8907E+002
 756.50  1.8619E+002
 757.00  1.8369E+002
 757.50  1.7278E+002
 758.00  1.7358E+002
 758.50  1.7496E+002
 759.00  1.7271E+002
 759.50  1.6639E+002
 760.00  1.6046E+002
 760.50  1.7245E+002
 761.00  1.7255E+002
 761.50  1.6495E+002
 762.00  1.6986E+002
 762.50  1.7820E+002
 763.00  1.8908E+002
 763.50  1.7561E+002
 764.00  1.8188E+002
 764.50  1.6042E+002
 765.00  1.6171E+002
 765.50  1.6687E+002
 766.00  1.6837E+002
 766.50  1.6603E+002
 767.00  1.6411E+002
 767.50  1.6266E+002
 768.00  1.6895E+002
 768.50  1.8676E+002
 769.00  1.7838E+002
 769.50  1.7668E+002
 770.00  1.6502E+002
 770.50  1.6573E+002
 771.00  1.6309E+002
 771.50  1.6460E+002
 772.00  1.6911E+002
 772.50  1.8265E+002
 773.00  1.7015E+002
 773.50  1.7372E+002
 774.00  1.8315E+002
 774.50  1.6521E+002
 775.00  1.5722E+002
 775.50  1.5458E+002
 776.00  1.6256E+002
 776.50  1.5607E+002
 777.00  1.5620E+002
 777.50  1.6090E+002
 778.00  1.4720E+002
 778.50  1.4264E+002
 779.00  1.6560E+002
 779.50  1.7128E+002
 780.00  1.6882E+002
 780.50  1.5616E+002
 781.00  1.7286E+002
 781.50  1.4625E+002
 782.00  1.5214E+002
 782.50  1.6481E+002
 783.00  1.6883E+002
 783.50  1.7466E+002
 784.00  1.7238E+002
 784.50  1.7957E+002
 785.00  1.8012E+002
 785.50  1.7549E+002
 786.00  1.7255E+002
 786.50  1.5824E+002
 787.00  1.5603E+002
 787.50  1.8001E+002
 788.00  1.7797E+002
 788.50  1.6902E+002
 789.00  1.7916E+002
 789.50  1.9468E+002
 790.00  1.6864E+002
 790.50  1.5341E+002
 791.00  1.6599E+002
 791.50  1.5208E+002
 792.00  1.5328E+002
 792.50  1.5124E+002
 793.00  1.5698E+002
 793.50  1.5404E+002
 794.00  1.6193E+002
 794.50  1.6217E+002
 795.00  1.6546E+002
 795.50  1.7620E+002
 796.00  1.7501E+002
 796.50  1.6771E+002
 797.00  1.6587E+002
 797.50  1.7537E+002
 798.00  1.7916E+002
 798.50  1.6858E+002
 799.00  1.7129E+002
 799.50  1.5411E+002
 800.00  1.5482E+002
 800.50  1.5993E+002
 801.00  1.6507E+002
 801.50  1.5633E+002
 802.00  1.4948E+002
 802.50  1.4300E+002
 803.00  1.4282E+002
 803.50  1.6724E+002
 804.00  1.7070E+002
 804.50  1.6590E+002
 805.00  1.5960E+002
 805.50  1.6141E+002
 806.00  1.7869E+002
 806.50  1.6927E+002
 807.00  1.5641E+002
 807.50  1.6475E+002
 808.00  1.7083E+002
 808.50  1.6187E+002
 809.00  1.5898E+002
 809.50  1.6111E+002
 810.00  1.7068E+002
 810.50  1.6685E+002
 811.00  1.5530E+002
 811.50  1.5791E+002
 812.00  1.5520E+002
 812.50  1.7297E+002
 813.00  1.6881E+002
 813.50  1.5772E+002
 814.00  1.6180E+002
 814.50  1.5497E+002
 815.00  1.7231E+002
 815.50  1.5412E+002
 816.00  1.6744E+002
 816.50  1.6475E+002
 817.00  1.3840E+002
 817.50  1.6554E+002
 818.00  1.6542E+002
 818.50  1.4801E+002
 819.00  1.5133E+002
 819.50  1.8067E+002
 820.00  1.7264E+002
 820.50  1.6776E+002
 821.00  1.6655E+002
 821.50  1.5969E+002
 822.00  1.6127E+002
 822.50  1.6536E+002
 823.00  1.5000E+002
 823.50  1.5249E+002
 824.00  1.5866E+002
 824.50  1.6233E+002
 825.00  1.6927E+002
 825.50  1.7814E+002
 826.00  1.7831E+002
 826.50  1.8704E+002
 827.00  1.7764E+002
 827.50  1.5630E+002
 828.00  1.5724E+002
 828.50  1.5793E+002
 829.00  1.4201E+002
 829.50  1.4656E+002
 830.00  1.5391E+002
 830.50  1.5406E+002
 831.00  1.6421E+002
 831.50  1.7482E+002
 832.00  1.7393E+002
 832.50  1.7489E+002
 833.00  1.7484E+002
 833.50  1.6814E+002
 834.00  1.5209E+002
 834.50  1.5831E+002
 835.00  1.7290E+002
 835.50  1.6643E+002
 836.00  1.5422E+002
 836.50  1.6679E+002
 837.00  1.5365E+002
 837.50  1.5616E+002
 838.00  1.5831E+002
 838.50  1.5774E+002
 839.00  1.4768E+002
 839.50  1.4655E+002
 840.00  1.5879E+002
 840.50  1.5646E+002
 841.00  1.6037E+002
 841.50  1.6429E+002
 842.00  1.5900E+002
 842.50  1.5286E+002
 843.00  1.5153E+002
 843.50  1.5941E+002
 844.00  1.5689E+002
 844.50  1.4099E+002
 845.00  1.3277E+002
 845.50  1.3617E+002
 846.00  1.4120E+002
 846.50  1.5088E+002
 847.00  1.5784E+002
 847.50  1.5776E+002
 848.00  1.2844E+002
 848.50  1.3420E+002
 849.00  1.4310E+002
 849.50  1.6017E+002
 850.00  1.4890E+002
 850.50  1.5083E+002
 851.00  1.7414E+002
 851.50  1.5558E+002
 852.00  1.6308E+002
 852.50  1.5353E+002
 853.00  1.3694E+002
 853.50  1.4370E+002
 854.00  1.5637E+002
 854.50  1.3915E+002
 855.00  1.5019E+002
 855.50  1.6242E+002
 856.00  1.5456E+002
 856.50  1.5395E+002
 857.00  1.5043E+002
 857.50  1.5552E+002
 858.00  1.5786E+002
 858.50  1.4884E+002
 859.00  1.3671E+002
 859.50  1.4047E+002
 860.00  1.3732E+002
 860.50  1.4652E+002
 861.00  1.4065E+002
 861.50  1.6644E+002
 862.00  1.5913E+002
 862.50  1.5358E+002
 863.00  1.6604E+002
 863.50  1.4392E+002
 864.00  1.5278E+002
 864.50  1.3385E+002
 865.00  1.1684E+002
 865.50  1.2730E+002
 866.00  1.2636E+002
 866.50  1.2776E+002
 867.00  1.2775E+002
 867.50  1.2729E+002
 868.00  1.3456E+002
 868.50  1.3948E+002
 869.00  1.3365E+002
 869.50  1.2740E+002
 870.00  1.5193E+002
 870.50  1.4158E+002
 871.00  1.3034E+002
 871.50  1.3622E+002
 872.00  1.4004E+002
 872.50  1.3646E+002
 873.00  1.3302E+002
 873.50  1.2600E+002
 874.00  1.3831E+002
 874.50  1.2022E+002
 875.00  1.2869E+002
 875.50  1.3552E+002
 876.00  1.3248E+002
 876.50  1.3117E+002
 877.00  1.3429E+002
 877.50  1.1925E+002
 878.00  1.3215E+002
 878.50  1.2997E+002
 879.00  1.1625E+002
 879.50  1.3042E+002
 880.00  1.3727E+002
 880.50  1.4204E+002
 881.00  1.2295E+002
 881.50  1.3057E+002
 882.00  1.2626E+002
 882.50  1.3084E+002
 883.00  1.3650E+002
 883.50  1.2857E+002
 884.00  1.2091E+002
 884.50  1.1724E+002
 885.00  1.1870E+002
 885.50  1.2273E+002
 886.00  1.0865E+002
 886.50  1.2740E+002
 887.00  1.3157E+002
 887.50  1.4133E+002
 888.00  1.4309E+002
 888.50  1.3722E+002
 889.00  1.3094E+002
 889.50  1.2530E+002
 890.00  1.0770E+002
 890.50  1.0197E+002
 891.00  1.0942E+002
 891.50  1.1290E+002
 892.00  1.2318E+002
 892.50  1.1230E+002
 893.00  1.0952E+002
 893.50  1.0217E+002
 894.00  1.1182E+002
 894.50  1.3059E+002
 895.00  1.1658E+002
 895.50  1.1457E+002
 896.00  1.2007E+002
 896.50  1.2613E+002
 897.00  1.1384E+002
 897.50  1.1540E+002
 898.00  1.0818E+002
 898.50  1.1777E+002
 899.00  1.1887E+002
 899.50  1.2085E+002
