800,22.20684846358654
801,21.161935438046385
802,22.713423710662937
803,25.008318756266817
804,26.86562623480586
805,27.574351990732794
806,26.436502052370088
807,23.42808263128336
808,21.179100121644296
809,22.968561099596627
810,31.9934723225997
811,48.16384072879919
812,66.9406734363647
813,83.47497774283602
814,93.3907611244731
815,96.19603123558772
816,93.30279590787995
817,86.13906314977157
818,76.14984114573053
819,64.83313825559799
820,53.693963013905886
821,44.20432412919854
822,37.19923048334476
823,32.945691130840714
824,31.686715298135823
825,33.41531238291191
826,36.87249195340428
827,40.42126374768577
828,42.44463767296838
829,42.68262380488795
830,43.013232386798336
831,45.50247382904672
832,51.844358708263826
833,60.24889776663531
834,67.00610191117539
835,68.38898221301315
836,62.10054990663957
837,49.7928163891911
838,33.781793219699466
839,16.398492118367358
840,0.2539249658038898
841,-11.790896197697293
842,-16.857959172922165
843,-12.836251602491757
844,-1.2597609715949147
845,15.241525391228606
846,34.03462031335221
847,52.417536777278656
848,67.57828791988777
849,76.69888703167453
850,77.33634755595904
851,70.20168308813027
852,57.5749073748666
853,41.74603431335072
854,25.37207795050199
855,11.988052482183775
856,5.250972252420979
857,8.418851752611772
858,18.74570562073859
859,28.84454864057625
860,31.210395740894455
861,21.226261994664128
862,5.1381626182528635
863,-8.259887029366837
864,-10.423871447434976
865,-0.2247749941980146
866,14.927418112277337
867,27.1577237932961
868,30.197158108718213
869,27.174737256150365
870,24.62847757012605
871,29.03739552128809
872,42.25350771556805
873,58.401830893362785
874,70.87738192871166
875,73.85417782846889
876,68.51723573147956
877,59.77257290774287
878,52.55520675758544
879,50.16315481082893
880,52.016434725946965
881,56.9650642892384
882,63.79406141398067
883,70.38644413959355
884,73.9562306307962
885,71.70243917676089
886,62.4780881902725
887,50.69919620687688
888,41.94878188403618
889,41.628864000275826
890,51.05746145433568
891,67.50059326431347
892,88.05227856681813
893,109.67353661610196
894,128.73838678321408
895,141.4448485551402
896,144.09594153393482
897,137.07568543586876
898,126.05510009056434
899,117.05820544013113
900,114.84602153829928
901,116.30756854955507
902,115.29686674827462
903,105.74093651785097
904,87.01379834983254
905,67.50647284304432
906,56.45698070271828
907,61.71334273962475
908,79.70857986918872
909,101.2637131106294
910,117.18776358606829
911,122.32975251966582
912,119.87770123673818
913,114.05363116286935
914,108.82856382305454
915,105.51052084079583
916,103.79652393723154
917,103.35459493025883
918,103.32375573363788
919,101.48402835612433
920,95.40443490057078
921,82.98399756305116
922,66.59773863196733
923,51.85868048717202
924,44.45384559907234
925,47.85025652774857
926,58.823935922065175
927,72.88790651877753
928,85.67519114165225
929,94.8818127005643
930,99.93379419061876
931,100.31315869125137
932,95.74192936534382
933,86.79412945833155
934,74.22578229730243
935,58.920911290121694
936,44.338539924520774
937,36.39169176721771
938,41.088390463020914
939,61.482659733926084
940,88.72452337824052
941,110.97900526967169
942,116.80112935644411
943,104.671919660399
944,83.52240027610605
945,62.78859536995515
946,49.75952917928498
947,42.2002260114632
948,35.214710243008085
949,24.08200631868931
950,9.043138750626895
951,-4.013867882594241
952,-8.89198893682169
953,-1.5631997032378422
954,11.539524590754809
955,20.8472087806349
956,17.058877763865894
957,-0.27244350099044823
958,-20.93372999517942
959,-34.07895664064108
960,-31.431098300904523
961,-17.763129781979842
962,-1.9600258332575322
963,7.247238851608927
964,6.902689633796399
965,1.2313519284334689
966,-5.085748796302141
967,-8.243587020067025
968,-8.959137171251314
969,-9.415373627862209
970,-11.727270718419277
971,-15.408802722844484
972,-16.69894387334716
973,-11.62566835531743
974,2.1290496917863493
975,18.269236173546233
976,27.69391703970996
977,21.551118283288815
978,-0.08313406032266357
979,-25.978813914232887
980,-44.192895160928856
981,-45.55835164317887
982,-35.06115716489967
983,-22.19428549204804
984,-16.24671035350275
985,-19.485405441939292
986,-25.64034441471449
987,-27.929500894751072
988,-21.45884847141224
989,-10.596360701375488
990,-2.5300111095175453
991,-4.231773189786509
992,-15.92562040608118
993,-30.023526193118414
994,-38.495463957313405
995,-35.49340707765441
996,-25.160328906563336
997,-14.49720277077904
998,-10.305001972219543
999,-13.961699788853366
1000,-20.96926947556676
1001,-26.52868426503119
1002,-26.92191736856421
1003,-22.948941977001596
1004,-16.596731261553032
1005,-9.853258374669167
1006,-4.722496450900508
1007,-3.2484186077590493
1008,-7.482997946571231
1009,-18.947207553341286
1010,-33.675020499603306
1011,-44.45740984328222
1012,-44.083348629535976
1013,-31.139809891618825
1014,-15.6187666517244
1015,-8.848191921840225
1016,-20.260058704593575
1017,-44.97333999409602
1018,-71.58500877679307
1019,-88.75303803230508
1020,-90.45840073426916
1021,-78.65406985118352
1022,-55.94301834724229
1023,-25.694219183176756
1024,4.643354682911195
1025,26.253730294706656
1026,30.635934696857476
1027,18.051994934144204
1028,-1.5860619493623744
1029,-17.863208911121546
1030,-23.18241891095022
1031,-20.384664911843174
1032,-14.72091988081138
1033,-11.22215678968496
1034,-11.521348615952775
1035,-14.588468343563363
1036,-19.320488963751814
1037,-23.7513834758538
1038,-23.801124888116647
1039,-15.065686218510564
1040,5.757959504458086
1041,31.972839240946087
1042,51.56697993895796
1043,52.61640853355311
1044,33.72315194602834
1045,10.569237083137523
1046,0.4186908362707982
1047,16.29354008068276
1048,48.06581167467175
1049,77.73853245880491
1050,87.87772925513127
1051,75.50742886636908
1052,52.8046580751452
1053,32.67444364320181
1054,24.469812310605448
1055,26.023790794977685
1056,32.8424057907132
1057,40.721683968197794
1058,49.03365197304811
1059,59.470336425320966
1060,73.74276391875901
1061,90.53496102001918
1062,102.7839542679003
1063,102.7747701725857
1064,84.76943521488283
1065,55.24997584546418
1066,25.36841848410677
1067,6.050789518938473
1068,1.572115305688385
1069,8.806422166941957
1070,24.23273639137824
1071,43.861084233042675
1072,62.13249191058458
1073,73.16698560654277
1074,71.78859146657942
1075,60.80733559876262
1076,48.070244072827336
1077,41.46134291944236
1078,44.408658129488686
1079,52.55821565332462
1080,60.762041400067574
1081,64.33516123687241
1082,61.06460098821208
1083,49.54838643516359
1084,28.64354331468803
1085,2.4550973189234355
1086,-19.995925905516742
1087,-29.507500758261813
1088,-22.329601685879425
1089,-8.782203182578087
1090,-1.427279790911598
1091,-10.846806102459595
1092,-31.759756758534422
1093,-51.28910645086853
1094,-56.75782992229506
1095,-44.98590196744408
1096,-24.92429743341563
1097,-6.311991220458367
1098,3.5620417173431633
1099,6.076826371404422
1100,4.529387677962404
1101,2.0837505174222315
1102,0.4149397136625339
1103,0.2709800334068859
1104,2.3568961855371526
1105,5.813712820446199
1106,7.260454529387971
1107,3.08714584381687
1108,-8.95418876525764
1109,-25.053524887913227
1110,-39.718838175963356
1111,-47.729104343591644
1112,-47.77629916799651
1113,-41.45439849002105
1114,-30.44037821478105
1115,-17.59421431230021
1116,-7.969882818129008
1117,-6.863359833972936
1118,-18.090621528311203
1119,-37.916644137009825
1120,-60.209403963932346
1121,-78.95787738156014
1122,-90.23204083159362
1123,-91.78987082555523
1124,-81.47034394539514
1125,-61.203436844083626
1126,-41.06512624620882
1127,-32.10038894857371
1128,-42.646201820778515
1129,-66.67854180580434
1130,-93.42938592060636
1131,-112.5397112566825
1132,-120.529494980653
1133,-119.55771433483824
1134,-111.95634663782039
1135,-100.6583692850163
1136,-89.76875974923678
1137,-83.52949558125329
1138,-84.76455441034796
1139,-89.18591394486884
1140,-90.27455197278323
1141,-82.07444636222135
1142,-66.96357506202821
1143,-53.66991610228615
1144,-51.012447594875994
1145,-61.434147733993996
1146,-76.18399479668733
1147,-85.3739671433841
1148,-81.91004321841046
1149,-70.84620155052289
1150,-60.521420753408165
1151,-58.48967952622115
1152,-63.02395665406675
1153,-66.35223100853182
1154,-60.74248154817724
1155,-46.049687319035
1156,-33.18082745511492
1157,-33.9158811788875
1158,-54.809827801784195
1159,-84.55964672467508
1160,-108.0583174383537
1161,-111.9748195240254
1162,-98.31713265376766
1163,-76.91323659101454
1164,-57.540111191020515
1165,-46.38673640133038
1166,-45.64009226223152
1167,-57.26215890722324
1168,-79.41491656346807
1169,-100.87534555223738
1170,-108.98842628936654
1171,-94.05213928569083
1172,-63.639465147494775
1173,-31.58838457694401
1174,-11.103878372518011
1175,-5.215927429441763
1176,-8.873512740108708
1177,-16.820615394506603
1178,-25.14421658063202
1179,-32.16529758491106
1180,-36.417839792602535
1181,-36.92082468821718
1182,-34.48323385590356
1183,-30.324048979868166
1184,-25.66525184476359
1185,-21.73682433606973
1186,-19.769748440505282
1187,-20.90400624639642
1188,-23.796579944059886
1189,-24.484451826191616
1190,-18.8896042882252
1191,-5.83701982871753
1192,9.524318950300767
1193,21.216429342945958
1194,24.739328539134476
1195,22.623033624224263
1196,19.481561578661967
1197,19.42192927763608
1198,20.91915349073497
1199,18.955250881606844
1200,8.634238007620297
1201,-8.796868680460648
1202,-24.566052838815267
1203,-29.445298230877597
1204,-18.784588727667142
1205,0.8440916918962102
1206,21.17175894068623
1207,35.048428823052745
1208,41.116117034523995
1209,39.88983916150028
1210,32.097610680958496
1211,21.003446960160545
1212,11.50636325636333
1213,8.408374716533217
1214,12.086496377065487
1215,17.468743163507497
1216,19.152129890278957
1217,14.936671260414187
1218,10.2153818652896
1219,11.488276184357346
1220,22.76336858490049
1221,36.079673321768496
1222,39.8942045371341
1223,24.17397626024558
1224,-5.622997592815409
1225,-35.008703219372364
1226,-49.80212693037811
1227,-47.21125515065978
1228,-36.695074419127195
1229,-28.281571389006785
1230,-26.964732828057095
1231,-27.776545618773525
1232,-24.577996758605877
1233,-13.704073360157054
1234,-0.8497626513926662
1235,6.071948024172343
1236,0.7660712072756724
1237,-10.942380677280198
1238,-17.73339532081627
1239,-9.02196053094849
1240,13.313935768227566
1241,37.22730553597012
1242,50.54216061472016
1243,49.976512729936076
1244,44.99737348993858
1245,46.04575438575284
1246,58.66466679095447
1247,75.80312196152863
1248,88.42113103571774
1249,89.5657050338923
1250,82.23085485840693
1251,72.37359129347806
1252,65.40092500505307
1253,61.68586654068622
1254,58.92442632942402
1255,54.89261468169025
1256,49.54944178917776
1257,44.840917724736755
1258,42.772052442282074
1259,44.32785577669256
1260,48.931337443715165
1261,55.86650703987925
1262,63.20437404241511
1263,65.82494780916477
1264,58.083237578514854
1265,36.90925246932147
1266,11.249001480845436
1267,-6.450506507320824
1268,-5.449262735299271
1269,10.596741437013407
1270,30.82951452989346
1271,44.85906494374285
1272,50.989400959053455
1273,54.66353073636583
1274,61.41346231623356
1275,71.38220361919684
1276,77.59776244575642
1277,72.62614647635382
1278,54.221363271355585
1279,31.272420271038754
1280,14.110324795584347
1281,10.08908404507656
1282,15.962705099496816
1283,26.124194918737885
1284,35.66656034260268
1285,43.87880809082981
1286,51.613944763102154
1287,59.48297683907276
1288,65.6469106783934
1289,66.7977525207416
1290,59.89650848585734
1291,47.48718457358518
1292,37.249786663914165
1293,36.93432051702894
1294,48.07779177336215
1295,63.48920595364598
1296,75.33856845898572
1297,79.47188457091033
1298,79.70715945145184
1299,80.90039814322245
1300,85.99360556947704
1301,91.40678653421855
1302,92.18694572226468
1303,84.7640876993537
1304,73.03621691223452
1305,63.40333768876462
1306,61.4994542380191
1307,66.37957065040246
1308,73.72969089775052
1309,79.45981883346121
1310,83.06295819260868
1311,86.74011259206873
1312,92.6782855306601
1313,100.81148038926858
1314,108.59670043098231
1315,113.38494880125745
1316,113.5592285280427
1317,109.15454252194559
1318,100.34789357638329
1319,88.67328436774915
1320,78.75871745556833
1321,75.67519528268622
1322,81.95672017542074
1323,91.54729434375895
1324,96.57391988152722
1325,91.58659876659021
1326,83.26633286103424
1327,82.07912391136688
1328,96.30297354871891
1329,117.96788328904495
1330,131.8098545333396
1331,124.26288856784049
1332,101.30098656426162
1333,81.19614957999966
1334,81.34337855837111
1335,99.80167432884537
1336,117.92403760726938
1337,117.02146899611489
1338,94.5779689847277
1339,67.03353794956547
1340,51.75917615445633
1341,56.04988375085759
1342,71.25266077811739
1343,87.30950716373445
1344,97.19042272364004
1345,100.332407162462
1346,97.00346007381086
1347,88.88558094055861
1348,81.73276913513473
1349,82.04402391980602
1350,93.91534444698846
1351,111.92072975953033
1352,128.28517879103765
1353,136.4476903661698
1354,136.38226320095964
1355,130.2378959031248
1356,120.25858697240437
1357,109.3593348008717
1358,100.74813767327487
1359,97.16499376737193
1360,96.64790115426513
1361,94.54985779875005
1362,86.61686155967163
1363,74.56391019025978
1364,64.4700013385027
1365,62.25113254750431
1366,68.62430125584706
1367,79.52050479797072
1368,90.72374040453542
1369,98.99300520281031
1370,102.21129621705768
1371,98.36761036891585
1372,87.66494447779132
1373,73.4552952612612
1374,59.33965933546915
1375,49.4360332155311
1376,48.75641331594579
1377,62.379795951014785
1378,89.30917733524984
1379,115.42755358379964
1380,124.91792071287546
1381,109.93227464019219
1382,83.74661118538825
1383,63.10792607047733
1384,59.9052149202862
1385,70.2774732629041
1386,87.17769653013693
1387,103.39488005796557
1388,111.09301908699854
1389,102.27310876294814
1390,73.03514413709854
1391,39.0051201667693
1392,21.618031715804136
1393,37.19387355505569
1394,72.8306403628585
1395,105.26932672553357
1396,114.47592713787708
1397,102.49043600366349
1398,80.53384763614213
1399,59.194156258557996
1400,43.59235600464763
1401,36.21844091917228
1402,39.07540495842477
1403,49.596241990757335
1404,62.698945797126726
1405,73.39251007159965
1406,78.16892842191282
1407,74.44519437000417
1408,60.26030135256133
1409,41.711242721577946
1410,30.58901174489256
1411,37.801601606761324
1412,58.656005408415695
1413,76.18421616863179
1414,74.03222682429623
1415,53.110030230983284
1416,29.301619163536998
1417,18.448986316657283
1418,24.648124305474084
1419,40.84602566615922
1420,59.62768285650327
1421,75.48308825652657
1422,84.87823416908122
1423,84.55411282046043
1424,76.5427163610102
1425,68.74503686574099
1426,69.1890663349568
1427,80.18879669487887
1428,97.28421979826544
1429,115.6903274250526
1430,133.0931112829967
1431,150.27256300829595
1432,168.13667416626322
1433,184.75543625195314
1434,194.46484069081907
1435,191.47287883938225
1436,175.96554198588
1437,156.32882135094223
1438,141.4667080882491
1439,136.3291932852162
1440,140.25026796366274
1441,152.0949230805054
1442,168.3061495284228
1443,181.81693813656966
1444,185.3962796712567
1445,178.0961648366465
1446,168.27758427546632
1447,164.9365285697013
1448,170.5819882413125
1449,178.01595375294528
1450,179.32041550864778
1451,170.8423638546028
1452,155.30778907983222
1453,136.00168141694394
1454,117.868031042859
1455,108.32182807954905
1456,114.82106259477769
1457,136.54572460284453
1458,160.58280406533413
1459,173.22529089187174
1460,169.36717494087588
1461,156.17344602032426
1462,141.67209388850642
1463,130.08210825481
1464,120.36347878047945
1465,111.11319507939425
1466,101.91824671885115
1467,93.67662322034721
1468,87.35931406036616
1469,83.38430867117313
1470,81.45759644160262
1471,81.19316671786692
1472,80.76600880434762
1473,76.62011196441472
1474,65.30546542122738
1475,49.34005835854896
1476,37.95587992156743
1477,40.317919217716735
1478,54.82616531750318
1479,68.60760725533055
1480,68.7782340303329
1481,53.94803460721687
1482,33.83999791709175
1483,18.318112858326458
1484,11.174368297381989
1485,10.827753069676874
1486,15.42325598043135
1487,21.773865805530477
1488,25.611571292386543
1489,23.092361160801374
1490,16.623224103841494
1491,13.149148788703314
1492,18.905123857599392
1493,30.477137928629418
1494,38.193179596666596
1495,33.24923743425097
1496,16.58129999247012
1497,-5.281644198134018
1498,-25.66860662668205
1499,-37.32759880104004
1500,-32.71263224692575
1501,-6.830718507000711
1502,26.99713086005977
1503,47.46190428045429
1504,38.301590166198366
1505,13.961176916034674
1506,0.35065291636146867
1507,16.094006542165516
1508,42.85222615795192
1509,50.61430011867196
1510,19.268216770689833
1511,-29.521035547306383
1512,-63.07746850333842
1513,-59.43209377119274
1514,-33.947923029471895
1515,-10.110967960625203
1516,-3.1452402500035532
1517,-4.5947515848829426
1518,-1.8065136535105921
1519,12.08046185587773
1520,30.347163256024032
1521,44.3555788616286
1522,48.26669699032209
1523,41.61950596366296
1524,24.6209941081097
1525,1.1571497560235002
1526,-19.154038753352324
1527,-26.3855830728844
1528,-18.245494846551082
1529,-2.1167857084474235
1530,13.997532718228285
1531,22.291448822182247
1532,15.171951005035226
1533,-14.047972317660424
1534,-56.99133271539813
1535,-92.91214174170364
1536,-102.52041093310254
1537,-88.32415180809858
1538,-67.04337586613474
1539,-53.92509458656241
1540,-49.26231942760933
1541,-45.71506182532994
1542,-37.33733319256771
1543,-27.54314491790865
1544,-23.418508364627996
1545,-29.908434869639677
1546,-41.69693574244229
1547,-50.42302226406173
1548,-50.54970568597673
1549,-46.52299722907719
1550,-44.983908082575
1551,-48.765449402945706
1552,-50.75263231285135
1553,-42.287467900066076
1554,-22.891967216394733
1555,-8.017141276589427
1556,-14.663001057271686
1557,-44.78855749583363
1558,-78.49882148936013
1559,-94.69180389352186
1560,-86.7755155214918
1561,-63.895967142838344
1562,-35.959169482419384
1563,-12.210133219293311
1564,-1.3708689855920966
1565,-10.826387365427763
1566,-34.239698893771674
1567,-57.162814055333
1568,-66.9357432834513
1569,-64.07149695897442
1570,-54.67708540912372
1571,-44.51151890638084
1572,-37.55280766735268
1573,-37.25596185163613
1574,-45.25299156069195
1575,-57.21590683670183
1576,-67.6147176614304
1577,-72.762433955083
1578,-73.130065575162
1579,-69.7806223153184
1580,-65.00211390420463
1581,-63.01155000431754
1582,-68.01794021084515
1583,-79.33229405051497
1584,-90.85462098042808
1585,-96.43593038689505
1586,-93.3682315842816
1587,-81.59253381382769
1588,-61.92584624248957
1589,-42.43917796176356
1590,-35.03753798650996
1591,-48.2359352537751
1592,-70.95737862162332
1593,-85.20687686794372
1594,-78.82643868926607
1595,-61.082072699586206
1596,-46.127787429167256
1597,-41.81059132335122
1598,-41.01649274137435
1599,-34.577499955153144
1600,-20.244621148111946
1601,-6.58786441396569
1602,-2.876237755523107
1603,-12.13274908348285
1604,-30.89240621523095
1605,-55.135216873622085
1606,-77.69618868578709
1607,-89.242329181905
1608,-82.03664579399447
1609,-60.38014585469227
1610,-33.92083659604759
1611,-11.764725148286743
1612,-0.42481853859953844
1613,-5.703123689908352
1614,-27.529647419648427
1615,-50.00139643853163
1616,-54.71437734932351
1617,-35.89059664560409
1618,-9.04106071053684
1619,8.736224184368439
1620,12.725251880494397
1621,11.471016333355692
1622,13.489511613840477
1623,18.793731909457165
1624,21.639671525576887
1625,17.272324886680508
1626,8.414686537613306
1627,0.9007511448317018
1628,-0.5314865023483435
1629,4.512968509516213
1630,15.35611121923921
1631,29.351936792267225
1632,39.35344052194705
1633,37.748617830771764
1634,24.89846427165412
1635,12.159975529193616
1636,11.04414742093195
1637,21.383975898632343
1638,33.193457049541394
1639,37.14558709766334
1640,32.25936240502506
1641,21.756779472967537
1642,9.236834943403665
1643,-0.1434743998979684
1644,-0.7701516300312505
1645,10.690800324316115
1646,31.73137868016329
1647,58.860580801496326
1648,86.02440420057064
1649,103.38484653918476
1650,101.47890562997418
1651,83.54557943769669
1652,63.86786608051989
1653,55.41176383131915
1654,56.750271118955425
1655,59.23538652958905
1656,56.1541088079548
1657,49.61243685866975
1658,44.13736974752101
1659,43.05190670277534
1660,46.82804711647168
1661,55.470790545718046
1662,66.77913671399801
1663,75.64608551247329
1664,77.08263700128646
1665,70.81579141086786
1666,60.089549143232944
1667,48.10491077329971
1668,37.19587705019421
1669,29.330448898550458
1670,25.89462741983607
1671,26.278413893644938
1672,29.439809779021743
1673,33.955816715772016
1674,37.7244365257684
1675,38.620671214276626
1676,35.63852297126232
1677,28.869994172702718
1678,18.891087381919533
1679,10.288805350878647
1680,9.768151021518861
1681,21.062127527065968
1682,34.891738193354286
1683,38.47398654015251
1684,25.203876282470446
1685,1.8854113318948293
1686,-22.93940420209583
1687,-41.67756601080919
1688,-47.827069585006484
1689,-36.5349102135915
1690,-19.973082982276537
1691,-20.59258277226263
1692,-53.20240425890779
1693,-94.80054191041063
1694,-111.00098998647354
1695,-85.73374253698285
1696,-45.67679340068116
1697,-22.874136203832677
1698,-25.01076435890309
1699,-30.90067106322931
1700,-20.047849297688572
1701,2.202708174630061
1702,14.762008809754207
1703,2.460060284157862
1704,-20.71012950390741
1705,-32.1795524330887
1706,-22.495200157587988
1707,-11.26506410584716
1708,-21.164135479208653
1709,-51.394405250585805
1710,-75.39086416313512
1711,-68.65350272892056
1712,-38.71231122758627
1713,-10.596279705028337
1714,-2.6603979720562165
1715,-5.3576556030684515
1716,-2.17404193471657
1717,11.215453935419646
1718,16.41984315016589
1719,-6.017862905912352
1720,-47.47565260518377
1721,-73.87751407562473
1722,-56.69543519947774
1723,-13.690403611930833
1724,17.34259330021223
1725,11.830568399870572
1726,-14.048465198997292
1727,-36.595494130053794
1728,-44.192504773262044
1729,-42.16748325355229
1730,-37.09541543949217
1731,-35.14628694196699
1732,-42.22108311284501
1733,-60.56078904365768
1734,-74.86738956426416
1735,-64.68786924153528
1736,-26.269212378022075
1737,9.78159698936497
1738,10.216575090682909
1739,-23.529261575720284
1740,-57.125896241884675
1741,-60.01931186891443
1742,-37.90749114565733
1743,-12.099416487383223
1744,1.2669299655335635
1745,1.1845663489439175
1746,-10.523488923772675
1747,-27.228217160379245
1748,-36.23959938846747
1749,-26.14361635414025
1750,-2.212248520699177
1751,20.7545239326746
1752,30.833721112230705
1753,27.51036341096369
1754,13.026471509923795
1755,-6.956933620470863
1756,-21.37483071912584
1757,-19.94719823295827
1758,-9.235014315595436
1759,-7.629256826059645
1760,-27.265903327470824
1761,-49.772931085738946
1762,-47.99231706825503
1763,-13.202037942599418
1764,28.78092992476695
1765,49.57761046979613
1766,41.61502793216005
1767,14.140206856538953
1768,-21.951827906077597
1769,-49.640051197097364
1770,-49.90943754903674
1771,-18.79196118422078
1772,16.405403986501824
1773,26.075684365046072
1774,10.809906667385349
1775,-2.3989020751751013
1776,8.310285485301847
1777,29.948497014653185
1778,37.152760497906456
1779,17.932104240557237
1780,-10.734443130156706
1781,-28.715852663972782
1782,-28.24509508633264
1783,-12.538140797112646
1784,12.899040130655976
1785,31.705477952048113
1786,23.73420325151983
1787,-14.849753055834299
1788,-53.60235972301007
1789,-59.52258516983511
1790,-31.693397481706143
1791,3.6082355916669258
1792,23.439346637516792
1793,27.301968581274195
1794,22.06713468782209
1795,13.22487856274347
1796,3.5892341535700325
1797,-4.234764248973079
1798,-6.4850820097199176
1799,1.4903158521756268
1800,21.14846466447989
