800,167.33499214877156
801,170.90125525287203
802,173.57684830215658
803,178.8549060365849
804,185.14756293205028
805,187.25995320354014
806,179.92621080826848
807,160.01046944876907
808,132.72086257595583
809,105.30852339215744
810,84.9525848541034
811,76.07517967588956
812,79.37644033191191
813,95.2934990597596
814,123.37848786307586
815,155.94453851440358
816,181.74178255796687
817,189.51735131245005
818,174.02737587373576
819,145.3559871175985
820,116.00231570238702
821,97.90849207165684
822,92.56964645678363
823,92.0899088795486
824,88.23640915466603
825,74.74227689232066
826,54.942641500636455
827,35.11363218814404
828,21.475377966190536
829,16.966007651344626
830,19.365649867754655
831,25.991433049477564
832,34.40048544279034
833,44.32793510845568
834,56.71690992396634
835,72.51653758575958
836,91.10494561139967
837,107.51926134173391
838,116.06161194301694
839,111.40112440900157
840,95.47292556301818
841,76.9131420599997
842,64.61490038849388
843,65.41932687265489
844,76.32254767417817
845,91.35668879423974
846,104.60987607537754
847,112.89423520337732
848,117.07489170909139
849,118.34697097026947
850,117.73559821332674
851,114.88789851511228
852,108.75799680463479
853,98.3010178647628
854,84.39208633389717
855,72.44032670762681
856,68.51986334033973
857,78.17382044682836
858,99.09432210384239
859,122.90749225164745
860,141.0824546955182
861,147.36033310724997
862,144.02825102660245
863,135.37633186274252
864,125.66169889565754
865,118.12147527753314
866,114.82178403411854
867,117.76674806605388
868,127.65649015018607
869,137.5911329408409
870,137.92279897108983
871,119.13661065397991
872,82.22469028373871
873,45.720160036961715
874,29.815141973762366
875,51.614758038922446
876,100.42913006298568
877,150.83937976334437
878,177.33862874531587
879,167.29999850316017
880,138.80461042110528
881,114.4105857743325
882,115.10504572994705
883,139.795111347913
884,171.08590358198217
885,191.20754328058138
886,188.91115118768357
887,174.8768479436776
888,164.38975408616443
889,172.11099005078722
890,198.66367617200012
891,230.73093268382945
892,254.4008797206161
893,259.37763731772156
894,252.1363254122225
895,244.01706384358658
896,246.14097235431382
897,261.2211705905738
898,281.0817781027954
899,296.8159143462599
900,301.0566986816657
901,296.0502503756652
902,287.73468860137837
903,282.0121324389029
904,280.9977008757887
905,280.5685128074838
906,276.01068703778583
907,263.56534227925295
908,247.26959715359226
909,235.00657019204664
910,234.64337983573205
911,249.02014443599182
912,270.57498225470044
913,290.4570114645612
914,300.64735014937105
915,301.9561163042963
916,300.53542783609373
917,302.6034025633271
918,309.23615821657404
919,308.51881243859316
920,286.51648278449284
921,231.24428672185786
922,157.25234163089226
923,98.28876480450162
924,88.52167344838381
925,145.9901846811008
926,239.9814155341228
927,330.6054829518471
928,379.7955037916254
929,380.8755948237467
930,353.5338727314156
931,318.2804541107089
932,291.3334554705161
933,273.7679932324627
934,263.3151837308087
935,257.6171432123483
936,252.40298783626895
937,241.58683367400408
938,219.0057967090852
939,182.05999283694473
940,142.48553786472075
941,115.60654751104994
942,116.1381374058401
943,143.0574230900038
944,178.78152001521994
945,204.94354354364623
946,207.65560894760347
947,193.0198314093068
948,172.70532602049025
949,158.10620778210068
950,152.4475916039264
951,149.6715923042193
952,143.2083246093116
953,128.67690315320215
954,112.19444247715728
955,103.04005702925315
956,110.21186116393255
957,133.3479691415523
958,160.84049512788624
959,180.40455319364446
960,181.99525731395806
961,166.90472136785684
962,139.9960591377403
963,106.17338430880955
964,71.5108104685205
965,43.528451105990825
966,29.844419611414196
967,35.33082927544456
968,50.61079328859887
969,61.677424740584684
970,54.85283661968606
971,28.32514181208535
972,-4.764546898803019
973,-30.312116833027176
974,-37.574455414787735
975,-33.337450173163234
976,-30.07698874282505
977,-39.98895886478749
978,-64.94824838714703
979,-93.92174526585222
980,-115.06033756548459
981,-119.32191346003128
982,-111.98936123370913
983,-102.89856928175868
984,-101.63342611126791
985,-108.73682034201738
986,-113.79264070733916
987,-105.71277605494834
988,-76.9921153478299
989,-37.608547665127844
990,-2.884962203030227
991,12.24775172432237
992,4.762704683922493
993,-14.561992877028388
994,-34.17323063207186
995,-44.25889837642717
996,-42.9898860279518
997,-30.814083628125445
998,-8.394381343019631
999,18.084330535708432
1000,36.43216158981886
1001,34.16322127346211
1002,3.9376189121740026
1003,-39.9365362981589
1004,-77.4681352923617
1005,-88.68306913699053
1006,-64.5812290314243
1007,-23.744506308908967
1008,10.961207562335403
1009,18.546020978050365
1010,-2.572957803184181
1011,-42.51562066103725
1012,-91.23785961455542
1013,-137.83456682330143
1014,-169.70363458845713
1015,-174.0349553540018
1016,-141.36342170784155
1017,-87.3779263829856
1018,-39.24936225870806
1019,-23.829622361738075
1020,-46.657599867419776
1021,-81.42718810094448
1022,-99.20728053852508
1023,-78.08677080862071
1024,-33.82255269315465
1025,5.266479871261254
1026,11.764432792089792
1027,-16.013588180372608
1028,-51.41847745424093
1029,-66.32912959731584
1030,-41.99943933832765
1031,5.6386984317741735
1032,52.63638865855137
1033,76.26773612279067
1034,72.74384543921042
1035,53.113821055150765
1036,28.825767249274577
1037,9.414788130261513
1038,-0.3320123645316926
1039,3.662469529623195
1040,24.26633740347461
1041,53.40669467245971
1042,77.1826445753577
1043,81.78829017294447
1044,64.26173434662451
1045,39.24007979706403
1046,22.986429042839518
1047,28.33188441904531
1048,49.333548075912404
1049,73.68252197743641
1050,89.34290789996885
1051,91.59280743083036
1052,83.37732196689649
1053,68.00355271320586
1054,49.58860068153081
1055,34.87356668896791
1056,31.13155135650959
1057,44.48965510762537
1058,67.5079781668137
1059,83.87762055817257
1060,77.25168210396987
1061,44.577262423170396
1062,8.087460930000816
1063,-7.149623167499158
1064,18.608109131040692
1065,72.08275661688094
1066,127.39841787069417
1067,159.27019126108826
1068,160.30017494314416
1069,142.9884668569175
1070,120.87616472597074
1071,103.56536605589099
1072,87.68316813277488
1073,67.19466802176066
1074,37.1349625655148
1075,4.646148382746105
1076,-15.49167813331951
1077,-8.520420816421392
1078,26.824016271204528
1079,68.212728837334
1080,90.91681235822216
1081,76.72336207709668
1082,42.18947300261789
1083,15.40123990738357
1084,23.163757326388804
1085,65.36411955548101
1086,116.68942064986732
1087,150.85675442254433
1088,151.88421444278356
1089,130.34789403459035
1090,101.04388627516528
1091,77.38728399335741
1092,61.59317976812599
1093,50.51766592700005
1094,41.00183454452235
1095,30.760777440713355
1096,18.611586179507867
1097,3.444352067212094
1098,-15.11383384904002
1099,-34.81388078285818
1100,-52.84069821013145
1101,-66.53619587060712
1102,-75.12728376941959
1103,-79.01387217866977
1104,-78.62287163897054
1105,-74.96619296100835
1106,-70.00774722711685
1107,-65.79844579281053
1108,-63.64320028836664
1109,-61.54692262038043
1110,-56.601524973331834
1111,-46.208919811128
1112,-32.19801987869323
1113,-19.68473820350846
1114,-13.864988097184323
1115,-19.41268315702837
1116,-40.02873726758662
1117,-79.30706460223155
1118,-137.75257962470823
1119,-200.1581970906882
1120,-246.33283204935105
1121,-257.39939984493685
1122,-236.31181611829197
1123,-203.76899680844508
1124,-180.91985815416047
1125,-177.26731669549554
1126,-179.15828927535222
1127,-170.18369304103908
1128,-139.30944544582053
1129,-103.96646425048311
1130,-90.98166752486759
1131,-125.12797364943799
1132,-196.8923013168096
1133,-268.6715695333296
1134,-302.17969762059147
1135,-280.9296052170048
1136,-230.93821227931403
1137,-183.14843908416515
1138,-162.17720622962406
1139,-160.8074346367357
1140,-161.8650455510451
1141,-149.57096054412978
1142,-129.01610151513887
1143,-121.17139069233053
1144,-147.17575063458025
1145,-206.67410423291767
1146,-261.5923747120469
1147,-270.0154856318786
1148,-205.4793608890177
1149,-108.53192471831244
1150,-37.87610169434811
1151,-46.4908167329595
1152,-119.56199509273756
1153,-198.14656237654162
1154,-223.35944453298725
1155,-179.67056785795285
1156,-114.70185899607168
1157,-81.0912449422267
1158,-111.4586530430388
1159,-170.13501099834502
1160,-206.89124686268224
1161,-178.71728904678093
1162,-104.89706631901936
1163,-36.48450780690291
1164,-23.24954299852834
1165,-70.28910174406155
1166,-132.73611425718082
1167,-163.12651111653213
1168,-138.2002232672021
1169,-94.48418202214089
1170,-77.58131906362178
1171,-122.20556644467797
1172,-199.26885659053187
1173,-256.54712230003497
1174,-245.3582967470993
1175,-173.48131348209608
1176,-93.48510643330155
1177,-58.78460990829808
1178,-90.61875859538304
1179,-156.5394875649672
1180,-218.98873227099466
1181,-247.8304285523118
1182,-240.44751263407852
1183,-200.55992112913736
1184,-133.6875910393992
1185,-60.81045975722918
1186,-10.869465066794874
1187,-11.66454514544239
1188,-59.55563856506342
1189,-117.6236842934286
1190,-147.43562169555844
1191,-132.24839053505093
1192,-102.5079309754201
1193,-94.87918358143907
1194,-134.66408932045124
1195,-193.13458956369868
1196,-225.56362608763993
1197,-192.19614107525013
1198,-108.52307711733192
1199,-24.334377213806874
1200,11.156015224994917
1201,-12.541843622964734
1202,-58.473897992682396
1203,-86.80509253341006
1204,-76.12837230992227
1205,-50.22968280375062
1206,-39.71096991446029
1207,-66.77217996089166
1208,-110.03825968239653
1209,-134.07215624007222
1210,-107.36681721799687
1211,-44.605190624439274
1212,9.631775106929126
1213,11.334131115811033
1214,-45.87507188589916
1215,-121.9847836153167
1216,-174.15895421975256
1217,-177.0845342778848
1218,-147.0534748009468
1219,-106.40072723386947
1220,-74.05324345645022
1221,-52.49497578451883
1222,-39.28887697104619
1223,-31.94990020730802
1224,-27.437999123991176
1225,-22.37312779234162
1226,-13.535240725239419
1227,-1.4742928783434763
1228,9.229760348844138
1229,13.806963111865116
1230,11.167359120230685
1231,7.580991636366889
1232,10.147903474513441
1233,23.74813699969127
1234,44.73173412664801
1235,67.45873631880931
1236,86.47918458724962
1237,97.89311948966497
1238,98.49058112936655
1239,85.65160915425258
1240,66.17624275582239
1241,54.59452066818085
1242,65.3464811670492
1243,98.97216206880512
1244,135.99160072949053
1245,155.4348340438828
1246,146.17189844452514
1247,122.44282990079591
1248,102.467663917967
1249,100.82643553630442
1250,114.64917933012293
1251,135.86592940690207
1252,156.38671940638415
1253,167.85158249969027
1254,161.74055138844233
1255,130.35365830388582
1256,81.36093500604511
1257,36.482412782854226
1258,17.738122449341972
1259,33.5380943467826
1260,71.34235834186984
1261,116.83094382592208
1262,157.38387971406155
1263,184.96119444443684
1264,192.2129159774231
1265,175.499071794864
1266,148.3496888992977
1267,129.26479381319768
1268,134.05441257824714
1269,155.5085707545768
1270,174.937293420071
1271,174.69060516962054
1272,155.9885301144459
1273,135.56109188138544
1274,130.27831361221251
1275,144.12021796296358
1276,164.00682710328692
1277,175.6981627157511
1278,171.4342459952477
1279,157.315097648323
1280,141.2407378925691
1281,129.44118645601156
1282,122.09646257650638
1283,118.08658500113597
1284,116.33157198565641
1285,116.11144129389322
1286,116.85621019720384
1287,117.93589547392185
1288,118.17051340882426
1289,116.04007979259222
1290,110.12460992129854
1291,100.66411859591062
1292,89.43862012178397
1293,78.35812830819486
1294,72.30265646783664
1295,80.32221741639478
1296,111.7668234720677
1297,168.01648645514797
1298,233.29121768757614
1299,289.5210279925377
1300,321.69592769404153
1301,325.1159266165487
1302,297.26103408457493
1303,239.69125892230113
1304,175.78660945325646
1305,136.25709349993303
1306,147.10271838346307
1307,193.8334909232908
1308,241.2694174368553
1309,256.17050373930033
1310,236.47675514317052
1311,203.57817645813338
1312,179.03477199072586
1313,171.38654554407367
1314,174.94350041768303
1315,183.3056394071773
1316,192.2929648040863
1317,201.22547839565232
1318,209.72318146462385
1319,217.10607478905877
1320,221.9041586421863
1321,222.5474327922184
1322,218.38589650221365
1323,211.91954852993877
1324,206.30838712775767
1325,204.0024100425053
1326,203.89161451539258
1327,203.75599728194175
1328,202.1855545718754
1329,203.70028210909732
1330,215.510175111609
1331,243.84522829149319
1332,283.86543585488835
1333,323.77079150198006
1334,352.0612884269831
1335,364.446919318194
1336,362.8876763579792
1337,349.68355122284265
1338,331.904535083464
1339,322.1906186047745
1340,333.2817919460176
1341,364.5280447608711
1342,394.1193661975176
1343,398.3957448987894
1344,367.34716900227795
1345,320.15362614049445
1346,279.7051034410106
1347,261.3815875266391
1348,258.52306451561344
1349,260.509520021782
1350,260.52093915481237
1351,266.75730652042876
1352,291.10860622062864
1353,340.7048218539421
1354,396.9859365156972
1355,432.8119327982804
1356,425.3627927914422
1357,383.1084980825908
1358,328.34902975709883
1359,282.29436839865593
1360,254.34449408958608
1361,247.17938641121873
1362,262.39902444426116
1363,287.9133867691562
1364,301.65245146651614
1365,282.6861961175091
1366,237.84459780427824
1367,199.5476331104055
1368,200.12527812133885
1369,241.23750842486334
1370,289.274299111592
1371,309.1756247754456
1372,290.42145951416205
1373,257.3217769298244
1374,236.74655012938274
1375,241.28575172521232
1376,258.42935383567783
1377,273.1873280857053
1378,276.899645607371
1379,274.6262770405119
1380,273.19719253333096
1381,276.7423617430504
1382,282.18175383655034
1383,285.2553374910203
1384,282.59308089463775
1385,273.81495174727934
1386,259.1309172611909
1387,239.5609441617271
1388,219.22499868808518
1389,203.0230465940349
1390,195.93505314869435
1391,203.3209831373024
1392,230.67080086200076
1393,279.044470142655
1394,324.541954317654
1395,334.37321624475044
1396,283.7682183019151
1397,202.50692238818738
1398,143.09928992456844
1399,150.375281854891
1400,206.51485864673305
1401,263.4379802923613
1402,277.9246063096234
1403,255.21469574293042
1404,227.42820716422102
1405,224.01509867390814
1406,240.9253279019158
1407,253.07885200866258
1408,237.35562768607633
1409,201.20561115866803
1410,173.67875818454377
1411,182.39502405650092
1412,225.0343636031066
1413,275.7567311897674
1414,309.1420807198883
1415,318.53036563596106
1416,313.6115389207298
1417,304.45555309833253
1418,297.4723602354825
1419,295.6519119426539
1420,301.6941593752854
1421,315.38905323498875
1422,333.51654377079467
1423,352.646580780387
1424,367.87911361137776
1425,372.67409116257295
1426,360.6714618852693
1427,334.4211737845653
1428,307.06317442068394
1429,292.20741091030686
1430,299.92382992792955
1431,335.8323777072237
1432,404.77300004244717
1433,493.15564228979565
1434,563.0502493688691
1435,575.6867657640596
1436,528.4951355260218
1437,468.67530227312636
1438,446.3372091929232
1439,478.06079904365833
1440,532.7560141557515
1441,576.0227964333353
1442,591.0810873557948
1443,586.790827979301
1444,574.0219589383978
1445,560.8944204475811
1446,551.5081523028875
1447,549.5830938835188
1448,555.1291841534749
1449,562.6163616631784
1450,566.1045645511604
1451,562.2037305457288
1452,551.3337969666463
1453,534.1947007268518
1454,510.9663783341857
1455,480.94876589311934
1456,443.54179910651146
1457,403.8254132773727
1458,375.299543310668
1459,371.83412371509803
1460,393.389088604923
1461,420.07437170180856
1462,430.7899063366367
1463,417.5156254514168
1464,390.4314616011252
1465,360.83734695561907
1466,332.21321330154933
1467,297.59899204427165
1468,249.6446142098066
1469,193.19001044678225
1470,148.51511102841687
1471,136.19984585450038
1472,154.7041444534134
1473,175.94793598412434
1474,171.2211492382521
1475,138.41371264209556
1476,105.3455542587235
1477,100.25660179002989
1478,121.0767825788771
1479,134.04602361115212
1480,105.71425151795484
1481,42.48139257771436
1482,-10.782627281649184
1483,-9.977882480530752
1484,43.82555221454277
1485,109.46760169313166
1486,146.34819050310034
1487,144.73724285286335
1488,119.82468261365102
1489,87.16043332176741
1490,57.7644181808937
1491,39.29656006439836
1492,38.456781517636045
1493,51.115004760305965
1494,66.11115168880315
1495,72.79514387857307
1496,66.9669025865187
1497,48.116348753383136
1498,17.32340300618307
1499,-11.302014339382367
1500,-17.109983276446656
1501,15.309415895450002
1502,63.08610257287364
1503,86.67999585097095
1504,56.24101452600371
1505,0.8790770978575893
1506,-28.285898227410144
1507,6.706006465004975
1508,76.8547088012183
1509,132.03012612124985
1510,134.1421754816347
1511,96.01077365805759
1512,43.83583714796623
1513,1.0872821732646116
1514,-18.394975317040007
1515,-2.8510196441548032
1516,46.79906460323582
1517,93.32519257165768
1518,93.11727914560288
1519,30.57523895027407
1520,-44.261013645649655
1521,-72.24556452721481
1522,-29.61649983041025
1523,39.514094060656134
1524,83.75013051659516
1525,77.06152266558456
1526,33.04818339621306
1527,-31.209974639610664
1528,-97.5040390237773
1529,-146.19109756906437
1530,-158.18623831620607
1531,-130.32654953095152
1532,-75.7681197010952
1533,-8.805037533516952
1534,49.97060804882676
1535,74.8207279099006
1536,43.415232703609945
1537,-24.03296712314659
1538,-79.55896132742782
1539,-81.14783986718066
1540,-42.56469289814959
1541,-6.0646107707689225
1542,-7.129684027053372
1543,-36.297003397459775
1544,-66.44365979772374
1545,-74.83274432570943
1546,-59.914348258216705
1547,-26.414563047785123
1548,16.929519680526937
1549,47.29180813236053
1550,38.75021034731435
1551,-17.109365797796272
1552,-82.95201258566158
1553,-114.23082245518708
1554,-91.78488799817023
1555,-45.85830195598828
1556,-12.07015721625794
1557,-8.828546809458203
1558,-29.520563905578456
1559,-65.52530181071415
1560,-107.5498539636701
1561,-145.57331393254572
1562,-170.04977541127482
1563,-179.98633221620003
1564,-181.27407828258038
1565,-179.84110766113008
1566,-179.90751451450524
1567,-184.69439311377937
1568,-196.7808378349382
1569,-214.35094315531023
1570,-233.72980365000876
1571,-250.11951398836027
1572,-253.4431689303001
1573,-232.05386332277521
1574,-182.97069209610163
1575,-131.52375026034315
1576,-108.75713290163367
1577,-127.48293517851744
1578,-159.44825231825962
1579,-171.11017961314246
1580,-150.84181241674014
1581,-121.45924614018259
1582,-108.01857624841796
1583,-113.44889825643804
1584,-116.29230772548726
1585,-95.5859002592806
1586,-56.80977150018043
1587,-25.792017125373604
1588,-25.76173284302604
1589,-51.629014388418
1590,-83.31795752007929
1591,-103.24965801588405
1592,-108.87021166916566
1593,-102.92971428476812
1594,-87.75626167514201
1595,-64.09494965635895
1596,-32.34587404416379
1597,3.262869350008259
1598,29.435184723042767
1599,31.70397628414321
1600,5.362148258876914
1601,-39.05639510679066
1602,-89.58774954243927
1603,-132.04101074910795
1604,-149.92127439520664
1605,-128.75863611242676
1606,-81.37719149159057
1607,-39.37703607854746
1608,-29.512265369998204
1609,-40.209974809340565
1610,-42.87325978248191
1611,-16.787215613647277
1612,23.47306243883395
1613,53.5924791867601
1614,59.30093951629351
1615,53.497348392216736
1616,53.49761086221588
1617,66.7516320611503
1618,84.05131721537145
1619,94.89957164703628
1620,96.97730077842789
1621,96.73341013632489
1622,100.25380535633485
1623,103.66539218730577
1624,96.35407649568515
1625,70.68176426995524
1626,40.04936162503509
1627,26.628774806720685
1628,45.522910196150406
1629,83.91167431425492
1630,122.16297382624361
1631,145.48671554610883
1632,150.24680644112414
1633,134.4991536363741
1634,102.98566441930234
1635,69.66424624425053
1636,48.6968067370417
1637,45.6222536995665
1638,58.72649511436066
1639,85.20643914924585
1640,114.94199416193624
1641,134.1070687046922
1642,132.45757152897204
1643,116.44441159011149
1644,97.34149805199559
1645,86.08174029176553
1646,92.69704790454307
1647,126.7703307081465
1648,180.75349874783933
1649,221.72046230108572
1650,216.98813188232816
1651,176.29441824776768
1652,146.28423240016673
1653,167.82648559366316
1654,222.19308933860157
1655,260.7259554063712
1656,248.7809958342841
1657,214.6171229304091
1658,203.72524927848826
1659,236.19028774282378
1660,272.01415147320404
1661,263.5237539098107
1662,205.26700878817974
1663,147.48683014414382
1664,140.54313231881315
1665,180.64682996355077
1666,223.57883804497578
1667,230.61207184996783
1668,206.68544699070117
1669,174.65287940967573
1670,152.72328538477814
1671,143.0495815343329
1672,144.3396848222019
1673,152.28051256286744
1674,157.17598242654094
1675,149.04601244428522
1676,124.40252101314945
1677,86.1134269013146
1678,38.38964925325672
1679,-5.024892405072023
1680,-25.30727816106264
1681,-10.86558771025193
1682,18.30009964891724
1683,33.661705020293084
1684,19.03314991528532
1685,-14.947643741897991
1686,-54.09975360898534
1687,-83.84425692032892
1688,-89.15123048164423
1689,-57.91875066468856
1690,-9.624893401931331
1691,17.161265818771426
1692,-6.516348040471712
1693,-61.6368095622347
1694,-114.6881928683888
1695,-142.6465716147177
1696,-146.9860189855226
1697,-132.82560768821168
1698,-110.21540994785937
1699,-95.04449750179265
1700,-101.20694159411869
1701,-117.27281297026639
1702,-116.37318187151686
1703,-80.97311802950571
1704,-38.88869066072584
1705,-31.252968461010823
1706,-75.41201960000762
1707,-136.0099117156351
1708,-171.63171190854337
1709,-169.8734867365274
1710,-150.18530220897082
1711,-132.36122378124855
1712,-123.90931634911067
1713,-125.6266442431006
1714,-136.7052712229015
1715,-150.09626047169877
1716,-157.21767459054354
1717,-156.3935755926832
1718,-158.8180248978806
1719,-176.08808332673289
1720,-200.02781109496573
1721,-204.5502678077337
1722,-168.9205124538821
1723,-115.3166034002279
1724,-84.48759838579281
1725,-101.8465545160634
1726,-145.57152825720186
1727,-185.0605754302851
1728,-200.84875120548713
1729,-189.1221100962921
1730,-148.6177059536658
1731,-94.87159196022913
1732,-54.64282062441089
1733,-47.408443774607804
1734,-56.615512553316876
1735,-55.03107741124586
1736,-32.13118810145352
1737,-11.79989367341841
1738,-21.164242467157237
1739,-65.38628210729075
1740,-128.81505949711027
1741,-193.7786208126472
1742,-234.47601149669936
1743,-221.5772762528868
1744,-144.037459039655
1745,-43.47260306430144
1746,29.65624922302959
1747,49.33105613534826
1748,20.4367767548556
1749,-47.516629061043204
1750,-119.02320067368419
1751,-143.7169766570987
1752,-91.9659947919481
1753,-13.754292059447835
1754,22.62709536471084
1755,-7.641867883528903
1756,-60.41521635050594
1757,-88.10398375870318
1758,-79.12720300063665
1759,-47.193906132710254
1760,-7.440124369068144
1761,20.86911192455227
1762,17.365773237010217
1763,-22.694169082089502
1764,-74.7817428161743
1765,-112.10797487554191
1766,-124.19989129112764
1767,-113.77551720828342
1768,-85.41087688057269
1769,-51.57099366350303
1770,-27.351890008305418
1771,-22.28558745566079
1772,-34.28910662942508
1773,-59.631467230376074
1774,-90.9286880298987
1775,-117.59778686371465
1776,-130.7047806255523
1777,-131.50668526085065
1778,-124.89451576041756
1779,-113.63428615410885
1780,-95.92200950447659
1781,-69.86369790041681
1782,-43.16936245080615
1783,-32.084013278143175
1784,-48.89765951213849
1785,-81.50930928335401
1786,-109.17796971679309
1787,-116.01864692548043
1788,-96.44734600406991
1789,-47.33307102240178
1790,14.15417498093484
1791,53.63239000503381
1792,45.97857309313076
1793,18.1937243390621
1794,14.230844893736503
1795,49.06493697161568
1796,82.08400385718414
1797,69.6410499114736
1798,17.224080578540452
1799,-32.28989760800869
1800,-44.241877018504965
