,"Scan 00842"
"400","12112.78"
"401","12097.22"
"402","12077.11"
"403","12055.25"
"404","12034.4"
"405","12017.07"
"406","12003.66"
"407","11993.53"
"408","11986.03"
"409","11980.48"
"410","11975.75"
"411","11970.42"
"412","11963.07"
"413","11952.48"
"414","11941.16"
"415","11935.11"
"416","11940.45"
"417","11963"
"418","12000.49"
"419","12040.71"
"420","12070.93"
"421","12078.59"
"422","12058.65"
"423","12018.1"
"424","11964.95"
"425","11907.18"
"426","11852.38"
"427","11807.5"
"428","11779.34"
"429","11774.65"
"430","11795.45"
"431","11831.04"
"432","11868.69"
"433","11895.76"
"434","11903.02"
"435","11892.93"
"436","11870.41"
"437","11840.37"
"438","11807.86"
"439","11778.79"
"440","11759.22"
"441","11755.23"
"442","11770.95"
"443","11800.45"
"444","11834.37"
"445","11863.44"
"446","11879.38"
"447","11880.37"
"448","11867.27"
"449","11840.96"
"450","11802.94"
"451","11760.13"
"452","11722.13"
"453","11698.45"
"454","11697.26"
"455","11713.61"
"456","11735.01"
"457","11748.99"
"458","11744.12"
"459","11721"
"460","11688.11"
"461","11654.06"
"462","11626.8"
"463","11606.08"
"464","11585.48"
"465","11558.5"
"466","11519.21"
"467","11470.96"
"468","11424.82"
"469","11392.04"
"470","11383.15"
"471","11395.9"
"472","11416.35"
"473","11430.21"
"474","11423.91"
"475","11398.05"
"476","11367.3"
"477","11346.87"
"478","11351.22"
"479","11379.18"
"480","11412.95"
"481","11434.02"
"482","11424.64"
"483","11384.78"
"484","11334.2"
"485","11293.61"
"486","11283.03"
"487","11304.35"
"488","11338.5"
"489","11365.32"
"490","11365.25"
"491","11334.15"
"492","11286.26"
"493","11236.8"
"494","11200.55"
"495","11180.38"
"496","11164.72"
"497","11141.24"
"498","11097.99"
"499","11034.7"
"500","10965.08"
"501","10903.62"
"502","10864.32"
"503","10848.16"
"504","10840.64"
"505","10826.49"
"506","10790.85"
"507","10730.09"
"508","10653.51"
"509","10571.07"
"510","10492.61"
"511","10425.65"
"512","10375.22"
"513","10346.15"
"514","10342.97"
"515","10362.54"
"516","10393.66"
"517","10424.84"
"518","10445.04"
"519","10451.65"
"520","10450.35"
"521","10447.12"
"522","10447.6"
"523","10451.19"
"524","10451.67"
"525","10442.66"
"526","10418.15"
"527","10377.93"
"528","10326.52"
"529","10268.58"
"530","10208.75"
"531","10152.33"
"532","10105.06"
"533","10072.66"
"534","10060.13"
"535","10064.47"
"536","10077.42"
"537","10090.71"
"538","10096.65"
"539","10093.03"
"540","10080.78"
"541","10060.82"
"542","10034.66"
"543","10008.39"
"544","9990.354"
"545","9988.836"
"546","10009.68"
"547","10042.52"
"548","10070.44"
"549","10076.57"
"550","10048.46"
"551","9997.375"
"552","9942.509"
"553","9902.985"
"554","9892.979"
"555","9905.304"
"556","9926.971"
"557","9945.051"
"558","9950.261"
"559","9945.862"
"560","9937.837"
"561","9932.134"
"562","9931.767"
"563","9931.744"
"564","9925.729"
"565","9907.444"
"566","9875.505"
"567","9839.021"
"568","9808.429"
"569","9794.014"
"570","9798.305"
"571","9810.854"
"572","9820.016"
"573","9814.408"
"574","9791.021"
"575","9757.711"
"576","9723.016"
"577","9695.271"
"578","9678.684"
"579","9673.343"
"580","9679.155"
"581","9695.843"
"582","9720.248"
"583","9747.041"
"584","9770.866"
"585","9786.727"
"586","9793.002"
"587","9789.982"
"588","9777.979"
"589","9757.649"
"590","9731.99"
"591","9704.964"
"592","9680.505"
"593","9662.025"
"594","9650.52"
"595","9646.27"
"596","9649.562"
"597","9659.095"
"598","9668.489"
"599","9670.369"
"600","9657.41"
"601","9627.434"
"602","9589.614"
"603","9554.622"
"604","9532.968"
"605","9528.366"
"606","9534.123"
"607","9542.679"
"608","9546.647"
"609","9542.431"
"610","9530.469"
"611","9511.397"
"612","9486.227"
"613","9461.29"
"614","9446.813"
"615","9453.077"
"616","9488.163"
"617","9542.218"
"618","9596.575"
"619","9632.582"
"620","9635.742"
"621","9612.635"
"622","9576.548"
"623","9540.713"
"624","9514.837"
"625","9497.407"
"626","9484.682"
"627","9472.947"
"628","9460.424"
"629","9449.232"
"630","9441.954"
"631","9441.064"
"632","9445.338"
"633","9448.782"
"634","9445.111"
"635","9428.594"
"636","9402.497"
"637","9377.505"
"638","9364.488"
"639","9372.549"
"640","9395.554"
"641","9419.512"
"642","9430.411"
"643","9417.748"
"644","9388.247"
"645","9353.951"
"646","9326.864"
"647","9315.488"
"648","9318.354"
"649","9332.231"
"650","9353.875"
"651","9378.743"
"652","9400.077"
"653","9410.927"
"654","9404.686"
"655","9382.479"
"656","9353.253"
"657","9326.283"
"658","9310.12"
"659","9305.93"
"660","9310.434"
"661","9320.301"
"662","9331.951"
"663","9340.391"
"664","9340.148"
"665","9325.776"
"666","9296.14"
"667","9262.871"
"668","9239.935"
"669","9241.096"
"670","9269.357"
"671","9310.041"
"672","9346.87"
"673","9364.231"
"674","9359.317"
"675","9341.227"
"676","9319.488"
"677","9302.855"
"678","9293.396"
"679","9289.709"
"680","9290.363"
"681","9294.466"
"682","9303.47"
"683","9319.454"
"684","9344.489"
"685","9377.224"
"686","9408.701"
"687","9428.938"
"688","9428.285"
"689","9406.845"
"690","9376.377"
"691","9349.298"
"692","9336.942"
"693","9338.508"
"694","9345.402"
"695","9348.927"
"696","9342.363"
"697","9329.301"
"698","9316.695"
"699","9311.474"
"700","9316.682"
"701","9325.569"
"702","9329.857"
"703","9321.513"
"704","9300.551"
"705","9277.313"
"706","9262.797"
"707","9266.967"
"708","9287.797"
"709","9315.368"
"710","9339.638"
"711","9352.418"
"712","9354.918"
"713","9351.352"
"714","9345.921"
"715","9340.976"
"716","9334.505"
"717","9323.869"
"718","9306.57"
"719","9283.957"
"720","9261.821"
"721","9246.184"
"722","9242.402"
"723","9249.427"
"724","9262.598"
"725","9277.228"
"726","9289.219"
"727","9296.905"
"728","9299.236"
"729","9295.193"
"730","9286.334"
"731","9278.933"
"732","9279.771"
"733","9295.159"
"734","9323.204"
"735","9354.884"
"736","9380.957"
"737","9393.583"
"738","9393.971"
"739","9386.947"
"740","9377.329"
"741","9369.515"
"742","9366.766"
"743","9372.142"
"744","9388.567"
"745","9414.312"
"746","9442.022"
"747","9464.027"
"748","9473.468"
"749","9471.136"
"750","9462.004"
"751","9451.092"
"752","9441.694"
"753","9430.852"
"754","9414.174"
"755","9387.402"
"756","9353.649"
"757","9327.333"
"758","9323.809"
"759","9356.631"
"760","9417.184"
"761","9481.822"
"762","9526.658"
"763","9534.063"
"764","9514.255"
"765","9485.204"
"766","9464.753"
"767","9461.258"
"768","9466.243"
"769","9469.514"
"770","9461.596"
"771","9443.455"
"772","9423.964"
"773","9412.184"
"774","9415.389"
"775","9432.176"
"776","9458.488"
"777","9490.275"
"778","9524.224"
"779","9558.372"
"780","9590.919"
"781","9620.044"
"782","9643.795"
"783","9660.104"
"784","9666.908"
"785","9663.044"
"786","9651.71"
"787","9637.416"
"788","9624.651"
"789","9616.084"
"790","9611.125"
"791","9608.847"
"792","9608.41"
"793","9610.13"
"794","9615.162"
"795","9624.67"
"796","9639.172"
"797","9656.368"
"798","9673.216"
"799","9686.684"
"800","9694.71"
"801","9696.747"
"802","9692.383"
"803","9681.541"
"804","9667.819"
"805","9657.051"
"806","9655.102"
"807","9664.969"
"808","9679.747"
"809","9690.397"
"810","9688.17"
"811","9674.485"
"812","9663.502"
"813","9670.18"
"814","9706.815"
"815","9764.958"
"816","9826.393"
"817","9872.883"
"818","9892.714"
"819","9890.703"
"820","9874.247"
"821","9850.653"
"822","9825.675"
"823","9803.628"
"824","9788.778"
"825","9784.528"
"826","9789.833"
"827","9802.188"
"828","9819.077"
"829","9836.698"
"830","9849.016"
"831","9849.782"
"832","9833.992"
"833","9810.282"
"834","9795.748"
"835","9807.599"
"836","9854.64"
"837","9918.58"
"838","9975.692"
"839","10002.91"
"840","9994.645"
"841","9964.378"
"842","9926.551"
"843","9894.167"
"844","9871.551"
"845","9859.796"
"846","9859.988"
"847","9873.225"
"848","9900.61"
"849","9943.261"
"850","10001.51"
"851","10066.8"
"852","10124.9"
"853","10161.51"
"854","10167.72"
"855","10151.75"
"856","10125.17"
"857","10099.31"
"858","10080.23"
"859","10068.58"
"860","10064.75"
"861","10068.84"
"862","10079.27"
"863","10093.96"
"864","10110.79"
"865","10127.07"
"866","10139.13"
"867","10143.24"
"868","10136.61"
"869","10124.71"
"870","10117.27"
"871","10124.07"
"872","10150.22"
"873","10189.79"
"874","10235.19"
"875","10278.9"
"876","10314.62"
"877","10336.97"
"878","10340.58"
"879","10323.62"
"880","10296.97"
"881","10274.35"
"882","10269.04"
"883","10283.11"
"884","10306.52"
"885","10328.63"
"886","10341.27"
"887","10349.15"
"888","10361.21"
"889","10386.24"
"890","10426.08"
"891","10472.38"
"892","10515.97"
"893","10548.63"
"894","10569.07"
"895","10579.09"
"896","10580.52"
"897","10575.8"
"898","10568.55"
"899","10562.52"
"900","10561.05"
"901","10563.3"
"902","10566"
"903","10565.81"
"904","10561.16"
"905","10554.81"
"906","10550.19"
"907","10550.45"
"908","10554.67"
"909","10558.9"
"910","10559.14"
"911","10553.09"
"912","10543.92"
"913","10535.84"
"914","10532.91"
"915","10536"
"916","10543.14"
"917","10552.26"
"918","10560.94"
"919","10565.4"
"920","10561.53"
"921","10545.57"
"922","10522.43"
"923","10506"
"924","10510.6"
"925","10546.84"
"926","10608.56"
"927","10684.93"
"928","10765.01"
"929","10834.63"
"930","10875.91"
"931","10870.73"
"932","10808.49"
"933","10716.93"
"934","10635.87"
"935","10604.4"
"936","10632.28"
"937","10691.7"
"938","10752.39"
"939","10788.17"
"940","10795.61"
"941","10779.05"
"942","10742.98"
"943","10696.74"
"944","10656.25"
"945","10637.9"
"946","10653.65"
"947","10689.56"
"948","10722.42"
"949","10729.35"
"950","10703.41"
"951","10659.87"
"952","10615.63"
"953","10585.81"
"954","10575.11"
"955","10584.41"
"956","10614.44"
"957","10658.75"
"958","10700.94"
"959","10723.92"
"960","10714.24"
"961","10679.59"
"962","10635.09"
"963","10595.76"
"964","10571.1"
"965","10563.29"
"966","10574"
"967","10603.18"
"968","10641.42"
"969","10676.21"
"970","10695.26"
"971","10693.75"
"972","10676.13"
"973","10647.43"
"974","10612.84"
"975","10578.26"
"976","10549.82"
"977","10533.42"
"978","10529.1"
"979","10530.26"
"980","10529.98"
"981","10523.65"
"982","10516.52"
"983","10516.49"
"984","10530.97"
"985","10556.52"
"986","10578.98"
"987","10583.76"
"988","10562.09"
"989","10526.3"
"990","10493.45"
"991","10479.98"
"992","10492.02"
"993","10526.98"
"994","10582"
"995","10652.11"
"996","10725.99"
"997","10791.14"
"998","10835.88"
"999","10858.86"
"1000","10865.92"
"1001","10863.01"
"1002","10855.55"
"1003","10847.6"
"1004","10843.06"
"1005","10845.82"
"1006","10858.41"
"1007","10874.26"
"1008","10883.06"
"1009","10874.61"
"1010","10845.72"
"1011","10803.3"
"1012","10755.03"
"1013","10708.88"
"1014","10674.28"
"1015","10661.21"
"1016","10679.17"
"1017","10723.88"
"1018","10774.79"
"1019","10810.46"
"1020","10815.56"
"1021","10800.91"
"1022","10784.21"
"1023","10782.49"
"1024","10799.65"
"1025","10827.37"
"1026","10856.86"
"1027","10880.88"
"1028","10897.01"
"1029","10903.78"
"1030","10900.26"
"1031","10892.27"
"1032","10890.37"
"1033","10905.21"
"1034","10940.31"
"1035","10983.01"
"1036","11018.38"
"1037","11033.17"
"1038","11028.48"
"1039","11012.65"
"1040","10994.06"
"1041","10979.57"
"1042","10973.57"
"1043","10980.26"
"1044","11001.59"
"1045","11027.25"
"1046","11042.64"
"1047","11033.79"
"1048","11003.52"
"1049","10973.09"
"1050","10964.71"
"1051","10992.14"
"1052","11039.36"
"1053","11083.77"
"1054","11104.15"
"1055","11098.47"
"1056","11078.65"
"1057","11056.9"
"1058","11043.21"
"1059","11042.62"
"1060","11059.53"
"1061","11096.69"
"1062","11144.36"
"1063","11187.13"
"1064","11209.79"
"1065","11208.41"
"1066","11194.23"
"1067","11179.55"
"1068","11174.3"
"1069","11178.46"
"1070","11189.36"
"1071","11204.24"
"1072","11218.32"
"1073","11225.23"
"1074","11218.55"
"1075","11196.52"
"1076","11168.16"
"1077","11144.06"
"1078","11133.65"
"1079","11137.43"
"1080","11151.83"
"1081","11173.21"
"1082","11196.51"
"1083","11214.82"
"1084","11221.08"
"1085","11211.85"
"1086","11197.36"
"1087","11191.16"
"1088","11205.3"
"1089","11231.84"
"1090","11248.76"
"1091","11233.82"
"1092","11182.82"
"1093","11126.22"
"1094","11098.48"
"1095","11126.02"
"1096","11188.74"
"1097","11249.77"
"1098","11273.51"
"1099","11253.73"
"1100","11213.16"
"1101","11175.72"
"1102","11156.93"
"1103","11149.79"
"1104","11143.56"
"1105","11129.16"
"1106","11110.47"
"1107","11097.69"
"1108","11100.79"
"1109","11120.03"
"1110","11143.47"
"1111","11158.39"
"1112","11156.63"
"1113","11145.53"
"1114","11135.72"
"1115","11136.79"
"1116","11147.4"
"1117","11159.78"
"1118","11166.2"
"1119","11163.67"
"1120","11156.32"
"1121","11148.82"
"1122","11144.94"
"1123","11144.79"
"1124","11147.55"
"1125","11152.62"
"1126","11161.49"
"1127","11177.05"
"1128","11202.14"
"1129","11233.86"
"1130","11260.19"
"1131","11268.29"
"1132","11249.77"
"1133","11214.76"
"1134","11178.21"
"1135","11153.87"
"1136","11140.81"
"1137","11128.33"
"1138","11105.72"
"1139","11073.03"
"1140","11047.24"
"1141","11046.87"
"1142","11081.92"
"1143","11128.48"
"1144","11154.24"
"1145","11130.63"
"1146","11070.94"
"1147","11014.47"
"1148","11000.36"
"1149","11038.87"
"1150","11098.8"
"1151","11145.76"
"1152","11156.17"
"1153","11143.94"
"1154","11131.12"
"1155","11136.98"
"1156","11155.71"
"1157","11168.1"
"1158","11155.44"
"1159","11118.55"
"1160","11081.77"
"1161","11070.81"
"1162","11098.91"
"1163","11144.98"
"1164","11182.12"
"1165","11188.46"
"1166","11176.61"
"1167","11173.53"
"1168","11204.65"
"1169","11264.37"
"1170","11318.41"
"1171","11331.54"
"1172","11292.07"
"1173","11235.68"
"1174","11203.71"
"1175","11226.4"
"1176","11281.92"
"1177","11333.26"
"1178","11346.27"
"1179","11321.37"
"1180","11281.49"
"1181","11249.7"
"1182","11236.73"
"1183","11236.38"
"1184","11241.23"
"1185","11245.79"
"1186","11250.35"
"1187","11256.25"
"1188","11264.58"
"1189","11274.72"
"1190","11285.35"
"1191","11295.28"
"1192","11305.69"
"1193","11319.85"
"1194","11341.08"
"1195","11370.51"
"1196","11405.49"
"1197","11442.93"
"1198","11477.83"
"1199","11497.79"
"1200","11488.7"
"1201","11440.42"
"1202","11376.53"
"1203","11337.51"
"1204","11362.05"
"1205","11443.79"
"1206","11531.45"
"1207","11572.04"
"1208","11543.47"
"1209","11484.24"
"1210","11439.89"
"1211","11443.41"
"1212","11476.86"
"1213","11509.41"
"1214","11513.79"
"1215","11494.14"
"1216","11470.86"
"1217","11463.71"
"1218","11474.74"
"1219","11488.53"
"1220","11489.02"
"1221","11471.02"
"1222","11449.73"
"1223","11442.61"
"1224","11461.59"
"1225","11498.25"
"1226","11539.46"
"1227","11573.18"
"1228","11595.56"
"1229","11606.48"
"1230","11606.03"
"1231","11597.76"
"1232","11588.1"
"1233","11583.59"
"1234","11589.14"
"1235","11607.19"
"1236","11639.98"
"1237","11684.59"
"1238","11723.3"
"1239","11735.78"
"1240","11707.99"
"1241","11660.61"
"1242","11626.27"
"1243","11634.42"
"1244","11678.61"
"1245","11729.9"
"1246","11759.72"
"1247","11760.83"
"1248","11749.39"
"1249","11742.69"
"1250","11750.2"
"1251","11766.42"
"1252","11784.11"
"1253","11797.87"
"1254","11808.67"
"1255","11818.83"
"1256","11829.82"
"1257","11837.61"
"1258","11836.01"
"1259","11819.7"
"1260","11794.21"
"1261","11772.51"
"1262","11767.4"
"1263","11782.21"
"1264","11809.47"
"1265","11841.18"
"1266","11871.67"
"1267","11899.73"
"1268","11924.67"
"1269","11944.99"
"1270","11956.55"
"1271","11954.65"
"1272","11936.55"
"1273","11910.4"
"1274","11888.26"
"1275","11881"
"1276","11887.51"
"1277","11899.61"
"1278","11909.27"
"1279","11913.46"
"1280","11913.87"
"1281","11912.38"
"1282","11910.22"
"1283","11907.7"
"1284","11905.02"
"1285","11902.46"
"1286","11900.45"
"1287","11899.44"
"1288","11898.8"
"1289","11893.64"
"1290","11878"
"1291","11848.56"
"1292","11819.11"
"1293","11810.27"
"1294","11840.13"
"1295","11897.99"
"1296","11955.11"
"1297","11983.65"
"1298","11980.37"
"1299","11965.41"
"1300","11959.6"
"1301","11969.3"
"1302","11980.2"
"1303","11976.47"
"1304","11952.56"
"1305","11925.08"
"1306","11913.55"
"1307","11930.22"
"1308","11963.23"
"1309","11995.72"
"1310","12014.02"
"1311","12020.69"
"1312","12023.5"
"1313","12029.51"
"1314","12039.82"
"1315","12052.75"
"1316","12066.48"
"1317","12078.16"
"1318","12084.21"
"1319","12081.19"
"1320","12068.74"
"1321","12049.63"
"1322","12026.75"
"1323","12003.09"
"1324","11981.75"
"1325","11965.86"
"1326","11957.08"
"1327","11954.2"
"1328","11955.66"
"1329","11960.35"
"1330","11968.38"
"1331","11980.07"
"1332","11994.68"
"1333","12007.03"
"1334","12010.81"
"1335","12001.34"
"1336","11983.38"
"1337","11965.12"
"1338","11953.88"
"1339","11949.61"
"1340","11948.52"
"1341","11946.8"
"1342","11940.5"
"1343","11925.6"
"1344","11898.63"
"1345","11867.1"
"1346","11848.45"
"1347","11859.8"
"1348","11896.64"
"1349","11928.64"
"1350","11924.38"
"1351","11879.34"
"1352","11831.05"
"1353","11820.57"
"1354","11864.19"
"1355","11927.47"
"1356","11969.76"
"1357","11963.48"
"1358","11916.05"
"1359","11840.75"
"1360","11753.7"
"1361","11681.16"
"1362","11651.62"
"1363","11682.26"
"1364","11738.18"
"1365","11769.46"
"1366","11737.5"
"1367","11671.48"
"1368","11625.66"
"1369","11645.43"
"1370","11706.5"
"1371","11752.04"
"1372","11731.3"
"1373","11658.05"
"1374","11583.55"
"1375","11556.01"
"1376","11575.63"
"1377","11608.34"
"1378","11620.96"
"1379","11609.44"
"1380","11594.92"
"1381","11598.61"
"1382","11622.66"
"1383","11649.44"
"1384","11660.83"
"1385","11654.57"
"1386","11647.95"
"1387","11659.17"
"1388","11689.31"
"1389","11714.48"
"1390","11709.06"
"1391","11668.29"
"1392","11623.25"
"1393","11608.4"
"1394","11636.5"
"1395","11676.84"
"1396","11693.6"
"1397","11670.47"
"1398","11636.54"
"1399","11627.33"
"1400","11660.43"
"1401","11705.15"
"1402","11722.81"
"1403","11691"
"1404","11637.65"
"1405","11600.39"
"1406","11604.92"
"1407","11635.07"
"1408","11665.42"
"1409","11676.65"
"1410","11673.54"
"1411","11666.89"
"1412","11666.31"
"1413","11676.1"
"1414","11699.1"
"1415","11735.42"
"1416","11771.67"
"1417","11790.31"
"1418","11777.14"
"1419","11736.16"
"1420","11677.53"
"1421","11612.67"
"1422","11560.52"
"1423","11542.74"
"1424","11575.59"
"1425","11640.53"
"1426","11705.28"
"1427","11741.14"
"1428","11744.15"
"1429","11720.71"
"1430","11679.07"
"1431","11640.36"
"1432","11631.46"
"1433","11674.01"
"1434","11749.47"
"1435","11820.71"
"1436","11855.45"
"1437","11860.88"
"1438","11863.07"
"1439","11884.47"
"1440","11916.54"
"1441","11935.6"
"1442","11921.78"
"1443","11888.46"
"1444","11865.54"
"1445","11878.88"
"1446","11918.91"
"1447","11958.26"
"1448","11972.55"
"1449","11964.24"
"1450","11949.21"
"1451","11941.21"
"1452","11934.67"
"1453","11914.46"
"1454","11868.36"
"1455","11808.67"
"1456","11759.66"
"1457","11741.98"
"1458","11746.6"
"1459","11750.35"
"1460","11733.22"
"1461","11699.7"
"1462","11665.6"
"1463","11644.02"
"1464","11628.05"
"1465","11601.97"
"1466","11553.52"
"1467","11494.22"
"1468","11445.53"
"1469","11423.63"
"1470","11410.88"
"1471","11376.38"
"1472","11297.11"
"1473","11196.66"
"1474","11115.58"
"1475","11086.25"
"1476","11096.67"
"1477","11119.93"
"1478","11131.81"
"1479","11121.37"
"1480","11081.74"
"1481","11011.05"
"1482","10929.54"
"1483","10863.57"
"1484","10833.03"
"1485","10832.13"
"1486","10848.79"
"1487","10869.98"
"1488","10879.63"
"1489","10860.94"
"1490","10807.41"
"1491","10744.13"
"1492","10702.23"
"1493","10700.23"
"1494","10722.63"
"1495","10748.31"
"1496","10762.77"
"1497","10766.97"
"1498","10764.02"
"1499","10755.94"
"1500","10742.53"
"1501","10723.36"
"1502","10698.49"
"1503","10668.91"
"1504","10635.78"
"1505","10603.7"
"1506","10582.37"
"1507","10581.52"
"1508","10596.87"
"1509","10606.66"
"1510","10588.88"
"1511","10544.93"
"1512","10500.83"
"1513","10482.6"
"1514","10493.15"
"1515","10515"
"1516","10530.87"
"1517","10536.24"
"1518","10536.02"
"1519","10534.92"
"1520","10533.46"
"1521","10529.63"
"1522","10521.42"
"1523","10506.95"
"1524","10484.47"
"1525","10453.34"
"1526","10420.12"
"1527","10394.16"
"1528","10381.84"
"1529","10374.83"
"1530","10360.3"
"1531","10330.72"
"1532","10298.51"
"1533","10280.81"
"1534","10285.37"
"1535","10292.65"
"1536","10278.24"
"1537","10234.81"
"1538","10193.14"
"1539","10188.89"
"1540","10232.3"
"1541","10290.01"
"1542","10324.83"
"1543","10320.29"
"1544","10287.33"
"1545","10238.93"
"1546","10191.74"
"1547","10166.09"
"1548","10180.86"
"1549","10230.06"
"1550","10288.52"
"1551","10331.87"
"1552","10349.52"
"1553","10338.87"
"1554","10299.63"
"1555","10247.14"
"1556","10203.44"
"1557","10185.03"
"1558","10180.74"
"1559","10170.8"
"1560","10144.87"
"1561","10125.51"
"1562","10142.47"
"1563","10204.49"
"1564","10268.27"
"1565","10282.95"
"1566","10230.04"
"1567","10148.16"
"1568","10081.15"
"1569","10048.74"
"1570","10040.14"
"1571","10042.79"
"1572","10047.29"
"1573","10047.18"
"1574","10037.35"
"1575","10027.73"
"1576","10037.87"
"1577","10082.33"
"1578","10137.8"
"1579","10164.08"
"1580","10132.51"
"1581","10070.42"
"1582","10021.98"
"1583","10016.78"
"1584","10038.21"
"1585","10060.56"
"1586","10068.16"
"1587","10066.4"
"1588","10063.38"
"1589","10066.24"
"1590","10080.85"
"1591","10112.27"
"1592","10150.25"
"1593","10169.75"
"1594","10148.47"
"1595","10103.35"
"1596","10076.71"
"1597","10103.39"
"1598","10163"
"1599","10211.7"
"1600","10216.89"
"1601","10194.59"
"1602","10173.87"
"1603","10171.22"
"1604","10169.48"
"1605","10146.09"
"1606","10095.02"
"1607","10038.25"
"1608","10000.16"
"1609","9995.709"
"1610","10029.47"
"1611","10103.09"
"1612","10186.61"
"1613","10227.73"
"1614","10185.16"
"1615","10101.41"
"1616","10056.08"
"1617","10105"
"1618","10201.79"
"1619","10272.89"
"1620","10276.41"
"1621","10250.61"
"1622","10245.63"
"1623","10274.65"
"1624","10294"
"1625","10257.83"
"1626","10177.47"
"1627","10118.69"
"1628","10141.23"
"1629","10220.97"
"1630","10284.93"
"1631","10275.71"
"1632","10225.4"
"1633","10196.89"
"1634","10229.86"
"1635","10291.75"
"1636","10336.26"
"1637","10343.3"
"1638","10339.85"
"1639","10357.01"
"1640","10404.9"
"1641","10471.37"
"1642","10542.72"
"1643","10600.52"
"1644","10623.37"
"1645","10596.86"
"1646","10547.39"
"1647","10516"
"1648","10528.71"
"1649","10564.76"
"1650","10594.42"
"1651","10602.56"
"1652","10599.27"
"1653","10596.8"
"1654","10598.9"
"1655","10600.92"
"1656","10597.75"
"1657","10583.46"
"1658","10551.63"
"1659","10499.71"
"1660","10444.08"
"1661","10406.89"
"1662","10397.13"
"1663","10390.44"
"1664","10357.87"
"1665","10298.49"
"1666","10250.07"
"1667","10249.95"
"1668","10285.62"
"1669","10306.45"
"1670","10270.31"
"1671","10199.22"
"1672","10141.63"
"1673","10126.41"
"1674","10116.76"
"1675","10062.61"
"1676","9953.916"
"1677","9849.43"
"1678","9811.758"
"1679","9842.376"
"1680","9886.331"
"1681","9892.464"
"1682","9858.405"
"1683","9805.583"
"1684","9752.655"
"1685","9706.886"
"1686","9672.772"
"1687","9651.9"
"1688","9640.314"
"1689","9633.379"
"1690","9625.476"
"1691","9610.009"
"1692","9581.188"
"1693","9540.48"
"1694","9493.063"
"1695","9445.37"
"1696","9408.6"
"1697","9394.995"
"1698","9401.77"
"1699","9397.916"
"1700","9351.437"
"1701","9275.753"
"1702","9227.339"
"1703","9254.63"
"1704","9329.045"
"1705","9385.64"
"1706","9379.234"
"1707","9334.605"
"1708","9291.491"
"1709","9267.242"
"1710","9242.409"
"1711","9196.022"
"1712","9138.046"
"1713","9103.474"
"1714","9120.274"
"1715","9167.77"
"1716","9206.533"
"1717","9209.369"
"1718","9182.849"
"1719","9139.335"
"1720","9093.356"
"1721","9062.2"
"1722","9060.854"
"1723","9076.976"
"1724","9081.445"
"1725","9055.145"
"1726","9024.155"
"1727","9026.801"
"1728","9074.173"
"1729","9124.989"
"1730","9133.872"
"1731","9092.098"
"1732","9023.798"
"1733","8954.137"
"1734","8907.043"
"1735","8905.958"
"1736","8957.607"
"1737","9022.659"
"1738","9054.837"
"1739","9041.257"
"1740","9009.961"
"1741","8989.132"
"1742","8983.78"
"1743","8986.027"
"1744","8988.857"
"1745","8989.025"
"1746","8984.205"
"1747","8974.02"
"1748","8961.188"
"1749","8948.613"
"1750","8938.062"
"1751","8930.502"
"1752","8926.619"
"1753","8925.849"
"1754","8927.26"
"1755","8930.08"
"1756","8933.853"
"1757","8937.983"
"1758","8939.105"
"1759","8931.522"
"1760","8911.364"
"1761","8885.435"
"1762","8864.25"
"1763","8854.302"
"1764","8853.271"
"1765","8857.426"
"1766","8858.191"
"1767","8842.524"
"1768","8801.864"
"1769","8756.622"
"1770","8738.26"
"1771","8759.614"
"1772","8789.928"
"1773","8794.048"
"1774","8777.328"
"1775","8784.153"
"1776","8848.361"
"1777","8926.181"
"1778","8943.523"
"1779","8869.401"
"1780","8773.926"
"1781","8738.313"
"1782","8771.201"
"1783","8812.59"
"1784","8809.602"
"1785","8769.553"
"1786","8722.305"
"1787","8690.85"
"1788","8682.918"
"1789","8703.241"
"1790","8738.526"
"1791","8759.742"
"1792","8745.475"
"1793","8718.479"
"1794","8716.148"
"1795","8750.005"
"1796","8781.565"
"1797","8770.2"
"1798","8728.275"
"1799","8708.316"
"1800","8744.946"
"1801","8787.912"
"1802","8764.07"
"1803","8662.811"
"1804","8573.552"
"1805","8584.257"
"1806","8666.366"
"1807","8719.361"
"1808","8677.918"
"1809","8603.011"
"1810","8581.378"
"1811","8636.52"
"1812","8712.755"
"1813","8754.31"
"1814","8744.753"
"1815","8686.143"
"1816","8597.389"
"1817","8539.705"
"1818","8576.876"
"1819","8688.465"
"1820","8776.016"
"1821","8760.09"
"1822","8678.829"
"1823","8608.842"
"1824","8586.886"
"1825","8579.322"
"1826","8549.23"
"1827","8505.512"
"1828","8486.567"
"1829","8515.72"
"1830","8562.783"
"1831","8586.94"
"1832","8574.913"
"1833","8545.754"
"1834","8519.239"
"1835","8507.319"
"1836","8518.66"
"1837","8549.889"
"1838","8572.284"
"1839","8556.591"
"1840","8512.354"
"1841","8477.87"
"1842","8480.62"
"1843","8503.498"
"1844","8519.054"
"1845","8516.717"
"1846","8507.239"
"1847","8501.765"
"1848","8504.414"
"1849","8516.257"
"1850","8535.387"
"1851","8553.595"
"1852","8562.218"
"1853","8557.68"
"1854","8540.077"
"1855","8511.085"
"1856","8477.787"
"1857","8448.432"
"1858","8429.047"
"1859","8423.089"
"1860","8432.036"
"1861","8446.097"
"1862","8451.324"
"1863","8446.07"
"1864","8450.879"
"1865","8485.172"
"1866","8531.589"
"1867","8550.822"
"1868","8522.298"
"1869","8479.294"
"1870","8463.104"
"1871","8486.532"
"1872","8536.819"
"1873","8594.756"
"1874","8616.978"
"1875","8555.037"
"1876","8426.522"
"1877","8335.398"
"1878","8370.69"
"1879","8479.749"
"1880","8551.804"
"1881","8532.217"
"1882","8472.19"
"1883","8430.522"
"1884","8422.538"
"1885","8437.875"
"1886","8462.484"
"1887","8473.513"
"1888","8448.683"
"1889","8399.771"
"1890","8366.273"
"1891","8374.334"
"1892","8396.907"
"1893","8395.736"
"1894","8367.271"
"1895","8345.659"
"1896","8357.271"
"1897","8378.439"
"1898","8370.192"
"1899","8330.409"
"1900","8309.154"
"1901","8348.456"
"1902","8406.627"
"1903","8407.032"
"1904","8324.679"
"1905","8228.253"
"1906","8189.057"
"1907","8210.169"
"1908","8258.017"
"1909","8304.248"
"1910","8333.29"
"1911","8333.268"
"1912","8316.302"
"1913","8310.394"
"1914","8330.97"
"1915","8357.566"
"1916","8364.776"
"1917","8347.76"
"1918","8317.937"
"1919","8287.013"
"1920","8266.015"
"1921","8265.053"
"1922","8278.073"
"1923","8284.117"
"1924","8267.57"
"1925","8236.127"
"1926","8203.142"
"1927","8179.777"
"1928","8174.907"
"1929","8194.091"
"1930","8228.449"
"1931","8265.007"
"1932","8290.199"
"1933","8289.793"
"1934","8256.383"
"1935","8216.855"
"1936","8207.87"
"1937","8232.538"
"1938","8251.891"
"1939","8234.24"
"1940","8201.764"
"1941","8193.956"
"1942","8220.036"
"1943","8249.134"
"1944","8255.34"
"1945","8256.661"
"1946","8285.692"
"1947","8338.685"
"1948","8362.322"
"1949","8312.698"
"1950","8221.326"
"1951","8146.034"
"1952","8112.93"
"1953","8104.558"
"1954","8102.821"
"1955","8104.278"
"1956","8110.581"
"1957","8119.925"
"1958","8125.831"
"1959","8124.133"
"1960","8125.253"
"1961","8144.02"
"1962","8171.388"
"1963","8167.545"
"1964","8104.362"
"1965","8025.101"
"1966","7994.489"
"1967","8021.32"
"1968","8046.886"
"1969","8024.883"
"1970","7987.302"
"1971","7987.447"
"1972","8026.554"
"1973","8048.447"
"1974","8012.149"
"1975","7953.522"
"1976","7926.433"
"1977","7933.647"
"1978","7927.627"
"1979","7880.787"
"1980","7846.181"
"1981","7890.315"
"1982","7990.069"
"1983","8045.431"
"1984","7997.661"
"1985","7923.048"
"1986","7916.268"
"1987","7965.397"
"1988","7980.802"
"1989","7916.311"
"1990","7840.93"
"1991","7833.243"
"1992","7879.612"
"1993","7910.809"
"1994","7889.886"
"1995","7848.081"
"1996","7822.417"
"1997","7827.821"
"1998","7868.109"
"1999","7920.234"
"2000","7917.385"
"2001","7809.241"
"2002","7672.927"
"2003","7631.504"
"2004","7706.792"
"2005","7790.847"
"2006","7794.461"
"2007","7754.215"
"2008","7740.165"
"2009","7765.033"
"2010","7785.244"
"2011","7766.829"
"2012","7716.075"
"2013","7648.728"
"2014","7595.252"
"2015","7596.887"
"2016","7663.004"
"2017","7726.192"
"2018","7716.93"
"2019","7650.863"
"2020","7588.794"
"2021","7560.258"
"2022","7540.803"
"2023","7518.023"
"2024","7583.979"
"2025","7863.495"
"2026","8269.426"
"2027","8460.771"
"2028","8204.075"
"2029","7758.477"
"2030","7489.194"
"2031","7462.829"
"2032","7498.486"
"2033","7473.919"
"2034","7440.032"
"2035","7465.919"
"2036","7526.831"
"2037","7546.312"
"2038","7497.754"
"2039","7440.37"
"2040","7429.408"
"2041","7448.104"
"2042","7454.767"
"2043","7432.446"
"2044","7391.627"
"2045","7345.258"
"2046","7309.765"
"2047","7300.467"
"2048","7307.25"
"2049","7302.056"
"2050","7271.424"
"2051","7233.54"
"2052","7206.043"
"2053","7173.704"
"2054","7107.273"
"2055","6989.145"
"2056","6816.798"
"2057","6593.374"
"2058","6340.707"
"2059","6079.205"
"2060","5735.58"
"2061","5163.81"
"2062","4300.473"
"2063","3273.96"
"2064","2234.401"
"2065","1292.994"
"2066","543.6941"
"2067","80.99221"
"2068","20"
"2069","354.9251"
"2070","1037.461"
"2071","1901.021"
"2072","2831.513"
"2073","3738.993"
"2074","4549.785"
"2075","5223.751"
"2076","5732.327"
"2077","6096.866"
"2078","6359.021"
"2079","6555.546"
"2080","6717.45"
"2081","6860.703"
"2082","6952.185"
"2083","6956.219"
"2084","6922.427"
"2085","6952.648"
"2086","7070.725"
"2087","7166.768"
"2088","7146.3"
"2089","7060.145"
"2090","7001.547"
"2091","6995.967"
"2092","7008.715"
"2093","7014.571"
"2094","7016.414"
"2095","7021.464"
"2096","7038.265"
"2097","7075.208"
"2098","7115.806"
"2099","7113.673"
"2100","7043.4"
"2101","6955.501"
"2102","6912.534"
"2103","6936.045"
"2104","7022.617"
"2105","7135.867"
"2106","7188.751"
"2107","7121.453"
"2108","7013.393"
"2109","6974.973"
"2110","7011.173"
"2111","7048.196"
"2112","7038.166"
"2113","6987.154"
"2114","6911.938"
"2115","6853.975"
"2116","6859.714"
"2117","6908.447"
"2118","6919.542"
"2119","6860.771"
"2120","6815.756"
"2121","6864.401"
"2122","6956.016"
"2123","6991.123"
"2124","6952.947"
"2125","6909.048"
"2126","6903.224"
"2127","6907.537"
"2128","6888.458"
"2129","6856.084"
"2130","6838.864"
"2131","6836.188"
"2132","6815.195"
"2133","6767.963"
"2134","6760.959"
"2135","6854.411"
"2136","6957.817"
"2137","6915.062"
"2138","6733.572"
"2139","6609.123"
"2140","6658.438"
"2141","6741.323"
"2142","6700.586"
"2143","6608.05"
"2144","6638.437"
"2145","6801.252"
"2146","6917.127"
"2147","6869.767"
"2148","6748.325"
"2149","6666.096"
"2150","6648.687"
"2151","6681.54"
"2152","6737.065"
"2153","6773.861"
"2154","6761.481"
"2155","6699.843"
"2156","6599.239"
"2157","6507.2"
"2158","6484.028"
"2159","6528.077"
"2160","6577.26"
"2161","6592.448"
"2162","6592.855"
"2163","6597.721"
"2164","6579.456"
"2165","6497.818"
"2166","6385.661"
"2167","6337.109"
"2168","6385.213"
"2169","6441.589"
"2170","6427.289"
"2171","6374.453"
"2172","6344.854"
"2173","6357.886"
"2174","6403.192"
"2175","6458.654"
"2176","6484.826"
"2177","6456.842"
"2178","6409.277"
"2179","6385.859"
"2180","6386.645"
"2181","6388.344"
"2182","6388.78"
"2183","6411.646"
"2184","6452.935"
"2185","6428.82"
"2186","6267.526"
"2187","6069.231"
"2188","5997.109"
"2189","6066.692"
"2190","6159.995"
"2191","6199.303"
"2192","6195.88"
"2193","6168.658"
"2194","6124.271"
"2195","6068.768"
"2196","6041.434"
"2197","6101.387"
"2198","6233.762"
"2199","6321.939"
"2200","6286.364"
"2201","6182.283"
"2202","6085.27"
"2203","6033.835"
"2204","6047.992"
"2205","6096.437"
"2206","6100.906"
"2207","6031.756"
"2208","5957.188"
"2209","5939.925"
"2210","5969.501"
"2211","6016.45"
"2212","6060.16"
"2213","6085.485"
"2214","6086.169"
"2215","6066.761"
"2216","6035.155"
"2217","6006.059"
"2218","5992.517"
"2219","5991.561"
"2220","5993.906"
"2221","5981.909"
"2222","5932.028"
"2223","5841.133"
"2224","5737.026"
"2225","5656.481"
"2226","5655.977"
"2227","5777.126"
"2228","5928.975"
"2229","5970.696"
"2230","5890.683"
"2231","5789.095"
"2232","5731.005"
"2233","5714.514"
"2234","5725.835"
"2235","5732.267"
"2236","5703.874"
"2237","5666.619"
"2238","5669.986"
"2239","5702.342"
"2240","5695.285"
"2241","5625.546"
"2242","5556.242"
"2243","5541.672"
"2244","5568.189"
"2245","5606.268"
"2246","5626.928"
"2247","5602.909"
"2248","5538.723"
"2249","5468.625"
"2250","5426.534"
"2251","5443.538"
"2252","5527.263"
"2253","5602.044"
"2254","5586.94"
"2255","5504.511"
"2256","5422.244"
"2257","5364.027"
"2258","5315.621"
"2259","5268.377"
"2260","5224.877"
"2261","5189.528"
"2262","5169.2"
"2263","5169.276"
"2264","5182.187"
"2265","5194.278"
"2266","5179.221"
"2267","5102.251"
"2268","4981.178"
"2269","4906.91"
"2270","4918.187"
"2271","4903.321"
"2272","4765.302"
"2273","4608.965"
"2274","4586.586"
"2275","4660.884"
"2276","4683.17"
"2277","4610.869"
"2278","4519.757"
"2279","4462.893"
"2280","4435.591"
"2281","4425.984"
"2282","4420.986"
"2283","4405.336"
"2284","4350.37"
"2285","4225.753"
"2286","4073.466"
"2287","3993.058"
"2288","4019.31"
"2289","4091.417"
"2290","4149.669"
"2291","4156.902"
"2292","4090.93"
"2293","3985.843"
"2294","3891.102"
"2295","3837.251"
"2296","3842.183"
"2297","3875.828"
"2298","3862.142"
"2299","3770.045"
"2300","3647.728"
