,"Scan 00843"
"400","11929.54"
"401","11869.8"
"402","11779.74"
"403","11684"
"404","11607.04"
"405","11570.24"
"406","11569.81"
"407","11589.25"
"408","11612.03"
"409","11622.82"
"410","11619.52"
"411","11609.27"
"412","11599.35"
"413","11596.82"
"414","11605.54"
"415","11626.37"
"416","11660.06"
"417","11707.21"
"418","11763.94"
"419","11820.81"
"420","11868.12"
"421","11896.3"
"422","11900.52"
"423","11883.56"
"424","11848.87"
"425","11799.88"
"426","11742.76"
"427","11689.45"
"428","11652.51"
"429","11644.42"
"430","11669.73"
"431","11711.89"
"432","11750.9"
"433","11766.92"
"434","11747.85"
"435","11708.13"
"436","11667.76"
"437","11646.66"
"438","11658.87"
"439","11693.31"
"440","11732.09"
"441","11757.46"
"442","11755.78"
"443","11735.29"
"444","11711.63"
"445","11700.36"
"446","11713.72"
"447","11742.47"
"448","11768.53"
"449","11773.9"
"450","11743.55"
"451","11686.08"
"452","11621.63"
"453","11570.3"
"454","11549.79"
"455","11554.86"
"456","11567.15"
"457","11568.21"
"458","11541.49"
"459","11491.5"
"460","11436.7"
"461","11395.64"
"462","11385.27"
"463","11400.58"
"464","11420.2"
"465","11422.5"
"466","11387.49"
"467","11320.8"
"468","11249.37"
"469","11200.65"
"470","11200.47"
"471","11245.86"
"472","11307.51"
"473","11355.31"
"474","11360.56"
"475","11322.31"
"476","11267.16"
"477","11222.74"
"478","11215.54"
"479","11247.65"
"480","11295.24"
"481","11333.38"
"482","11338.03"
"483","11305.83"
"484","11256.59"
"485","11211.17"
"486","11189.84"
"487","11197.26"
"488","11219.95"
"489","11243.48"
"490","11253.79"
"491","11245.02"
"492","11221.2"
"493","11186.86"
"494","11146.5"
"495","11103.15"
"496","11058.13"
"497","11012.65"
"498","10967.87"
"499","10923.67"
"500","10878.38"
"501","10830.28"
"502","10777.73"
"503","10722.25"
"504","10669.13"
"505","10623.84"
"506","10591.6"
"507","10571.46"
"508","10555.29"
"509","10534.64"
"510","10501.35"
"511","10455.11"
"512","10404.24"
"513","10357.46"
"514","10323.29"
"515","10305.51"
"516","10303.01"
"517","10314.46"
"518","10338.34"
"519","10369.5"
"520","10399.17"
"521","10418.45"
"522","10418.85"
"523","10398.27"
"524","10360.37"
"525","10308.98"
"526","10248.14"
"527","10185.3"
"528","10130.68"
"529","10094.55"
"530","10086.08"
"531","10100"
"532","10120.43"
"533","10131.3"
"534","10118.03"
"535","10082.29"
"536","10036.31"
"537","9992.479"
"538","9961.941"
"539","9944.553"
"540","9933.792"
"541","9923.082"
"542","9906.712"
"543","9885.729"
"544","9864.458"
"545","9847.218"
"546","9838.36"
"547","9842.541"
"548","9864.535"
"549","9909.086"
"550","9977.541"
"551","10052.8"
"552","10111.62"
"553","10130.84"
"554","10095.52"
"555","10026.3"
"556","9953.457"
"557","9907.123"
"558","9906.617"
"559","9933.86"
"560","9962.712"
"561","9967.182"
"562","9933.979"
"563","9884.524"
"564","9846.049"
"565","9845.567"
"566","9893.245"
"567","9963.139"
"568","10024.73"
"569","10047.89"
"570","10021.58"
"571","9966.615"
"572","9906.829"
"573","9865.489"
"574","9849.579"
"575","9844.907"
"576","9835.924"
"577","9807.844"
"578","9761.894"
"579","9715.29"
"580","9685.873"
"581","9690.09"
"582","9725.005"
"583","9772.994"
"584","9816.136"
"585","9838.494"
"586","9842.898"
"587","9842.78"
"588","9851.641"
"589","9879.643"
"590","9914.809"
"591","9936.097"
"592","9922.515"
"593","9861.219"
"594","9777.019"
"595","9705.582"
"596","9682.432"
"597","9727.119"
"598","9808.216"
"599","9884.189"
"600","9913.793"
"601","9877.271"
"602","9802.304"
"603","9722.827"
"604","9672.302"
"605","9663.847"
"606","9679.407"
"607","9698.345"
"608","9700.73"
"609","9683.167"
"610","9659.866"
"611","9645.852"
"612","9654.996"
"613","9685.79"
"614","9725.467"
"615","9761.034"
"616","9780.712"
"617","9782.33"
"618","9768.463"
"619","9741.703"
"620","9705.17"
"621","9664.726"
"622","9627.086"
"623","9598.945"
"624","9583.824"
"625","9575.127"
"626","9564.27"
"627","9542.739"
"628","9509.065"
"629","9475.92"
"630","9457.647"
"631","9468.207"
"632","9508.992"
"633","9565.202"
"634","9621.016"
"635","9661.398"
"636","9683.681"
"637","9695.377"
"638","9704.282"
"639","9717.104"
"640","9731.142"
"641","9738.85"
"642","9732.655"
"643","9707.447"
"644","9670.173"
"645","9631.496"
"646","9602.05"
"647","9589.736"
"648","9594.696"
"649","9615.687"
"650","9651.403"
"651","9695.363"
"652","9732.316"
"653","9746.219"
"654","9721.925"
"655","9664.533"
"656","9599.66"
"657","9553.764"
"658","9550.745"
"659","9588.154"
"660","9647.685"
"661","9710.856"
"662","9761.208"
"663","9793.118"
"664","9804.689"
"665","9794.035"
"666","9762.204"
"667","9718.952"
"668","9675.621"
"669","9643.438"
"670","9628.092"
"671","9626.167"
"672","9633.425"
"673","9645.654"
"674","9659.188"
"675","9670.857"
"676","9677.525"
"677","9676.648"
"678","9670.951"
"679","9665.882"
"680","9666.897"
"681","9677.882"
"682","9695.911"
"683","9716.203"
"684","9734.001"
"685","9746.646"
"686","9756.17"
"687","9765.232"
"688","9776.396"
"689","9789.046"
"690","9798.795"
"691","9801.037"
"692","9791.767"
"693","9773.782"
"694","9754.236"
"695","9740.343"
"696","9737.776"
"697","9744.258"
"698","9754.906"
"699","9764.854"
"700","9770.981"
"701","9774.579"
"702","9777.617"
"703","9782.026"
"704","9788.091"
"705","9793.987"
"706","9797.768"
"707","9797.686"
"708","9794.415"
"709","9790.225"
"710","9787.404"
"711","9787.647"
"712","9789.607"
"713","9790.968"
"714","9789.42"
"715","9784.376"
"716","9779.3"
"717","9778.238"
"718","9785.147"
"719","9801.416"
"720","9825.493"
"721","9855.668"
"722","9889.771"
"723","9921.154"
"724","9940.65"
"725","9939.085"
"726","9911.449"
"727","9869.819"
"728","9830.636"
"729","9810.218"
"730","9816.656"
"731","9842.938"
"732","9880.454"
"733","9920.625"
"734","9955.269"
"735","9976.546"
"736","9976.646"
"737","9950.398"
"738","9909.721"
"739","9873.359"
"740","9860.019"
"741","9879.684"
"742","9918.755"
"743","9959.694"
"744","9985.346"
"745","9990.159"
"746","9982.622"
"747","9972.038"
"748","9967.152"
"749","9971.466"
"750","9985.597"
"751","10010.14"
"752","10043.82"
"753","10078.6"
"754","10104.86"
"755","10113.15"
"756","10101.33"
"757","10078.53"
"758","10054.79"
"759","10039.69"
"760","10036.97"
"761","10046.42"
"762","10067.77"
"763","10099.76"
"764","10136.84"
"765","10172.23"
"766","10199.22"
"767","10213.19"
"768","10213.35"
"769","10199.27"
"770","10171.01"
"771","10135.67"
"772","10105.68"
"773","10093.59"
"774","10109.32"
"775","10149.88"
"776","10208.36"
"777","10277.86"
"778","10349.12"
"779","10408.51"
"780","10441.96"
"781","10436.78"
"782","10401.39"
"783","10360.45"
"784","10339.07"
"785","10355.87"
"786","10398.45"
"787","10445.05"
"788","10474.08"
"789","10476.35"
"790","10464.94"
"791","10455.23"
"792","10461.45"
"793","10482.54"
"794","10506.43"
"795","10520.79"
"796","10516.47"
"797","10497.8"
"798","10472.75"
"799","10449.22"
"800","10433.17"
"801","10427.43"
"802","10434.59"
"803","10456.54"
"804","10487.83"
"805","10518.52"
"806","10538.62"
"807","10542.25"
"808","10537.8"
"809","10536.76"
"810","10550.31"
"811","10580.06"
"812","10615.64"
"813","10645.9"
"814","10661.23"
"815","10663.72"
"816","10661.02"
"817","10660.78"
"818","10667.65"
"819","10678.71"
"820","10689.86"
"821","10697.13"
"822","10699.14"
"823","10696.95"
"824","10691.67"
"825","10684.74"
"826","10679.27"
"827","10678.87"
"828","10687.13"
"829","10702.86"
"830","10716.71"
"831","10718.56"
"832","10699.73"
"833","10667.87"
"834","10640.73"
"835","10636.2"
"836","10664.45"
"837","10710.76"
"838","10755.41"
"839","10779.26"
"840","10778.64"
"841","10766.76"
"842","10757.68"
"843","10762.52"
"844","10774.61"
"845","10780.68"
"846","10767.57"
"847","10734.72"
"848","10705.08"
"849","10704.09"
"850","10754.3"
"851","10844.69"
"852","10942.84"
"853","11015.99"
"854","11042.87"
"855","11038.39"
"856","11024.56"
"857","11022.7"
"858","11036.79"
"859","11053.17"
"860","11057.34"
"861","11038.85"
"862","11008.52"
"863","10984.2"
"864","10983.53"
"865","11011.79"
"866","11054.76"
"867","11096.47"
"868","11122.44"
"869","11131.21"
"870","11128.06"
"871","11118.32"
"872","11107.63"
"873","11102.43"
"874","11109.27"
"875","11133.92"
"876","11170.89"
"877","11206.05"
"878","11225.08"
"879","11219.49"
"880","11201.75"
"881","11189.07"
"882","11198.06"
"883","11230.1"
"884","11270.2"
"885","11302.54"
"886","11314.57"
"887","11310.73"
"888","11300.99"
"889","11295.28"
"890","11300.66"
"891","11319.99"
"892","11355.8"
"893","11409.29"
"894","11471.78"
"895","11530.18"
"896","11571.43"
"897","11588.55"
"898","11586.44"
"899","11571.34"
"900","11549.65"
"901","11529.45"
"902","11519.75"
"903","11529.61"
"904","11562.51"
"905","11608.15"
"906","11654.03"
"907","11688.29"
"908","11707.53"
"909","11714.6"
"910","11712.49"
"911","11704.3"
"912","11693.4"
"913","11683.24"
"914","11677.21"
"915","11677.28"
"916","11684.2"
"917","11698.7"
"918","11719.34"
"919","11736.58"
"920","11738.9"
"921","11715.51"
"922","11673.53"
"923","11638.71"
"924","11637.63"
"925","11688.4"
"926","11770.72"
"927","11853.57"
"928","11906.58"
"929","11921.33"
"930","11915.07"
"931","11906.51"
"932","11910.33"
"933","11920.65"
"934","11925.08"
"935","11911.58"
"936","11880.92"
"937","11850.26"
"938","11837.88"
"939","11857.11"
"940","11894.04"
"941","11925.37"
"942","11928.27"
"943","11900.16"
"944","11865.88"
"945","11852.28"
"946","11879.77"
"947","11931.69"
"948","11978.06"
"949","11989.28"
"950","11956.17"
"951","11897.89"
"952","11835.7"
"953","11788.93"
"954","11765.44"
"955","11768.98"
"956","11803.05"
"957","11861.57"
"958","11925.21"
"959","11973.65"
"960","11989.81"
"961","11975.15"
"962","11937.64"
"963","11885.37"
"964","11830.26"
"965","11789.36"
"966","11780.04"
"967","11814.41"
"968","11876.14"
"969","11939.45"
"970","11979.02"
"971","11986.04"
"972","11972.18"
"973","11950.35"
"974","11931.43"
"975","11916.31"
"976","11902.84"
"977","11888.95"
"978","11874.48"
"979","11861.4"
"980","11851.8"
"981","11848.04"
"982","11853.5"
"983","11871.83"
"984","11906.26"
"985","11950.16"
"986","11987.22"
"987","12000.7"
"988","11980.91"
"989","11943.51"
"990","11909.88"
"991","11900.38"
"992","11917.63"
"993","11949.37"
"994","11982.86"
"995","12009.3"
"996","12031.44"
"997","12054.17"
"998","12081.87"
"999","12112.71"
"1000","12140.53"
"1001","12159.07"
"1002","12165.3"
"1003","12163.75"
"1004","12160.04"
"1005","12159.8"
"1006","12168.08"
"1007","12185.91"
"1008","12212.72"
"1009","12247.78"
"1010","12284.67"
"1011","12308.73"
"1012","12304.68"
"1013","12262.54"
"1014","12201.33"
"1015","12149.87"
"1016","12136.26"
"1017","12164.73"
"1018","12211.49"
"1019","12251.14"
"1020","12265.09"
"1021","12263.58"
"1022","12264.47"
"1023","12284.8"
"1024","12325.21"
"1025","12371.13"
"1026","12407.39"
"1027","12424.44"
"1028","12430.37"
"1029","12436.71"
"1030","12453.83"
"1031","12476.29"
"1032","12487.55"
"1033","12470.93"
"1034","12423.26"
"1035","12372.12"
"1036","12349.32"
"1037","12382.11"
"1038","12458.08"
"1039","12544.79"
"1040","12609.85"
"1041","12637.72"
"1042","12639.76"
"1043","12629.74"
"1044","12620.07"
"1045","12615.43"
"1046","12617.85"
"1047","12629.2"
"1048","12646.8"
"1049","12662.97"
"1050","12669.8"
"1051","12663.2"
"1052","12652.74"
"1053","12650.95"
"1054","12669.26"
"1055","12703.23"
"1056","12736.97"
"1057","12754.35"
"1058","12747.84"
"1059","12728.77"
"1060","12710.95"
"1061","12706.78"
"1062","12717.91"
"1063","12741.12"
"1064","12773.09"
"1065","12808.48"
"1066","12839.19"
"1067","12856.93"
"1068","12856.36"
"1069","12844.74"
"1070","12832.63"
"1071","12830.12"
"1072","12839.53"
"1073","12856.89"
"1074","12878.05"
"1075","12899.12"
"1076","12916.8"
"1077","12927.89"
"1078","12929.71"
"1079","12923.53"
"1080","12912.47"
"1081","12899.64"
"1082","12888.48"
"1083","12882.79"
"1084","12886.4"
"1085","12901.48"
"1086","12923.77"
"1087","12947.49"
"1088","12966.83"
"1089","12976.18"
"1090","12969.97"
"1091","12942.75"
"1092","12898.76"
"1093","12860.92"
"1094","12854.3"
"1095","12897.1"
"1096","12967.71"
"1097","13030.17"
"1098","13049.84"
"1099","13022.44"
"1100","12973.62"
"1101","12930.31"
"1102","12911.08"
"1103","12912.2"
"1104","12926.28"
"1105","12946.11"
"1106","12966.05"
"1107","12981.2"
"1108","12986.79"
"1109","12983.05"
"1110","12976.42"
"1111","12973.75"
"1112","12980.14"
"1113","12994.66"
"1114","13015.13"
"1115","13038.74"
"1116","13056.2"
"1117","13054.43"
"1118","13020.63"
"1119","12959.77"
"1120","12903.08"
"1121","12883.94"
"1122","12923.26"
"1123","12992.78"
"1124","13052.07"
"1125","13064.44"
"1126","13037.19"
"1127","13006.4"
"1128","13008.21"
"1129","13050.37"
"1130","13095.29"
"1131","13101.29"
"1132","13041.01"
"1133","12946.6"
"1134","12865.68"
"1135","12842.44"
"1136","12879.39"
"1137","12951.23"
"1138","13032.26"
"1139","13103.34"
"1140","13155.69"
"1141","13181.41"
"1142","13175.79"
"1143","13146.67"
"1144","13105.03"
"1145","13061.58"
"1146","13024.09"
"1147","12998.46"
"1148","12990.45"
"1149","13000.75"
"1150","13022.69"
"1151","13049.05"
"1152","13074.97"
"1153","13103.81"
"1154","13140.71"
"1155","13189.04"
"1156","13235.92"
"1157","13259.88"
"1158","13240.16"
"1159","13183.77"
"1160","13130.98"
"1161","13124.02"
"1162","13183.88"
"1163","13273.19"
"1164","13344.65"
"1165","13359.12"
"1166","13333.2"
"1167","13306.65"
"1168","13317.3"
"1169","13362.34"
"1170","13401.45"
"1171","13393.05"
"1172","13324.2"
"1173","13239.48"
"1174","13190.39"
"1175","13215.41"
"1176","13292.09"
"1177","13380.18"
"1178","13441.87"
"1179","13468.68"
"1180","13471.28"
"1181","13460.59"
"1182","13444.63"
"1183","13427.37"
"1184","13412.52"
"1185","13402.97"
"1186","13399.25"
"1187","13401.45"
"1188","13409.67"
"1189","13423.9"
"1190","13444.13"
"1191","13470.1"
"1192","13497.02"
"1193","13516.19"
"1194","13518.89"
"1195","13504.69"
"1196","13487.84"
"1197","13484.11"
"1198","13503.58"
"1199","13534.95"
"1200","13561.86"
"1201","13570.57"
"1202","13569.08"
"1203","13576.37"
"1204","13610.45"
"1205","13665.31"
"1206","13711.01"
"1207","13716.72"
"1208","13672.77"
"1209","13610.96"
"1210","13567.9"
"1211","13570.18"
"1212","13603.64"
"1213","13643.8"
"1214","13668.75"
"1215","13678.98"
"1216","13686.63"
"1217","13703.28"
"1218","13726.29"
"1219","13738.98"
"1220","13724.17"
"1221","13680.22"
"1222","13634.4"
"1223","13617.24"
"1224","13647.65"
"1225","13701.93"
"1226","13746.48"
"1227","13752.77"
"1228","13730.48"
"1229","13706.79"
"1230","13707.7"
"1231","13737.47"
"1232","13781.96"
"1233","13826.48"
"1234","13862.04"
"1235","13888.38"
"1236","13905.96"
"1237","13914.61"
"1238","13912.36"
"1239","13896.9"
"1240","13868.03"
"1241","13837.3"
"1242","13820.28"
"1243","13830.83"
"1244","13863.94"
"1245","13902.69"
"1246","13930.39"
"1247","13941.2"
"1248","13941.2"
"1249","13937.09"
"1250","13935"
"1251","13939.89"
"1252","13956.62"
"1253","13985.8"
"1254","14013.42"
"1255","14022.25"
"1256","13999.48"
"1257","13960.24"
"1258","13930.7"
"1259","13934.76"
"1260","13967.02"
"1261","14002.13"
"1262","14015.13"
"1263","14003.29"
"1264","13989.25"
"1265","13996.9"
"1266","14034.36"
"1267","14079.9"
"1268","14108.39"
"1269","14103.85"
"1270","14080.06"
"1271","14056.85"
"1272","14050.43"
"1273","14056.19"
"1274","14062.16"
"1275","14057.68"
"1276","14045.45"
"1277","14036.11"
"1278","14039.84"
"1279","14055.81"
"1280","14072.8"
"1281","14079.27"
"1282","14069.64"
"1283","14047.24"
"1284","14016.14"
"1285","13980.19"
"1286","13942.68"
"1287","13906.83"
"1288","13876.95"
"1289","13861.54"
"1290","13870.16"
"1291","13909.46"
"1292","13967.08"
"1293","14023.1"
"1294","14059.38"
"1295","14078.44"
"1296","14095.7"
"1297","14125.96"
"1298","14166.21"
"1299","14196.52"
"1300","14196.55"
"1301","14160.04"
"1302","14100.83"
"1303","14034.33"
"1304","13975.87"
"1305","13940.6"
"1306","13943.66"
"1307","13992.36"
"1308","14067.98"
"1309","14146.44"
"1310","14206.05"
"1311","14237.55"
"1312","14235.64"
"1313","14197.62"
"1314","14141.67"
"1315","14095.96"
"1316","14086.37"
"1317","14107.68"
"1318","14133.01"
"1319","14136.12"
"1320","14116.66"
"1321","14100.02"
"1322","14112.26"
"1323","14157.42"
"1324","14208.54"
"1325","14236.5"
"1326","14229.26"
"1327","14208.89"
"1328","14201.53"
"1329","14222"
"1330","14253.09"
"1331","14271.9"
"1332","14262.2"
"1333","14234.85"
"1334","14207.64"
"1335","14195.42"
"1336","14196"
"1337","14200.98"
"1338","14202.73"
"1339","14200.31"
"1340","14196.14"
"1341","14192.5"
"1342","14189.75"
"1343","14186.95"
"1344","14183.22"
"1345","14179.51"
"1346","14178.41"
"1347","14182.42"
"1348","14188.42"
"1349","14186.62"
"1350","14167.03"
"1351","14132.1"
"1352","14103.64"
"1353","14105.14"
"1354","14147.28"
"1355","14214.69"
"1356","14288.76"
"1357","14352"
"1358","14389.86"
"1359","14388.32"
"1360","14341.1"
"1361","14269.42"
"1362","14200.51"
"1363","14157.36"
"1364","14143.25"
"1365","14155.82"
"1366","14191.62"
"1367","14240.66"
"1368","14290.54"
"1369","14328.72"
"1370","14341.74"
"1371","14315.65"
"1372","14240.27"
"1373","14143.27"
"1374","14074.35"
"1375","14078.98"
"1376","14141.31"
"1377","14201.74"
"1378","14202.97"
"1379","14146.77"
"1380","14085.94"
"1381","14073.06"
"1382","14112.67"
"1383","14159.47"
"1384","14166.88"
"1385","14124.52"
"1386","14066.81"
"1387","14030.49"
"1388","14030.29"
"1389","14048.73"
"1390","14065.92"
"1391","14072.05"
"1392","14074.63"
"1393","14082.81"
"1394","14099.24"
"1395","14113.48"
"1396","14113.58"
"1397","14095.62"
"1398","14074.46"
"1399","14067.6"
"1400","14081.88"
"1401","14095.54"
"1402","14082.06"
"1403","14028.59"
"1404","13964.41"
"1405","13926.97"
"1406","13940.28"
"1407","13981.25"
"1408","14016.41"
"1409","14021.64"
"1410","14010.14"
"1411","14004.36"
"1412","14019.8"
"1413","14041.05"
"1414","14044.08"
"1415","14012.74"
"1416","13969.73"
"1417","13949.76"
"1418","13978.57"
"1419","14033.12"
"1420","14073.86"
"1421","14068.33"
"1422","14026.11"
"1423","13972.18"
"1424","13930"
"1425","13912.88"
"1426","13930.11"
"1427","13986.05"
"1428","14051.18"
"1429","14081.72"
"1430","14043.04"
"1431","13967.43"
"1432","13916.77"
"1433","13943.12"
"1434","14022.02"
"1435","14093.68"
"1436","14105.95"
"1437","14069.23"
"1438","14023.85"
"1439","14006.31"
"1440","14020.26"
"1441","14053.22"
"1442","14092.61"
"1443","14126.21"
"1444","14141.91"
"1445","14130.32"
"1446","14104.8"
"1447","14090.19"
"1448","14107.45"
"1449","14144.34"
"1450","14171.87"
"1451","14164.88"
"1452","14131.42"
"1453","14096.03"
"1454","14080.22"
"1455","14079.46"
"1456","14076.51"
"1457","14056.38"
"1458","14022.73"
"1459","13988.14"
"1460","13964.57"
"1461","13958.89"
"1462","13975.65"
"1463","14016.16"
"1464","14058.26"
"1465","14069.48"
"1466","14024.13"
"1467","13943.03"
"1468","13866.39"
"1469","13828.35"
"1470","13823.66"
"1471","13831.63"
"1472","13832.26"
"1473","13809.54"
"1474","13748.96"
"1475","13645.26"
"1476","13543.32"
"1477","13504.86"
"1478","13571.47"
"1479","13685.93"
"1480","13760.77"
"1481","13732.01"
"1482","13639.96"
"1483","13553.76"
"1484","13525.88"
"1485","13542.8"
"1486","13574.73"
"1487","13595.47"
"1488","13591.47"
"1489","13551.94"
"1490","13477.54"
"1491","13404.07"
"1492","13374.09"
"1493","13409.34"
"1494","13475.69"
"1495","13529.79"
"1496","13543.19"
"1497","13522.23"
"1498","13478.21"
"1499","13425.25"
"1500","13383.08"
"1501","13371.89"
"1502","13393.06"
"1503","13415.48"
"1504","13405.42"
"1505","13362.05"
"1506","13333.01"
"1507","13368.39"
"1508","13465.22"
"1509","13554.16"
"1510","13564.17"
"1511","13490.54"
"1512","13398.56"
"1513","13353.92"
"1514","13366.61"
"1515","13397.35"
"1516","13407.62"
"1517","13393.82"
"1518","13377.89"
"1519","13379.66"
"1520","13389.39"
"1521","13379.61"
"1522","13328.07"
"1523","13257.5"
"1524","13212.57"
"1525","13228.34"
"1526","13277.91"
"1527","13310.25"
"1528","13285.84"
"1529","13222.04"
"1530","13153.62"
"1531","13108.97"
"1532","13092.27"
"1533","13101.98"
"1534","13132.7"
"1535","13167.87"
"1536","13188.95"
"1537","13187.13"
"1538","13175.42"
"1539","13169.7"
"1540","13180.4"
"1541","13208.6"
"1542","13254.18"
"1543","13305.47"
"1544","13335.51"
"1545","13317.6"
"1546","13256.41"
"1547","13188.43"
"1548","13149.59"
"1549","13145.21"
"1550","13156.98"
"1551","13167.47"
"1552","13174.85"
"1553","13186.31"
"1554","13207.53"
"1555","13232.51"
"1556","13250.25"
"1557","13251.5"
"1558","13235.8"
"1559","13205.39"
"1560","13163.98"
"1561","13120.36"
"1562","13084.43"
"1563","13062.73"
"1564","13053.58"
"1565","13053.99"
"1566","13059.31"
"1567","13061.97"
"1568","13054.26"
"1569","13034.52"
"1570","13008.73"
"1571","12983.27"
"1572","12962.04"
"1573","12946.72"
"1574","12939.12"
"1575","12943.73"
"1576","12966.74"
"1577","13010.97"
"1578","13054.26"
"1579","13063.27"
"1580","13014.72"
"1581","12933.96"
"1582","12860.95"
"1583","12826.63"
"1584","12833.33"
"1585","12877.67"
"1586","12947.62"
"1587","13012.93"
"1588","13041.58"
"1589","13028.78"
"1590","13008.42"
"1591","13015.67"
"1592","13048.11"
"1593","13067.2"
"1594","13037.12"
"1595","12971.83"
"1596","12917.54"
"1597","12913.65"
"1598","12948.38"
"1599","12988.26"
"1600","13005.21"
"1601","12994.88"
"1602","12959.29"
"1603","12906.18"
"1604","12858.66"
"1605","12842.19"
"1606","12866.23"
"1607","12913.06"
"1608","12962.58"
"1609","13001.64"
"1610","13024.73"
"1611","13027.22"
"1612","13010.46"
"1613","12980.07"
"1614","12943.36"
"1615","12919.45"
"1616","12932.67"
"1617","12995.81"
"1618","13072.5"
"1619","13113.25"
"1620","13092.97"
"1621","13048.17"
"1622","13024.48"
"1623","13036.71"
"1624","13052.18"
"1625","13035.98"
"1626","12991.53"
"1627","12958.72"
"1628","12973.8"
"1629","13020.64"
"1630","13052.61"
"1631","13034.13"
"1632","12992.93"
"1633","12978.47"
"1634","13015.79"
"1635","13053.89"
"1636","13027.5"
"1637","12920.79"
"1638","12806.64"
"1639","12764.69"
"1640","12808.88"
"1641","12883.11"
"1642","12931.66"
"1643","12941.57"
"1644","12926.78"
"1645","12901.88"
"1646","12882.44"
"1647","12884.44"
"1648","12913.32"
"1649","12941.76"
"1650","12936.36"
"1651","12889.96"
"1652","12840.73"
"1653","12829.77"
"1654","12860.56"
"1655","12899.4"
"1656","12913.77"
"1657","12898.59"
"1658","12864.15"
"1659","12820.42"
"1660","12774.84"
"1661","12734.08"
"1662","12706.85"
"1663","12707"
"1664","12748.71"
"1665","12823.01"
"1666","12888.99"
"1667","12905.95"
"1668","12872.22"
"1669","12815.97"
"1670","12764.6"
"1671","12734.95"
"1672","12739.52"
"1673","12778.61"
"1674","12811.76"
"1675","12790.46"
"1676","12703.8"
"1677","12605.63"
"1678","12553.84"
"1679","12557.04"
"1680","12578.39"
"1681","12582.87"
"1682","12564.38"
"1683","12530.98"
"1684","12493.28"
"1685","12471.28"
"1686","12487.09"
"1687","12538.88"
"1688","12579.13"
"1689","12557.4"
"1690","12475.27"
"1691","12385.82"
"1692","12338.34"
"1693","12329.61"
"1694","12329.62"
"1695","12314.41"
"1696","12284.54"
"1697","12246.6"
"1698","12211.43"
"1699","12197.75"
"1700","12223.95"
"1701","12282.8"
"1702","12342.78"
"1703","12374.94"
"1704","12378.49"
"1705","12365.94"
"1706","12348.51"
"1707","12332.72"
"1708","12324.02"
"1709","12324.5"
"1710","12330.79"
"1711","12338.65"
"1712","12338.73"
"1713","12317.44"
"1714","12265.44"
"1715","12200.4"
"1716","12150.45"
"1717","12133.08"
"1718","12136.54"
"1719","12144.4"
"1720","12151.81"
"1721","12168.72"
"1722","12203.67"
"1723","12239.43"
"1724","12242.93"
"1725","12193.47"
"1726","12126.01"
"1727","12090.61"
"1728","12107.99"
"1729","12142.37"
"1730","12153.38"
"1731","12136.25"
"1732","12118.13"
"1733","12122.49"
"1734","12140.59"
"1735","12150.51"
"1736","12140.31"
"1737","12125.56"
"1738","12126.12"
"1739","12145.76"
"1740","12168.56"
"1741","12178.93"
"1742","12176.64"
"1743","12169.98"
"1744","12166.17"
"1745","12168.11"
"1746","12177.51"
"1747","12186.84"
"1748","12173.95"
"1749","12118.35"
"1750","12038.55"
"1751","11980.53"
"1752","11978.64"
"1753","12008.97"
"1754","12030.55"
"1755","12022.29"
"1756","12001.34"
"1757","11988.25"
"1758","11988.3"
"1759","11994.1"
"1760","11998.63"
"1761","11999.39"
"1762","11995.47"
"1763","11986.28"
"1764","11971.96"
"1765","11953.01"
"1766","11935.13"
"1767","11928.89"
"1768","11942.25"
"1769","11966.32"
"1770","11985.69"
"1771","11991.25"
"1772","11988.58"
"1773","11985.31"
"1774","11988.31"
"1775","12003.63"
"1776","12034.04"
"1777","12061.31"
"1778","12059.02"
"1779","12019.17"
"1780","11976.88"
"1781","11971.53"
"1782","12002.21"
"1783","12029.82"
"1784","12021.33"
"1785","11989.76"
"1786","11965.41"
"1787","11966.76"
"1788","11986.3"
"1789","12012.79"
"1790","12030.6"
"1791","12020.24"
"1792","11969.82"
"1793","11909.26"
"1794","11882.35"
"1795","11904.51"
"1796","11936.46"
"1797","11935.71"
"1798","11905.89"
"1799","11885.52"
"1800","11901.89"
"1801","11927.92"
"1802","11921.79"
"1803","11878.69"
"1804","11852.9"
"1805","11897.07"
"1806","11986.43"
"1807","12048.35"
"1808","12035.26"
"1809","11989.24"
"1810","11970.61"
"1811","11993.2"
"1812","12012.6"
"1813","11986.73"
"1814","11921.22"
"1815","11844.07"
"1816","11783.24"
"1817","11766.03"
"1818","11817.26"
"1819","11912.11"
"1820","11979.8"
"1821","11964.3"
"1822","11897.8"
"1823","11841.32"
"1824","11824.25"
"1825","11820.11"
"1826","11800.57"
"1827","11782.67"
"1828","11812.68"
"1829","11911.36"
"1830","12010.43"
"1831","12024.59"
"1832","11938.36"
"1833","11818.16"
"1834","11728.83"
"1835","11692.03"
"1836","11711.48"
"1837","11771.21"
"1838","11813.93"
"1839","11782.48"
"1840","11697.12"
"1841","11635.53"
"1842","11653.09"
"1843","11713.38"
"1844","11758.83"
"1845","11770.98"
"1846","11780.76"
"1847","11816.24"
"1848","11862.23"
"1849","11884.95"
"1850","11866.76"
"1851","11824.58"
"1852","11779.58"
"1853","11750.34"
"1854","11753.58"
"1855","11796.44"
"1856","11851.65"
"1857","11884.69"
"1858","11880.29"
"1859","11845.35"
"1860","11790.06"
"1861","11736.83"
"1862","11712.59"
"1863","11727.28"
"1864","11760.15"
"1865","11787.75"
"1866","11792.37"
"1867","11759.77"
"1868","11688.01"
"1869","11609.76"
"1870","11563.02"
"1871","11569.71"
"1872","11637.33"
"1873","11760.27"
"1874","11877.54"
"1875","11914.43"
"1876","11860.82"
"1877","11791.11"
"1878","11774.81"
"1879","11808.64"
"1880","11859.25"
"1881","11892.59"
"1882","11873.62"
"1883","11774.87"
"1884","11649.16"
"1885","11596.82"
"1886","11668.54"
"1887","11780.88"
"1888","11833.31"
"1889","11811.18"
"1890","11769.7"
"1891","11748.75"
"1892","11723.14"
"1893","11654.38"
"1894","11556.73"
"1895","11501.75"
"1896","11543.35"
"1897","11629.02"
"1898","11673.17"
"1899","11642.95"
"1900","11580.26"
"1901","11529.17"
"1902","11508.79"
"1903","11527.54"
"1904","11579.16"
"1905","11630.87"
"1906","11650.47"
"1907","11637.37"
"1908","11607.98"
"1909","11580.15"
"1910","11574.57"
"1911","11609.46"
"1912","11667.75"
"1913","11709.02"
"1914","11708.52"
"1915","11686.44"
"1916","11669.56"
"1917","11665.59"
"1918","11667.08"
"1919","11668.45"
"1920","11671.64"
"1921","11679.73"
"1922","11686.76"
"1923","11678.46"
"1924","11645.63"
"1925","11600.31"
"1926","11559.32"
"1927","11526.83"
"1928","11493.78"
"1929","11455.04"
"1930","11425.78"
"1931","11426.33"
"1932","11458.99"
"1933","11505.13"
"1934","11546.37"
"1935","11571.32"
"1936","11570.86"
"1937","11538.81"
"1938","11472.75"
"1939","11380.07"
"1940","11319.62"
"1941","11365.54"
"1942","11508.15"
"1943","11626.91"
"1944","11620.19"
"1945","11537.93"
"1946","11481.73"
"1947","11486.23"
"1948","11494.64"
"1949","11455.6"
"1950","11387.54"
"1951","11333.43"
"1952","11317.09"
"1953","11335.97"
"1954","11382.62"
"1955","11432.39"
"1956","11455.04"
"1957","11443.01"
"1958","11419.34"
"1959","11404.65"
"1960","11394.08"
"1961","11374.28"
"1962","11340.5"
"1963","11299.13"
"1964","11258.58"
"1965","11233.85"
"1966","11241.46"
"1967","11277.81"
"1968","11314.96"
"1969","11327.44"
"1970","11308.64"
"1971","11258.3"
"1972","11198.7"
"1973","11176.96"
"1974","11218.88"
"1975","11254.91"
"1976","11194.95"
"1977","11052.72"
"1978","10944.29"
"1979","10953.06"
"1980","11027.13"
"1981","11086.65"
"1982","11105.17"
"1983","11102.03"
"1984","11092.72"
"1985","11076.17"
"1986","11049.41"
"1987","11027.1"
"1988","11036.7"
"1989","11081.72"
"1990","11104.06"
"1991","11044.21"
"1992","10932.2"
"1993","10852.01"
"1994","10851.65"
"1995","10903.3"
"1996","10971.28"
"1997","11032.97"
"1998","11072.05"
"1999","11073.84"
"2000","11026.33"
"2001","10926.86"
"2002","10828.61"
"2003","10804.3"
"2004","10856.88"
"2005","10899.97"
"2006","10866.85"
"2007","10808.29"
"2008","10805.45"
"2009","10864.94"
"2010","10920.13"
"2011","10920.17"
"2012","10877.61"
"2013","10817.89"
"2014","10761.33"
"2015","10724.53"
"2016","10713.25"
"2017","10707.64"
"2018","10687.95"
"2019","10670.14"
"2020","10688.84"
"2021","10743.61"
"2022","10774.1"
"2023","10732.15"
"2024","10679.38"
"2025","10715.18"
"2026","10827.94"
"2027","10873.05"
"2028","10751.58"
"2029","10579.74"
"2030","10519.09"
"2031","10583.31"
"2032","10663.6"
"2033","10685.82"
"2034","10676.37"
"2035","10673.09"
"2036","10667.49"
"2037","10625.7"
"2038","10547.99"
"2039","10493.12"
"2040","10509.51"
"2041","10552.32"
"2042","10545.61"
"2043","10481.28"
"2044","10426.41"
"2045","10429.99"
"2046","10463.78"
"2047","10484.35"
"2048","10471.85"
"2049","10423.17"
"2050","10345.13"
"2051","10264.86"
"2052","10210.1"
"2053","10193.97"
"2054","10222.58"
"2055","10275.66"
"2056","10299.04"
"2057","10252.44"
"2058","10160.82"
"2059","10065.45"
"2060","10004.35"
"2061","10012.91"
"2062","10086.5"
"2063","10130.09"
"2064","10055.35"
"2065","9919.762"
"2066","9844.898"
"2067","9868.212"
"2068","9917.043"
"2069","9929.259"
"2070","9914.313"
"2071","9897.8"
"2072","9883.473"
"2073","9858.855"
"2074","9820.475"
"2075","9784.637"
"2076","9768.095"
"2077","9773.579"
"2078","9798.005"
"2079","9835.401"
"2080","9876.488"
"2081","9912.016"
"2082","9933.561"
"2083","9934.209"
"2084","9922.189"
"2085","9915.04"
"2086","9919.959"
"2087","9926.326"
"2088","9923.074"
"2089","9905.824"
"2090","9872.629"
"2091","9827.925"
"2092","9781.79"
"2093","9741.854"
"2094","9709.249"
"2095","9685.574"
"2096","9682.844"
"2097","9716.866"
"2098","9774.041"
"2099","9805.396"
"2100","9779.075"
"2101","9727.479"
"2102","9693.648"
"2103","9691.018"
"2104","9715.044"
"2105","9740.134"
"2106","9708.414"
"2107","9587.632"
"2108","9470.318"
"2109","9473.272"
"2110","9567.531"
"2111","9615.509"
"2112","9556.467"
"2113","9483.349"
"2114","9484.467"
"2115","9525.512"
"2116","9533.844"
"2117","9502.201"
"2118","9481.735"
"2119","9486.75"
"2120","9442.472"
"2121","9286.484"
"2122","9118.309"
"2123","9095.645"
"2124","9215.479"
"2125","9311.061"
"2126","9284.37"
"2127","9235.399"
"2128","9273.349"
"2129","9340.956"
"2130","9311.563"
"2131","9188.859"
"2132","9121.189"
"2133","9194.377"
"2134","9297.828"
"2135","9303.645"
"2136","9217.736"
"2137","9108.405"
"2138","9029.193"
"2139","9016.189"
"2140","9075.377"
"2141","9129.249"
"2142","9100.837"
"2143","9036.144"
"2144","9036.279"
"2145","9108.693"
"2146","9153.767"
"2147","9104.662"
"2148","9002.742"
"2149","8904.467"
"2150","8838.119"
"2151","8818.253"
"2152","8831.775"
"2153","8835.911"
"2154","8809.989"
"2155","8794.404"
"2156","8828.188"
"2157","8874.595"
"2158","8868.286"
"2159","8807.584"
"2160","8753.014"
"2161","8750.559"
"2162","8806.845"
"2163","8911.349"
"2164","8986.077"
"2165","8935.086"
"2166","8775.243"
"2167","8618.45"
"2168","8537.965"
"2169","8526.541"
"2170","8561.958"
"2171","8594.77"
"2172","8572.304"
"2173","8507.067"
"2174","8456.295"
"2175","8428.595"
"2176","8355.335"
"2177","8206.475"
"2178","8118.617"
"2179","8239.789"
"2180","8460.705"
"2181","8536.424"
"2182","8421.512"
"2183","8314.147"
"2184","8346.044"
"2185","8426.165"
"2186","8440.523"
"2187","8375.662"
"2188","8260.587"
"2189","8151.446"
"2190","8128.324"
"2191","8201.559"
"2192","8242.723"
"2193","8146.502"
"2194","7988.774"
"2195","7889.79"
"2196","7881.138"
"2197","7936.853"
"2198","8010.585"
"2199","8029.507"
"2200","7958.934"
"2201","7885.375"
"2202","7896.16"
"2203","7920.581"
"2204","7828.271"
"2205","7669.452"
"2206","7660.178"
"2207","7856.236"
"2208","7990.501"
"2209","7848.264"
"2210","7605.39"
"2211","7518.947"
"2212","7584.145"
"2213","7643.031"
"2214","7619.243"
"2215","7538.798"
"2216","7440.298"
"2217","7378.368"
"2218","7395.503"
"2219","7448.952"
"2220","7469.742"
"2221","7450.163"
"2222","7427.861"
"2223","7419.334"
"2224","7407.591"
"2225","7378.589"
"2226","7336.414"
"2227","7291.644"
"2228","7275.226"
"2229","7321.839"
"2230","7375.289"
"2231","7302.015"
"2232","7087.202"
"2233","6924.636"
"2234","6949.753"
"2235","7013.957"
"2236","6936.438"
"2237","6786.503"
"2238","6743.602"
"2239","6816.883"
"2240","6856.601"
"2241","6793.835"
"2242","6718.455"
"2243","6708.06"
"2244","6730.416"
"2245","6730.486"
"2246","6677.313"
"2247","6554.299"
"2248","6402.189"
"2249","6314.671"
"2250","6322.639"
"2251","6340.594"
"2252","6300.917"
"2253","6244.437"
"2254","6226.792"
"2255","6230.731"
"2256","6207.627"
"2257","6144.314"
"2258","6058.623"
"2259","5963.919"
"2260","5864.546"
"2261","5765.186"
"2262","5674.171"
"2263","5603.847"
"2264","5587.442"
"2265","5659.315"
"2266","5748.217"
"2267","5705.897"
"2268","5514.494"
"2269","5339.695"
"2270","5292.995"
"2271","5308.327"
"2272","5303.959"
"2273","5265.818"
"2274","5198.751"
"2275","5078.791"
"2276","4868.116"
"2277","4630.069"
"2278","4538.542"
"2279","4643.392"
"2280","4735.161"
"2281","4638.737"
"2282","4428.015"
"2283","4226.997"
"2284","4091.896"
"2285","4045.35"
"2286","4058.073"
"2287","4059.214"
"2288","4007.821"
"2289","3907.803"
"2290","3785.7"
"2291","3717.536"
"2292","3748.943"
"2293","3737.404"
"2294","3511.891"
"2295","3183.331"
"2296","3009.601"
"2297","3019.226"
"2298","3017.286"
"2299","2915.33"
"2300","2820.559"
