,"Scan 00863"
"400","15530.87"
"401","15519.61"
"402","15502.83"
"403","15491.32"
"404","15495.79"
"405","15524.82"
"406","15568.96"
"407","15609.73"
"408","15628.72"
"409","15609.28"
"410","15556.56"
"411","15490.81"
"412","15432.41"
"413","15400.92"
"414","15401.08"
"415","15423.83"
"416","15459.66"
"417","15499.21"
"418","15536.17"
"419","15567.99"
"420","15592.37"
"421","15607"
"422","15609.37"
"423","15596.59"
"424","15565.74"
"425","15513.97"
"426","15444.25"
"427","15371.64"
"428","15312.68"
"429","15283.72"
"430","15293.6"
"431","15330.91"
"432","15380.95"
"433","15429.13"
"434","15464.26"
"435","15486.61"
"436","15498.88"
"437","15503.8"
"438","15503.86"
"439","15500.8"
"440","15496.1"
"441","15491.25"
"442","15487.41"
"443","15484.06"
"444","15480.1"
"445","15474.45"
"446","15465.97"
"447","15453"
"448","15433.69"
"449","15406.22"
"450","15369.67"
"451","15330.76"
"452","15299.91"
"453","15287.5"
"454","15302.07"
"455","15334.4"
"456","15365.09"
"457","15374.76"
"458","15346.12"
"459","15285.99"
"460","15217.1"
"461","15162.31"
"462","15142.68"
"463","15155.16"
"464","15178.72"
"465","15192.01"
"466","15175.08"
"467","15129.2"
"468","15073.36"
"469","15026.93"
"470","15008.43"
"471","15020.95"
"472","15053.46"
"473","15094.49"
"474","15132.83"
"475","15161.58"
"476","15178.1"
"477","15179.94"
"478","15164.94"
"479","15137.26"
"480","15107.81"
"481","15087.75"
"482","15087.73"
"483","15105.68"
"484","15125.33"
"485","15129.78"
"486","15102.7"
"487","15043.9"
"488","14971.83"
"489","14905.91"
"490","14865.03"
"491","14854"
"492","14860.95"
"493","14873.07"
"494","14877.87"
"495","14870.33"
"496","14854.5"
"497","14834.92"
"498","14816.02"
"499","14799.14"
"500","14781.92"
"501","14761.76"
"502","14736.17"
"503","14704.8"
"504","14669.89"
"505","14633.79"
"506","14598.8"
"507","14565.87"
"508","14534.35"
"509","14503.5"
"510","14472.62"
"511","14440.99"
"512","14407.93"
"513","14372.78"
"514","14334.96"
"515","14296.81"
"516","14263.7"
"517","14241.08"
"518","14234.15"
"519","14242.39"
"520","14259.71"
"521","14279.82"
"522","14296.63"
"523","14307.6"
"524","14313.32"
"525","14314.54"
"526","14311.86"
"527","14304.21"
"528","14289.15"
"529","14264.19"
"530","14227.21"
"531","14181.19"
"532","14132.8"
"533","14088.78"
"534","14055.43"
"535","14034.48"
"536","14024.64"
"537","14024.6"
"538","14032.63"
"539","14042.72"
"540","14046.51"
"541","14035.63"
"542","14003.92"
"543","13962.86"
"544","13932.42"
"545","13932.55"
"546","13978.35"
"547","14053.15"
"548","14127.37"
"549","14171.53"
"550","14163.16"
"551","14117.34"
"552","14061.72"
"553","14023.85"
"554","14024.27"
"555","14053.16"
"556","14092.5"
"557","14124.33"
"558","14135.13"
"559","14126.57"
"560","14103.61"
"561","14071.21"
"562","14035.19"
"563","14003.83"
"564","13985.82"
"565","13989.71"
"566","14016.25"
"567","14049.3"
"568","14070.6"
"569","14062.14"
"570","14019.12"
"571","13958.75"
"572","13900.33"
"573","13862.7"
"574","13851.51"
"575","13855.28"
"576","13861.44"
"577","13857.87"
"578","13841.86"
"579","13820.1"
"580","13799.66"
"581","13787.28"
"582","13785.28"
"583","13792.65"
"584","13808.29"
"585","13830.79"
"586","13855.64"
"587","13876.6"
"588","13887.4"
"589","13883.07"
"590","13866.88"
"591","13845.52"
"592","13825.64"
"593","13812.95"
"594","13808.64"
"595","13812.64"
"596","13824.86"
"597","13843.85"
"598","13863.8"
"599","13878.03"
"600","13879.89"
"601","13867.17"
"602","13847.33"
"603","13829.08"
"604","13821.03"
"605","13825.71"
"606","13836.34"
"607","13845.35"
"608","13845.5"
"609","13836.19"
"610","13823.94"
"611","13815.59"
"612","13817.5"
"613","13829.41"
"614","13846.18"
"615","13862.62"
"616","13873.98"
"617","13879.37"
"618","13879.77"
"619","13876.18"
"620","13869.16"
"621","13857.02"
"622","13837.38"
"623","13807.85"
"624","13768.46"
"625","13726.92"
"626","13692.44"
"627","13674.17"
"628","13675.89"
"629","13690.57"
"630","13709.94"
"631","13725.89"
"632","13736.31"
"633","13746.83"
"634","13763.55"
"635","13792.05"
"636","13829.05"
"637","13863.98"
"638","13886.11"
"639","13886.29"
"640","13869.21"
"641","13846.7"
"642","13830.57"
"643","13829.71"
"644","13838.47"
"645","13846.68"
"646","13844.25"
"647","13825.84"
"648","13799.82"
"649","13776.97"
"650","13767.9"
"651","13775.1"
"652","13787.31"
"653","13791.98"
"654","13777.15"
"655","13744.2"
"656","13708.02"
"657","13684.09"
"658","13686.4"
"659","13713.86"
"660","13756.34"
"661","13803.57"
"662","13845.69"
"663","13874.8"
"664","13883.69"
"665","13865.16"
"666","13818.73"
"667","13763.72"
"668","13723.08"
"669","13719.45"
"670","13757.58"
"671","13812.95"
"672","13858.33"
"673","13867.82"
"674","13840.26"
"675","13797.51"
"676","13762.29"
"677","13754.74"
"678","13773.19"
"679","13804.6"
"680","13835.9"
"681","13856.59"
"682","13867.54"
"683","13872.68"
"684","13875.94"
"685","13879.75"
"686","13883.21"
"687","13884.99"
"688","13883.86"
"689","13882.47"
"690","13888.06"
"691","13908.15"
"692","13948.93"
"693","14001.43"
"694","14047"
"695","14066.87"
"696","14047.35"
"697","14001.36"
"698","13950.48"
"699","13916.22"
"700","13910.88"
"701","13923.51"
"702","13939.54"
"703","13944.72"
"704","13934.93"
"705","13919"
"706","13906.61"
"707","13906.65"
"708","13918.76"
"709","13936.52"
"710","13953.41"
"711","13964.21"
"712","13970.22"
"713","13974.85"
"714","13981.49"
"715","13990.02"
"716","13992.04"
"717","13977.98"
"718","13938.82"
"719","13881.49"
"720","13831.28"
"721","13814.44"
"722","13853.57"
"723","13935.99"
"724","14029.16"
"725","14100.38"
"726","14124.89"
"727","14110.24"
"728","14072.28"
"729","14026.79"
"730","13986.26"
"731","13957.2"
"732","13945.43"
"733","13956.26"
"734","13985.15"
"735","14019"
"736","14044.47"
"737","14050.61"
"738","14042.03"
"739","14029.53"
"740","14023.87"
"741","14031.82"
"742","14049.26"
"743","14070.26"
"744","14088.99"
"745","14102.66"
"746","14112.22"
"747","14118.82"
"748","14123.68"
"749","14128.81"
"750","14136.6"
"751","14149.46"
"752","14168.38"
"753","14189.18"
"754","14206.49"
"755","14215.06"
"756","14215.42"
"757","14216.95"
"758","14229.8"
"759","14262.98"
"760","14312.03"
"761","14363.3"
"762","14403.01"
"763","14420.24"
"764","14416.84"
"765","14398.2"
"766","14369.68"
"767","14336.25"
"768","14302.1"
"769","14271.37"
"770","14248.26"
"771","14238.56"
"772","14249.23"
"773","14287.24"
"774","14355.4"
"775","14435.99"
"776","14505.07"
"777","14538.86"
"778","14529.49"
"779","14498.84"
"780","14472.02"
"781","14472.67"
"782","14502.58"
"783","14546.68"
"784","14589.45"
"785","14618.21"
"786","14633.79"
"787","14641.12"
"788","14645.09"
"789","14648.89"
"790","14652.53"
"791","14655.75"
"792","14658.32"
"793","14660.68"
"794","14663.8"
"795","14668.63"
"796","14675.98"
"797","14686.04"
"798","14698.85"
"799","14714.42"
"800","14732.13"
"801","14750.32"
"802","14767.27"
"803","14781.08"
"804","14787.91"
"805","14782.73"
"806","14760.5"
"807","14721.13"
"808","14681.53"
"809","14662.33"
"810","14683.55"
"811","14745.46"
"812","14823.52"
"813","14891.64"
"814","14927.16"
"815","14934.07"
"816","14928.92"
"817","14928.27"
"818","14940.68"
"819","14954.31"
"820","14954.18"
"821","14926.18"
"822","14874.08"
"823","14818.05"
"824","14778.9"
"825","14773.47"
"826","14798.03"
"827","14842.11"
"828","14895.27"
"829","14947.37"
"830","14988.85"
"831","15010.21"
"832","15003.4"
"833","14976.59"
"834","14948.01"
"835","14936"
"836","14952"
"837","14985.22"
"838","15020.36"
"839","15042.55"
"840","15047.49"
"841","15042.42"
"842","15035.2"
"843","15031.92"
"844","15028.46"
"845","15016.82"
"846","14989.1"
"847","14947.85"
"848","14914.98"
"849","14914.5"
"850","14967.47"
"851","15060.95"
"852","15160.33"
"853","15230.7"
"854","15249.36"
"855","15232.17"
"856","15202.61"
"857","15183.5"
"858","15182.32"
"859","15190.85"
"860","15200.18"
"861","15203.51"
"862","15205.36"
"863","15214.01"
"864","15237.57"
"865","15276.53"
"866","15319.25"
"867","15353.06"
"868","15366.5"
"869","15359.24"
"870","15336.65"
"871","15304.14"
"872","15269.34"
"873","15245.03"
"874","15244.8"
"875","15280.96"
"876","15347.42"
"877","15424.07"
"878","15490.41"
"879","15530.7"
"880","15546.28"
"881","15542.3"
"882","15524.05"
"883","15500.2"
"884","15483.06"
"885","15485.12"
"886","15515.08"
"887","15561.86"
"888","15607.94"
"889","15636.04"
"890","15642.23"
"891","15642.17"
"892","15653.07"
"893","15689.16"
"894","15742.81"
"895","15796.54"
"896","15832.91"
"897","15843.02"
"898","15834.66"
"899","15817.55"
"900","15801.06"
"901","15791.02"
"902","15791.19"
"903","15805.32"
"904","15833.03"
"905","15863.7"
"906","15885.1"
"907","15886.03"
"908","15869.93"
"909","15850.99"
"910","15843.64"
"911","15857.59"
"912","15887.57"
"913","15925.39"
"914","15963.06"
"915","15996.47"
"916","16024.99"
"917","16048.08"
"918","16063.65"
"919","16063.41"
"920","16037.64"
"921","15977.59"
"922","15898.6"
"923","15841.04"
"924","15846.47"
"925","15941.47"
"926","16085.42"
"927","16218.76"
"928","16283.43"
"929","16267.03"
"930","16210.8"
"931","16158.99"
"932","16147.48"
"933","16169.43"
"934","16204.52"
"935","16232.7"
"936","16245.69"
"937","16250.23"
"938","16254.06"
"939","16262.63"
"940","16268.68"
"941","16260.6"
"942","16227.12"
"943","16172.22"
"944","16120.57"
"945","16098.33"
"946","16125.06"
"947","16182.16"
"948","16237.27"
"949","16258.53"
"950","16237.09"
"951","16196.13"
"952","16161.18"
"953","16153.92"
"954","16173.27"
"955","16209.93"
"956","16254.63"
"957","16299.52"
"958","16338.78"
"959","16366.71"
"960","16378.48"
"961","16374.04"
"962","16355.06"
"963","16323.32"
"964","16284.99"
"965","16252.13"
"966","16237.2"
"967","16249.56"
"968","16282.02"
"969","16321.86"
"970","16356.49"
"971","16378.31"
"972","16385.92"
"973","16378.26"
"974","16356.18"
"975","16329.64"
"976","16311.33"
"977","16313.57"
"978","16336.39"
"979","16366.17"
"980","16388.55"
"981","16392.7"
"982","16382.83"
"983","16367.2"
"984","16353.84"
"985","16346.46"
"986","16344.51"
"987","16347.23"
"988","16354.26"
"989","16366.62"
"990","16385.66"
"991","16412.51"
"992","16445.11"
"993","16478.69"
"994","16508.39"
"995","16531.77"
"996","16553.41"
"997","16579.23"
"998","16614.31"
"999","16653.05"
"1000","16682.43"
"1001","16689.33"
"1002","16668.79"
"1003","16635.19"
"1004","16605.71"
"1005","16597.53"
"1006","16623.86"
"1007","16671.17"
"1008","16714.91"
"1009","16730.89"
"1010","16713.82"
"1011","16685.57"
"1012","16670.12"
"1013","16686.4"
"1014","16725.79"
"1015","16770.31"
"1016","16802.35"
"1017","16814.96"
"1018","16813.74"
"1019","16805.01"
"1020","16795.7"
"1021","16795.21"
"1022","16813.61"
"1023","16860.12"
"1024","16926.55"
"1025","16988.56"
"1026","17021.23"
"1027","17011.03"
"1028","16980.48"
"1029","16959.16"
"1030","16974.22"
"1031","17020.37"
"1032","17069.57"
"1033","17093.37"
"1034","17078.13"
"1035","17043.89"
"1036","17015.33"
"1037","17014.66"
"1038","17042.65"
"1039","17089.23"
"1040","17144.25"
"1041","17198.41"
"1042","17243.75"
"1043","17272.44"
"1044","17278.94"
"1045","17270.51"
"1046","17258.82"
"1047","17255.26"
"1048","17263.49"
"1049","17278.68"
"1050","17295.55"
"1051","17309.41"
"1052","17317.65"
"1053","17318.1"
"1054","17308.95"
"1055","17293.58"
"1056","17279.06"
"1057","17272.56"
"1058","17280.33"
"1059","17306.52"
"1060","17355.04"
"1061","17427.34"
"1062","17506.67"
"1063","17567.94"
"1064","17586.57"
"1065","17562.07"
"1066","17526.28"
"1067","17513.34"
"1068","17546.76"
"1069","17605.12"
"1070","17655.13"
"1071","17665.63"
"1072","17640.07"
"1073","17609.89"
"1074","17607.3"
"1075","17645.78"
"1076","17695.2"
"1077","17719.18"
"1078","17687.5"
"1079","17616.92"
"1080","17545.89"
"1081","17512.28"
"1082","17527.41"
"1083","17568.17"
"1084","17609.09"
"1085","17630.8"
"1086","17637.08"
"1087","17637.29"
"1088","17640.26"
"1089","17647.43"
"1090","17655.06"
"1091","17659.32"
"1092","17659.54"
"1093","17661.21"
"1094","17670.47"
"1095","17691.93"
"1096","17721.03"
"1097","17749.97"
"1098","17770.96"
"1099","17777.52"
"1100","17764.47"
"1101","17726.69"
"1102","17666.93"
"1103","17608.96"
"1104","17580.01"
"1105","17602.45"
"1106","17659.14"
"1107","17713.84"
"1108","17730.95"
"1109","17703.52"
"1110","17660.61"
"1111","17633.6"
"1112","17643.83"
"1113","17678.68"
"1114","17718.28"
"1115","17744.17"
"1116","17752.44"
"1117","17747.75"
"1118","17734.91"
"1119","17721.13"
"1120","17717.19"
"1121","17734.15"
"1122","17777.41"
"1123","17830.03"
"1124","17869.56"
"1125","17875.91"
"1126","17857.27"
"1127","17840.3"
"1128","17851.65"
"1129","17894.25"
"1130","17933.29"
"1131","17930.54"
"1132","17862"
"1133","17762.85"
"1134","17683.68"
"1135","17671.09"
"1136","17722.89"
"1137","17804.47"
"1138","17880.83"
"1139","17931.99"
"1140","17961.71"
"1141","17975.82"
"1142","17980.07"
"1143","17979.79"
"1144","17980.17"
"1145","17985.9"
"1146","17995.85"
"1147","18005.24"
"1148","18009.29"
"1149","18006.78"
"1150","18001.5"
"1151","17997.66"
"1152","17998.46"
"1153","18003.58"
"1154","18011.98"
"1155","18022.68"
"1156","18035.57"
"1157","18050.98"
"1158","18069.26"
"1159","18091.09"
"1160","18117.56"
"1161","18149.75"
"1162","18187.51"
"1163","18227.16"
"1164","18264.43"
"1165","18295.17"
"1166","18315.79"
"1167","18322.98"
"1168","18313.69"
"1169","18290.23"
"1170","18259.81"
"1171","18229.88"
"1172","18207.22"
"1173","18197.36"
"1174","18205.7"
"1175","18234.37"
"1176","18270.38"
"1177","18296.27"
"1178","18296.72"
"1179","18281.27"
"1180","18275.76"
"1181","18305.75"
"1182","18372.7"
"1183","18445.03"
"1184","18488.77"
"1185","18483.64"
"1186","18450.02"
"1187","18415.79"
"1188","18405.19"
"1189","18417.7"
"1190","18442.47"
"1191","18468.98"
"1192","18493.77"
"1193","18519.49"
"1194","18548.98"
"1195","18581.36"
"1196","18609.26"
"1197","18624.64"
"1198","18622.61"
"1199","18610.1"
"1200","18596.84"
"1201","18592.01"
"1202","18599.91"
"1203","18622.42"
"1204","18661.02"
"1205","18708.72"
"1206","18750.06"
"1207","18769.3"
"1208","18759.49"
"1209","18731.02"
"1210","18696.27"
"1211","18666.94"
"1212","18651.92"
"1213","18659.42"
"1214","18695.48"
"1215","18747.5"
"1216","18793.23"
"1217","18811.25"
"1218","18801.41"
"1219","18784.6"
"1220","18782.51"
"1221","18804.64"
"1222","18837.73"
"1223","18866.02"
"1224","18878.03"
"1225","18878.05"
"1226","18874.02"
"1227","18872.9"
"1228","18874.06"
"1229","18873.45"
"1230","18867.56"
"1231","18862.59"
"1232","18873.01"
"1233","18913.28"
"1234","18983.12"
"1235","19059.5"
"1236","19117.49"
"1237","19140.92"
"1238","19138.84"
"1239","19124.76"
"1240","19110.43"
"1241","19097.71"
"1242","19085.07"
"1243","19071.39"
"1244","19059.91"
"1245","19056.65"
"1246","19067.4"
"1247","19090.65"
"1248","19116.9"
"1249","19136.28"
"1250","19143"
"1251","19139.1"
"1252","19127.54"
"1253","19111.78"
"1254","19097"
"1255","19088.79"
"1256","19091.39"
"1257","19100.43"
"1258","19108.12"
"1259","19107.52"
"1260","19102.05"
"1261","19102.22"
"1262","19118.33"
"1263","19151.3"
"1264","19191.37"
"1265","19228.22"
"1266","19256.42"
"1267","19279.79"
"1268","19303.2"
"1269","19328"
"1270","19344.19"
"1271","19339.44"
"1272","19305.97"
"1273","19261.77"
"1274","19233.96"
"1275","19246.74"
"1276","19294.08"
"1277","19352.15"
"1278","19397.48"
"1279","19419.5"
"1280","19419.85"
"1281","19400.69"
"1282","19367.61"
"1283","19331.31"
"1284","19302.89"
"1285","19289.25"
"1286","19287.17"
"1287","19291.94"
"1288","19298.76"
"1289","19302.66"
"1290","19298.57"
"1291","19283.02"
"1292","19262.73"
"1293","19248.53"
"1294","19250.72"
"1295","19273.76"
"1296","19318.4"
"1297","19384.74"
"1298","19459.64"
"1299","19517.44"
"1300","19532.35"
"1301","19499.44"
"1302","19443.58"
"1303","19391.89"
"1304","19363.4"
"1305","19359.64"
"1306","19379.87"
"1307","19420.92"
"1308","19471.65"
"1309","19519.25"
"1310","19552.52"
"1311","19568.43"
"1312","19566.58"
"1313","19547.83"
"1314","19523.13"
"1315","19508.27"
"1316","19517.52"
"1317","19545.05"
"1318","19570.92"
"1319","19575.82"
"1320","19560.32"
"1321","19544.85"
"1322","19550.32"
"1323","19580.73"
"1324","19616.24"
"1325","19635.29"
"1326","19628.63"
"1327","19611.48"
"1328","19601.99"
"1329","19613.28"
"1330","19644.25"
"1331","19691.28"
"1332","19748.02"
"1333","19796.95"
"1334","19817.7"
"1335","19795.7"
"1336","19750.55"
"1337","19714.21"
"1338","19714.32"
"1339","19741.6"
"1340","19768.2"
"1341","19768.6"
"1342","19748.12"
"1343","19733.03"
"1344","19748.64"
"1345","19793.93"
"1346","19843.93"
"1347","19873.27"
"1348","19870.54"
"1349","19841.02"
"1350","19791.07"
"1351","19735.61"
"1352","19702.8"
"1353","19721.87"
"1354","19798.95"
"1355","19893.01"
"1356","19957.24"
"1357","19961.2"
"1358","19918.4"
"1359","19849.68"
"1360","19774.87"
"1361","19710.21"
"1362","19671.2"
"1363","19668.5"
"1364","19690.63"
"1365","19719.71"
"1366","19740.62"
"1367","19754.6"
"1368","19768.98"
"1369","19789.29"
"1370","19807.05"
"1371","19807.22"
"1372","19777.5"
"1373","19733.84"
"1374","19708.65"
"1375","19731.56"
"1376","19791.67"
"1377","19849.16"
"1378","19865.53"
"1379","19837.19"
"1380","19790.75"
"1381","19753.03"
"1382","19731.64"
"1383","19714.21"
"1384","19687.82"
"1385","19652.82"
"1386","19625.95"
"1387","19624.64"
"1388","19650.64"
"1389","19682.77"
"1390","19698.17"
"1391","19689.04"
"1392","19673.33"
"1393","19671.46"
"1394","19691.79"
"1395","19718.55"
"1396","19733.1"
"1397","19726.27"
"1398","19710.8"
"1399","19702.55"
"1400","19707.65"
"1401","19706.11"
"1402","19673.57"
"1403","19600.65"
"1404","19524.03"
"1405","19489.3"
"1406","19523.63"
"1407","19589.37"
"1408","19634.64"
"1409","19622.22"
"1410","19573.19"
"1411","19523.14"
"1412","19502.03"
"1413","19514.79"
"1414","19559.41"
"1415","19630.4"
"1416","19705.19"
"1417","19755.92"
"1418","19760.13"
"1419","19724.57"
"1420","19665.88"
"1421","19600.96"
"1422","19547.88"
"1423","19525.21"
"1424","19546.12"
"1425","19589.12"
"1426","19619.08"
"1427","19607.28"
"1428","19569.18"
"1429","19538.74"
"1430","19545.66"
"1431","19587.6"
"1432","19648.11"
"1433","19710.37"
"1434","19755.75"
"1435","19764.73"
"1436","19722.34"
"1437","19650.07"
"1438","19586.83"
"1439","19567.32"
"1440","19590.45"
"1441","19637.65"
"1442","19690.31"
"1443","19730.86"
"1444","19742.22"
"1445","19711.61"
"1446","19662.76"
"1447","19637.74"
"1448","19671.76"
"1449","19741"
"1450","19791.95"
"1451","19778.29"
"1452","19716.18"
"1453","19652.86"
"1454","19629.56"
"1455","19636.2"
"1456","19637.65"
"1457","19603.61"
"1458","19543.93"
"1459","19487.57"
"1460","19460.07"
"1461","19459.87"
"1462","19472.99"
"1463","19485.45"
"1464","19483.93"
"1465","19455.36"
"1466","19390.59"
"1467","19306.99"
"1468","19233.02"
"1469","19193.07"
"1470","19185.53"
"1471","19198.55"
"1472","19220.03"
"1473","19236.49"
"1474","19233.94"
"1475","19203.58"
"1476","19164.74"
"1477","19146.18"
"1478","19166.8"
"1479","19197.24"
"1480","19193.29"
"1481","19126.1"
"1482","19034.59"
"1483","18976.46"
"1484","18990.9"
"1485","19043.98"
"1486","19083.67"
"1487","19072.84"
"1488","19026.47"
"1489","18970.95"
"1490","18928.13"
"1491","18905.88"
"1492","18909.37"
"1493","18936.91"
"1494","18968.42"
"1495","18980.76"
"1496","18961.08"
"1497","18920.45"
"1498","18873.35"
"1499","18833.13"
"1500","18810.92"
"1501","18817.42"
"1502","18849.39"
"1503","18879.62"
"1504","18878.98"
"1505","18844.98"
"1506","18814.32"
"1507","18825.89"
"1508","18881.88"
"1509","18938.7"
"1510","18951.42"
"1511","18918.02"
"1512","18881.69"
"1513","18885.21"
"1514","18922.66"
"1515","18945.08"
"1516","18906.25"
"1517","18819.46"
"1518","18741.61"
"1519","18724.51"
"1520","18754.36"
"1521","18777.85"
"1522","18749.28"
"1523","18689.68"
"1524","18652.71"
"1525","18680.27"
"1526","18738.18"
"1527","18762.62"
"1528","18706.25"
"1529","18602.95"
"1530","18511.46"
"1531","18476.51"
"1532","18489.58"
"1533","18529.62"
"1534","18576.36"
"1535","18612.07"
"1536","18619.47"
"1537","18592.03"
"1538","18547.19"
"1539","18505.56"
"1540","18481.25"
"1541","18477.14"
"1542","18494.84"
"1543","18527.57"
"1544","18557.54"
"1545","18566.68"
"1546","18548.98"
"1547","18510.64"
"1548","18458.81"
"1549","18405.79"
"1550","18367.95"
"1551","18360.09"
"1552","18380.38"
"1553","18417.29"
"1554","18458.97"
"1555","18492.32"
"1556","18503.66"
"1557","18482.48"
"1558","18433.89"
"1559","18367.8"
"1560","18296.03"
"1561","18236.71"
"1562","18209.4"
"1563","18218.97"
"1564","18234.15"
"1565","18218.37"
"1566","18159.88"
"1567","18090.71"
"1568","18046.76"
"1569","18042.1"
"1570","18063.23"
"1571","18095.09"
"1572","18128.29"
"1573","18158.5"
"1574","18181.61"
"1575","18194.03"
"1576","18192.5"
"1577","18174.17"
"1578","18139.24"
"1579","18089.24"
"1580","18028.24"
"1581","17972.17"
"1582","17940.58"
"1583","17946.93"
"1584","17985.47"
"1585","18046.56"
"1586","18112.65"
"1587","18149.44"
"1588","18121.49"
"1589","18039.36"
"1590","17979"
"1591","18017.13"
"1592","18137.76"
"1593","18235.55"
"1594","18211.87"
"1595","18089.79"
"1596","17971.14"
"1597","17944.25"
"1598","17993.47"
"1599","18059.06"
"1600","18092.24"
"1601","18092.08"
"1602","18070.52"
"1603","18039.98"
"1604","18014.22"
"1605","18007.08"
"1606","18018.93"
"1607","18027.26"
"1608","18008.4"
"1609","17967.93"
"1610","17943.5"
"1611","17970.38"
"1612","18030.32"
"1613","18067.36"
"1614","18035.28"
"1615","17965.29"
"1616","17922.85"
"1617","17954.81"
"1618","18028.09"
"1619","18088.31"
"1620","18100.76"
"1621","18080.42"
"1622","18049.82"
"1623","18016.96"
"1624","17967.59"
"1625","17887.32"
"1626","17799.97"
"1627","17765.7"
"1628","17837.12"
"1629","17975.08"
"1630","18086.96"
"1631","18097.34"
"1632","18030.2"
"1633","17943.62"
"1634","17883.24"
"1635","17855.72"
"1636","17860.09"
"1637","17886.15"
"1638","17907.12"
"1639","17895.52"
"1640","17850.24"
"1641","17798.34"
"1642","17766.17"
"1643","17756.69"
"1644","17758.11"
"1645","17760.78"
"1646","17768.73"
"1647","17790.86"
"1648","17827.88"
"1649","17854.94"
"1650","17842.54"
"1651","17789.24"
"1652","17742.07"
"1653","17750.55"
"1654","17809.47"
"1655","17859.41"
"1656","17845.67"
"1657","17782.34"
"1658","17722.16"
"1659","17706.53"
"1660","17719.36"
"1661","17727.11"
"1662","17713.25"
"1663","17704.42"
"1664","17733.31"
"1665","17799.19"
"1666","17855.08"
"1667","17853.85"
"1668","17797.07"
"1669","17723.63"
"1670","17668.35"
"1671","17632.09"
"1672","17601.72"
"1673","17568.05"
"1674","17535.12"
"1675","17509.68"
"1676","17495.1"
"1677","17488.95"
"1678","17488.13"
"1679","17487.84"
"1680","17481.71"
"1681","17464.5"
"1682","17440.8"
"1683","17419.98"
"1684","17408.06"
"1685","17397.9"
"1686","17379.23"
"1687","17346.94"
"1688","17305.86"
"1689","17261.94"
"1690","17221.72"
"1691","17192.27"
"1692","17179.5"
"1693","17178.83"
"1694","17180.36"
"1695","17175.26"
"1696","17159.22"
"1697","17129.08"
"1698","17089.81"
"1699","17061.66"
"1700","17065.41"
"1701","17096.58"
"1702","17126.82"
"1703","17131.28"
"1704","17120.54"
"1705","17121.86"
"1706","17149.3"
"1707","17170.39"
"1708","17143"
"1709","17064.18"
"1710","16995.17"
"1711","16998.93"
"1712","17067.09"
"1713","17133.68"
"1714","17141.09"
"1715","17094.88"
"1716","17024.96"
"1717","16957.18"
"1718","16905.95"
"1719","16883.59"
"1720","16896.34"
"1721","16942.63"
"1722","17017.44"
"1723","17084.08"
"1724","17086.4"
"1725","16990.12"
"1726","16858.7"
"1727","16782.16"
"1728","16802.39"
"1729","16868.54"
"1730","16921.09"
"1731","16936.48"
"1732","16923.44"
"1733","16892.6"
"1734","16859.69"
"1735","16842.52"
"1736","16852.48"
"1737","16883.26"
"1738","16925.35"
"1739","16963.34"
"1740","16974.71"
"1741","16940.38"
"1742","16879.24"
"1743","16831.35"
"1744","16824.43"
"1745","16839.27"
"1746","16845.9"
"1747","16830.54"
"1748","16804.94"
"1749","16782.77"
"1750","16772.99"
"1751","16781.24"
"1752","16809.73"
"1753","16844.71"
"1754","16867.7"
"1755","16863.43"
"1756","16822.83"
"1757","16739.43"
"1758","16639.53"
"1759","16576.68"
"1760","16591.8"
"1761","16649.73"
"1762","16688.84"
"1763","16679.19"
"1764","16660.18"
"1765","16678.13"
"1766","16733.4"
"1767","16783.91"
"1768","16793.06"
"1769","16768.62"
"1770","16735.32"
"1771","16709.88"
"1772","16690.09"
"1773","16671.34"
"1774","16654.71"
"1775","16646.83"
"1776","16653.53"
"1777","16674.16"
"1778","16705.5"
"1779","16740.88"
"1780","16765.58"
"1781","16764.53"
"1782","16740.12"
"1783","16711.31"
"1784","16693.38"
"1785","16675.36"
"1786","16636.51"
"1787","16575.17"
"1788","16531.57"
"1789","16548.81"
"1790","16619.35"
"1791","16691.47"
"1792","16720.62"
"1793","16709.49"
"1794","16676.64"
"1795","16639.5"
"1796","16613.28"
"1797","16611.9"
"1798","16633.96"
"1799","16666.39"
"1800","16693.28"
"1801","16687.31"
"1802","16618.58"
"1803","16497.75"
"1804","16400.42"
"1805","16400.15"
"1806","16482.52"
"1807","16578.83"
"1808","16634.88"
"1809","16650.16"
"1810","16636.03"
"1811","16612.21"
"1812","16609.02"
"1813","16649.21"
"1814","16691.29"
"1815","16663.58"
"1816","16539.73"
"1817","16408.77"
"1818","16373"
"1819","16435.92"
"1820","16509.45"
"1821","16518.93"
"1822","16479.98"
"1823","16437.83"
"1824","16416.42"
"1825","16401.99"
"1826","16378.88"
"1827","16353.78"
"1828","16347.8"
"1829","16370.82"
"1830","16393.36"
"1831","16378.5"
"1832","16322.78"
"1833","16261.92"
"1834","16229.16"
"1835","16225.29"
"1836","16237.69"
"1837","16255.36"
"1838","16270.78"
"1839","16277.93"
"1840","16285.24"
"1841","16311.92"
"1842","16366.53"
"1843","16415.6"
"1844","16416.51"
"1845","16365.85"
"1846","16309.68"
"1847","16291.28"
"1848","16310.87"
"1849","16350.1"
"1850","16390.33"
"1851","16412.59"
"1852","16399.78"
"1853","16362.28"
"1854","16330.22"
"1855","16326.79"
"1856","16348.06"
"1857","16383.56"
"1858","16409.7"
"1859","16387.82"
"1860","16292"
"1861","16179.77"
"1862","16139.69"
"1863","16200.42"
"1864","16282.19"
"1865","16302.16"
"1866","16266.41"
"1867","16234.06"
"1868","16242"
"1869","16262.2"
"1870","16257.06"
"1871","16224.97"
"1872","16196.59"
"1873","16196.08"
"1874","16213.68"
"1875","16230.62"
"1876","16240.31"
"1877","16252.18"
"1878","16275.59"
"1879","16312.27"
"1880","16360.7"
"1881","16408.47"
"1882","16422.88"
"1883","16374.25"
"1884","16288.44"
"1885","16224.14"
"1886","16215.79"
"1887","16231.98"
"1888","16232.39"
"1889","16210.17"
"1890","16185.68"
"1891","16170.72"
"1892","16141.9"
"1893","16069.47"
"1894","15975.84"
"1895","15940.02"
"1896","16018.81"
"1897","16139.55"
"1898","16189.58"
"1899","16135.47"
"1900","16055.95"
"1901","16027.38"
"1902","16049.44"
"1903","16089.49"
"1904","16124.06"
"1905","16146.57"
"1906","16152.77"
"1907","16143.92"
"1908","16124.23"
"1909","16101.73"
"1910","16092.98"
"1911","16113.61"
"1912","16153.85"
"1913","16187.09"
"1914","16192.02"
"1915","16163.2"
"1916","16099.79"
"1917","16029.9"
"1918","16004.63"
"1919","16050.89"
"1920","16112.24"
"1921","16117.85"
"1922","16060.36"
"1923","15990.84"
"1924","15952.06"
"1925","15944.92"
"1926","15959.7"
"1927","15977.55"
"1928","15970.06"
"1929","15921.84"
"1930","15877.86"
"1931","15897.83"
"1932","15970.12"
"1933","16000.45"
"1934","15918.71"
"1935","15798.95"
"1936","15757.59"
"1937","15819.6"
"1938","15895.3"
"1939","15905.71"
"1940","15869.51"
"1941","15837.5"
"1942","15837.35"
"1943","15866.1"
"1944","15913.89"
"1945","15944.1"
"1946","15911.67"
"1947","15816.4"
"1948","15719.28"
"1949","15675.24"
"1950","15677.84"
"1951","15699.01"
"1952","15720.07"
"1953","15735.46"
"1954","15741.01"
"1955","15735.6"
"1956","15719.23"
"1957","15693.52"
"1958","15662.36"
"1959","15629.84"
"1960","15600.29"
"1961","15577.97"
"1962","15561.9"
"1963","15544.31"
"1964","15520.09"
"1965","15500.1"
"1966","15500"
"1967","15521.27"
"1968","15548.3"
"1969","15566.37"
"1970","15570.19"
"1971","15557.45"
"1972","15532.9"
"1973","15509.08"
"1974","15494.65"
"1975","15480.29"
"1976","15452.54"
"1977","15412.4"
"1978","15375.03"
"1979","15353.33"
"1980","15349.51"
"1981","15362.28"
"1982","15371.02"
"1983","15338.57"
"1984","15251.44"
"1985","15170.67"
"1986","15165.7"
"1987","15221.71"
"1988","15262.4"
"1989","15245.81"
"1990","15221"
"1991","15244.23"
"1992","15295.7"
"1993","15309.79"
"1994","15260.79"
"1995","15206.48"
"1996","15204.94"
"1997","15231.3"
"1998","15220.83"
"1999","15149.5"
"2000","15060.46"
"2001","14996.66"
"2002","14960.94"
"2003","14941.03"
"2004","14928.03"
"2005","14917.5"
"2006","14907.28"
"2007","14904.31"
"2008","14917.23"
"2009","14933.89"
"2010","14921.72"
"2011","14864.54"
"2012","14803.87"
"2013","14789.46"
"2014","14816.07"
"2015","14838.11"
"2016","14823.64"
"2017","14775.81"
"2018","14704.24"
"2019","14630.54"
"2020","14582.79"
"2021","14588.15"
"2022","14672"
"2023","14821.94"
"2024","14799"
"2025","14292.99"
"2026","13454.01"
"2027","12983.48"
"2028","13376"
"2029","14163.73"
"2030","14667.56"
"2031","14723.07"
"2032","14592.42"
"2033","14483.37"
"2034","14426.63"
"2035","14422.73"
"2036","14453.66"
"2037","14491.07"
"2038","14508.55"
"2039","14483.25"
"2040","14401.2"
"2041","14298"
"2042","14226.06"
"2043","14209.93"
"2044","14243.21"
"2045","14306.49"
"2046","14340.78"
"2047","14285.74"
"2048","14180.45"
"2049","14133.97"
"2050","14184.93"
"2051","14220.04"
"2052","14131.36"
"2053","13989.3"
"2054","13938.77"
"2055","14003.48"
"2056","14050.79"
"2057","13981.05"
"2058","13869.89"
"2059","13829.94"
"2060","13863.96"
"2061","13889.29"
"2062","13860.8"
"2063","13823.79"
"2064","13829.93"
"2065","13884.11"
"2066","13969.32"
"2067","14042.7"
"2068","14027.79"
"2069","13885.78"
"2070","13735.67"
"2071","13723.74"
"2072","13823.26"
"2073","13878.84"
"2074","13814.88"
"2075","13730.35"
"2076","13725.52"
"2077","13760.27"
"2078","13740.23"
"2079","13666.04"
"2080","13647.86"
"2081","13743.65"
"2082","13817.46"
"2083","13713.22"
"2084","13502.41"
"2085","13396.45"
"2086","13464.84"
"2087","13532.53"
"2088","13447.41"
"2089","13296.16"
"2090","13234.14"
"2091","13286.1"
"2092","13360.95"
"2093","13395.03"
"2094","13401.19"
"2095","13400.34"
"2096","13388.95"
"2097","13353.16"
"2098","13299.36"
"2099","13258.31"
"2100","13253.3"
"2101","13277.69"
"2102","13315.89"
"2103","13324"
"2104","13242.31"
"2105","13080.52"
"2106","12956.63"
"2107","12963.91"
"2108","13044.85"
"2109","13103.73"
"2110","13090.37"
"2111","12989.02"
"2112","12829.37"
"2113","12726.97"
"2114","12775.78"
"2115","12896.03"
"2116","12954.74"
"2117","12934.41"
"2118","12920.74"
"2119","12953.39"
"2120","12958.08"
"2121","12863.05"
"2122","12717.34"
"2123","12615.16"
"2124","12574.8"
"2125","12537.11"
"2126","12467.98"
"2127","12407.35"
"2128","12398.32"
"2129","12419.37"
"2130","12421.77"
"2131","12398.55"
"2132","12389.21"
"2133","12413.24"
"2134","12427.36"
"2135","12387.13"
"2136","12324.78"
"2137","12306.48"
"2138","12333.95"
"2139","12334.6"
"2140","12263.11"
"2141","12164.44"
"2142","12093.5"
"2143","12056.31"
"2144","12036.04"
"2145","12025.4"
"2146","12028.07"
"2147","12041.4"
"2148","12043.45"
"2149","12011.92"
"2150","11947.47"
"2151","11862.05"
"2152","11790.66"
"2153","11792.97"
"2154","11881.27"
"2155","11942.33"
"2156","11869.2"
"2157","11735.28"
"2158","11683.13"
"2159","11729.71"
"2160","11769.27"
"2161","11733.82"
"2162","11653.51"
"2163","11570.03"
"2164","11512.21"
"2165","11502.19"
"2166","11524.04"
"2167","11529.83"
"2168","11493.5"
"2169","11433.17"
"2170","11373.22"
"2171","11343.54"
"2172","11371.48"
"2173","11429.5"
"2174","11452.18"
"2175","11407.52"
"2176","11316.82"
"2177","11207.19"
"2178","11109.76"
"2179","11053.35"
"2180","11035.07"
"2181","11034.33"
"2182","11020.73"
"2183","10952.31"
"2184","10823.45"
"2185","10729.84"
"2186","10759.91"
"2187","10837.06"
"2188","10823.7"
"2189","10711.33"
"2190","10608.21"
"2191","10586.78"
"2192","10640.35"
"2193","10741.48"
"2194","10810.18"
"2195","10761.46"
"2196","10630.08"
"2197","10526.57"
"2198","10493.78"
"2199","10480.05"
"2200","10443.03"
"2201","10389.5"
"2202","10336.71"
"2203","10310.52"
"2204","10337.41"
"2205","10380.17"
"2206","10343.18"
"2207","10194.73"
"2208","10031.25"
"2209","9942.277"
"2210","9922.394"
"2211","9939.592"
"2212","9952.753"
"2213","9916.866"
"2214","9842.189"
"2215","9806.524"
"2216","9846.708"
"2217","9883.755"
"2218","9839.711"
"2219","9749.053"
"2220","9682.314"
"2221","9651.769"
"2222","9626.459"
"2223","9591.723"
"2224","9558.974"
"2225","9542.07"
"2226","9555.634"
"2227","9606.403"
"2228","9644.758"
"2229","9600.901"
"2230","9479.054"
"2231","9347.443"
"2232","9252.61"
"2233","9199.973"
"2234","9185.458"
"2235","9185.494"
"2236","9172.029"
"2237","9117.066"
"2238","8995.856"
"2239","8850.514"
"2240","8784.798"
"2241","8819.338"
"2242","8818.79"
"2243","8688.684"
"2244","8550.501"
"2245","8550.28"
"2246","8621.94"
"2247","8604.483"
"2248","8495.05"
"2249","8438.186"
"2250","8468.575"
"2251","8413.715"
"2252","8161.098"
"2253","7892.321"
"2254","7819.813"
"2255","7885.454"
"2256","7914.184"
"2257","7853.562"
"2258","7758.27"
"2259","7661.393"
"2260","7554.801"
"2261","7438.862"
"2262","7352.992"
"2263","7332.414"
"2264","7334.155"
"2265","7287.606"
"2266","7176.033"
"2267","7023.698"
"2268","6866.426"
"2269","6754.549"
"2270","6704.55"
"2271","6641.663"
"2272","6502.899"
"2273","6362.617"
"2274","6324.844"
"2275","6336.57"
"2276","6254.135"
"2277","6067.758"
"2278","5915.781"
"2279","5858.25"
"2280","5783.373"
"2281","5609.947"
"2282","5450.69"
"2283","5431.066"
"2284","5427.351"
"2285","5221.041"
"2286","4885.17"
"2287","4725.979"
"2288","4831.825"
"2289","4968.083"
"2290","4943.799"
"2291","4747.766"
"2292","4420.713"
"2293","4116.593"
"2294","3998.996"
"2295","3986.887"
"2296","3872.098"
"2297","3651.434"
"2298","3520.894"
"2299","3546.625"
"2300","3561.429"
