,"Scan 00869"
"400","7455.854"
"401","7439.759"
"402","7435.213"
"403","7450.771"
"404","7494.926"
"405","7574.028"
"406","7676.445"
"407","7781.492"
"408","7868.563"
"409","7918.655"
"410","7931.818"
"411","7921.318"
"412","7900.604"
"413","7882.39"
"414","7866.311"
"415","7839.82"
"416","7789.991"
"417","7704.457"
"418","7587.212"
"419","7462.38"
"420","7355.163"
"421","7290.323"
"422","7275.159"
"423","7288.955"
"424","7308.594"
"425","7311.196"
"426","7285.417"
"427","7243.87"
"428","7202.076"
"429","7175.444"
"430","7172.986"
"431","7186.647"
"432","7205.588"
"433","7219.041"
"434","7219.293"
"435","7209.002"
"436","7193.037"
"437","7176.239"
"438","7162.467"
"439","7151.433"
"440","7141.713"
"441","7131.896"
"442","7120.723"
"443","7107.73"
"444","7092.727"
"445","7075.524"
"446","7056.498"
"447","7039.85"
"448","7031.342"
"449","7036.699"
"450","7060.283"
"451","7095.415"
"452","7130.027"
"453","7152.088"
"454","7150.853"
"455","7127.734"
"456","7091.125"
"457","7049.444"
"458","7010.69"
"459","6978.379"
"460","6953.057"
"461","6935.212"
"462","6925.234"
"463","6922.061"
"464","6923.557"
"465","6927.57"
"466","6931.919"
"467","6933.639"
"468","6929.12"
"469","6914.754"
"470","6887.301"
"471","6850.375"
"472","6813.86"
"473","6787.812"
"474","6781.856"
"475","6797.218"
"476","6826.792"
"477","6863.157"
"478","6899.004"
"479","6928.812"
"480","6948.948"
"481","6955.888"
"482","6946.304"
"483","6921.755"
"484","6889.265"
"485","6856.1"
"486","6829.373"
"487","6812.55"
"488","6804.871"
"489","6805.343"
"490","6812.867"
"491","6822.493"
"492","6824.703"
"493","6809.755"
"494","6768.324"
"495","6703.08"
"496","6631.158"
"497","6570.464"
"498","6538.356"
"499","6537.321"
"500","6551.941"
"501","6565.819"
"502","6562.956"
"503","6537.291"
"504","6494.544"
"505","6441.09"
"506","6383.252"
"507","6326.915"
"508","6277.458"
"509","6240.204"
"510","6220.211"
"511","6215.941"
"512","6218.565"
"513","6218.918"
"514","6208.241"
"515","6186.709"
"516","6163.846"
"517","6149.563"
"518","6153.263"
"519","6174.047"
"520","6200.954"
"521","6222.661"
"522","6228.445"
"523","6218.11"
"524","6200.929"
"525","6186.473"
"526","6183.733"
"527","6192.987"
"528","6207.367"
"529","6219.837"
"530","6223.691"
"531","6216.48"
"532","6198.882"
"533","6171.641"
"534","6135.814"
"535","6096.173"
"536","6059.891"
"537","6034.147"
"538","6024.97"
"539","6027.367"
"540","6030.127"
"541","6022.027"
"542","5993.978"
"543","5953.894"
"544","5917.915"
"545","5902.15"
"546","5919.38"
"547","5960.595"
"548","6007.923"
"549","6043.549"
"550","6053.064"
"551","6040.184"
"552","6014.722"
"553","5986.447"
"554","5963.917"
"555","5950.514"
"556","5948.204"
"557","5958.939"
"558","5982.596"
"559","6011.821"
"560","6037.719"
"561","6051.442"
"562","6047.455"
"563","6029.256"
"564","6001.868"
"565","5970.282"
"566","5939.058"
"567","5911.835"
"568","5892.123"
"569","5883.366"
"570","5885.503"
"571","5892.596"
"572","5898.172"
"573","5895.901"
"574","5883.979"
"575","5866.476"
"576","5847.839"
"577","5832.334"
"578","5820.518"
"579","5809.241"
"580","5795.208"
"581","5775.592"
"582","5754.307"
"583","5740.373"
"584","5742.901"
"585","5769.551"
"586","5814.119"
"587","5862.571"
"588","5900.847"
"589","5916.862"
"590","5911.511"
"591","5891.027"
"592","5861.628"
"593","5829.54"
"594","5801.088"
"595","5782.613"
"596","5780.428"
"597","5797.068"
"598","5822.984"
"599","5846.242"
"600","5854.982"
"601","5843.461"
"602","5819.407"
"603","5792.329"
"604","5771.611"
"605","5761.642"
"606","5759.15"
"607","5760.224"
"608","5761.104"
"609","5761.518"
"610","5764.922"
"611","5774.94"
"612","5794.736"
"613","5821.25"
"614","5846.857"
"615","5863.857"
"616","5865.703"
"617","5855.194"
"618","5839.724"
"619","5826.694"
"620","5821.683"
"621","5821.02"
"622","5818.101"
"623","5806.344"
"624","5782.582"
"625","5754.534"
"626","5732.068"
"627","5724.979"
"628","5737.892"
"629","5765.035"
"630","5799.411"
"631","5834.095"
"632","5864.123"
"633","5887.047"
"634","5900.599"
"635","5902.805"
"636","5896.648"
"637","5889.184"
"638","5887.564"
"639","5897.513"
"640","5912.369"
"641","5919.087"
"642","5904.612"
"643","5860.083"
"644","5797.335"
"645","5734.578"
"646","5689.958"
"647","5675.176"
"648","5683.55"
"649","5705.146"
"650","5730.098"
"651","5751.009"
"652","5764.641"
"653","5768.167"
"654","5758.985"
"655","5739.691"
"656","5718.151"
"657","5702.435"
"658","5699.937"
"659","5711.014"
"660","5731.791"
"661","5758.345"
"662","5786.375"
"663","5809.464"
"664","5820.476"
"665","5812.304"
"666","5782.221"
"667","5740.468"
"668","5699.657"
"669","5672.263"
"670","5664.111"
"671","5670.104"
"672","5684.15"
"673","5700.321"
"674","5715.792"
"675","5730.627"
"676","5745.002"
"677","5759.136"
"678","5773.69"
"679","5789.549"
"680","5807.597"
"681","5828.884"
"682","5855.203"
"683","5888.541"
"684","5930.866"
"685","5979.139"
"686","6019.149"
"687","6035.195"
"688","6012.154"
"689","5952.379"
"690","5879.095"
"691","5816.7"
"692","5787.418"
"693","5789"
"694","5803.5"
"695","5812.755"
"696","5802.501"
"697","5778.754"
"698","5754.145"
"699","5741.263"
"700","5746.665"
"701","5761.671"
"702","5775.24"
"703","5776.577"
"704","5763.139"
"705","5742.949"
"706","5724.708"
"707","5716.546"
"708","5720.006"
"709","5732.303"
"710","5750.576"
"711","5771.611"
"712","5790.345"
"713","5801.132"
"714","5798.349"
"715","5780.615"
"716","5756.563"
"717","5736.25"
"718","5729.5"
"719","5739.561"
"720","5762.123"
"721","5792.468"
"722","5825.81"
"723","5856.642"
"724","5879.05"
"725","5887.133"
"726","5877.591"
"727","5857.805"
"728","5837.875"
"729","5827.823"
"730","5831.48"
"731","5841.326"
"732","5848.638"
"733","5845.107"
"734","5829.712"
"735","5807.756"
"736","5784.749"
"737","5765.866"
"738","5754.203"
"739","5752.024"
"740","5761.579"
"741","5783.289"
"742","5812.621"
"743","5844.211"
"744","5872.773"
"745","5895.1"
"746","5910.507"
"747","5918.457"
"748","5918.636"
"749","5912.827"
"750","5903.957"
"751","5894.958"
"752","5888.702"
"753","5887.822"
"754","5894.898"
"755","5912.435"
"756","5938.693"
"757","5965.424"
"758","5983.837"
"759","5986.02"
"760","5974.829"
"761","5960.414"
"762","5953.042"
"763","5959.926"
"764","5974.647"
"765","5986.991"
"766","5986.849"
"767","5972.195"
"768","5955.363"
"769","5950.145"
"770","5969.182"
"771","6008.536"
"772","6051.7"
"773","6081.877"
"774","6086.261"
"775","6071.555"
"776","6050.411"
"777","6035.424"
"778","6034.708"
"779","6047.994"
"780","6074.1"
"781","6111.346"
"782","6150.602"
"783","6176.979"
"784","6175.461"
"785","6136.687"
"786","6078.629"
"787","6027.494"
"788","6009.292"
"789","6034.527"
"790","6085.929"
"791","6143.356"
"792","6187.646"
"793","6212.645"
"794","6221.554"
"795","6217.778"
"796","6205.567"
"797","6192.828"
"798","6188.445"
"799","6201.156"
"800","6231.291"
"801","6266.022"
"802","6291.383"
"803","6294.856"
"804","6279.444"
"805","6257.627"
"806","6242.008"
"807","6241.079"
"808","6249.134"
"809","6257.4"
"810","6257.319"
"811","6247.629"
"812","6236.217"
"813","6231.542"
"814","6240.801"
"815","6261.333"
"816","6285.836"
"817","6306.999"
"818","6320.003"
"819","6326.364"
"820","6328.58"
"821","6329.04"
"822","6328.041"
"823","6323.944"
"824","6315.042"
"825","6300.859"
"826","6287.372"
"827","6282.651"
"828","6294.667"
"829","6323.138"
"830","6353.593"
"831","6370.161"
"832","6358.902"
"833","6327.012"
"834","6294.792"
"835","6282.722"
"836","6303.105"
"837","6341.902"
"838","6379.779"
"839","6397.968"
"840","6392.644"
"841","6376.295"
"842","6362.226"
"843","6361.647"
"844","6373.167"
"845","6390.688"
"846","6408.135"
"847","6422.377"
"848","6435.748"
"849","6451.173"
"850","6471.145"
"851","6493.164"
"852","6511.545"
"853","6520.559"
"854","6516.632"
"855","6503.001"
"856","6484.25"
"857","6464.917"
"858","6448.696"
"859","6438.412"
"860","6436.848"
"861","6445.725"
"862","6461.128"
"863","6477.288"
"864","6488.485"
"865","6492.266"
"866","6491.351"
"867","6488.911"
"868","6487.887"
"869","6489.174"
"870","6492.612"
"871","6498.033"
"872","6506.166"
"873","6519.896"
"874","6542.425"
"875","6576.375"
"876","6615.78"
"877","6648.127"
"878","6660.735"
"879","6645.947"
"880","6614.149"
"881","6579.773"
"882","6556.978"
"883","6552.663"
"884","6565.913"
"885","6595.427"
"886","6638.445"
"887","6684.584"
"888","6720.972"
"889","6734.961"
"890","6725.384"
"891","6707.925"
"892","6699.614"
"893","6714.552"
"894","6745.212"
"895","6774.362"
"896","6784.822"
"897","6770.491"
"898","6746.836"
"899","6731.81"
"900","6741.524"
"901","6773.222"
"902","6813.073"
"903","6847.117"
"904","6865.701"
"905","6870.02"
"906","6862.947"
"907","6847.591"
"908","6830.454"
"909","6820.531"
"910","6826.872"
"911","6852.974"
"912","6884.806"
"913","6904.884"
"914","6896.704"
"915","6862.261"
"916","6819.998"
"917","6788.933"
"918","6782.83"
"919","6795.286"
"920","6815.059"
"921","6831.238"
"922","6841.16"
"923","6850.723"
"924","6866.218"
"925","6891.915"
"926","6922.981"
"927","6952.024"
"928","6971.774"
"929","6978.887"
"930","6974.623"
"931","6960.5"
"932","6938.663"
"933","6914.409"
"934","6894.043"
"935","6883.768"
"936","6886.018"
"937","6898.395"
"938","6918.186"
"939","6942.007"
"940","6962.819"
"941","6972.315"
"942","6962.438"
"943","6935.861"
"944","6909.816"
"945","6902.574"
"946","6927.422"
"947","6968.714"
"948","7000.396"
"949","6996.908"
"950","6955.751"
"951","6906.51"
"952","6881.149"
"953","6904.335"
"954","6957.979"
"955","7008.474"
"956","7022.735"
"957","6992.477"
"958","6943.651"
"959","6904.718"
"960","6898.828"
"961","6918.779"
"962","6946.632"
"963","6964.683"
"964","6965.686"
"965","6956.275"
"966","6944.045"
"967","6935.853"
"968","6934.58"
"969","6941.791"
"970","6958.967"
"971","6984.856"
"972","7014.82"
"973","7044.004"
"974","7067.485"
"975","7080.009"
"976","7076.225"
"977","7051.168"
"978","7010.977"
"979","6974.248"
"980","6960.239"
"981","6981.564"
"982","7022.573"
"983","7060.099"
"984","7071.763"
"985","7052.954"
"986","7016.546"
"987","6976.167"
"988","6943.258"
"989","6921.416"
"990","6912.469"
"991","6918.078"
"992","6936.979"
"993","6965.458"
"994","6999.718"
"995","7035.946"
"996","7070.261"
"997","7098.77"
"998","7117.901"
"999","7128.274"
"1000","7133.41"
"1001","7136.886"
"1002","7141.161"
"1003","7146.045"
"1004","7150.971"
"1005","7155.365"
"1006","7158.619"
"1007","7159.854"
"1008","7158.083"
"1009","7152.327"
"1010","7142.396"
"1011","7129.222"
"1012","7113.821"
"1013","7097.447"
"1014","7082.604"
"1015","7072.22"
"1016","7069.171"
"1017","7074.489"
"1018","7087.032"
"1019","7105.54"
"1020","7128.453"
"1021","7152.96"
"1022","7175.919"
"1023","7194.333"
"1024","7208.23"
"1025","7220.438"
"1026","7233.888"
"1027","7249.928"
"1028","7264.896"
"1029","7274.145"
"1030","7273.491"
"1031","7264.766"
"1032","7254.034"
"1033","7247.436"
"1034","7249.358"
"1035","7260.167"
"1036","7279.68"
"1037","7307.258"
"1038","7338.398"
"1039","7366.625"
"1040","7385.496"
"1041","7391.565"
"1042","7386.183"
"1043","7371.13"
"1044","7349.101"
"1045","7327.855"
"1046","7316.914"
"1047","7325.45"
"1048","7353.047"
"1049","7388.785"
"1050","7421.195"
"1051","7441.499"
"1052","7450.442"
"1053","7450.855"
"1054","7445.646"
"1055","7438.565"
"1056","7433.994"
"1057","7436.315"
"1058","7448.645"
"1059","7471.318"
"1060","7504.302"
"1061","7546.427"
"1062","7588.033"
"1063","7615.593"
"1064","7615.869"
"1065","7589.169"
"1066","7554.022"
"1067","7530.25"
"1068","7532.151"
"1069","7550.652"
"1070","7570.52"
"1071","7577.485"
"1072","7573.045"
"1073","7571.442"
"1074","7587.261"
"1075","7625.505"
"1076","7668.835"
"1077","7696.717"
"1078","7692.009"
"1079","7663.492"
"1080","7631.892"
"1081","7617.612"
"1082","7625.622"
"1083","7640.867"
"1084","7646.945"
"1085","7633.113"
"1086","7610.33"
"1087","7594.763"
"1088","7601.078"
"1089","7623.915"
"1090","7643.74"
"1091","7640.819"
"1092","7609.134"
"1093","7569.099"
"1094","7544.157"
"1095","7552.317"
"1096","7580.038"
"1097","7602.416"
"1098","7595.56"
"1099","7558.804"
"1100","7514.37"
"1101","7485.461"
"1102","7487.488"
"1103","7515.114"
"1104","7559.579"
"1105","7611.415"
"1106","7655.563"
"1107","7674.244"
"1108","7650.259"
"1109","7588.404"
"1110","7521.142"
"1111","7482.728"
"1112","7495.305"
"1113","7539.907"
"1114","7588.839"
"1115","7616.547"
"1116","7619.686"
"1117","7607.958"
"1118","7591.199"
"1119","7576.899"
"1120","7569.093"
"1121","7571.534"
"1122","7585.738"
"1123","7604.414"
"1124","7618.084"
"1125","7617.966"
"1126","7603.519"
"1127","7579.59"
"1128","7551.146"
"1129","7524.921"
"1130","7510.45"
"1131","7517.527"
"1132","7551.447"
"1133","7598.783"
"1134","7641.236"
"1135","7661.756"
"1136","7658.619"
"1137","7640.292"
"1138","7615.429"
"1139","7591.828"
"1140","7575.957"
"1141","7574.166"
"1142","7589.751"
"1143","7613.855"
"1144","7634.589"
"1145","7641.096"
"1146","7634.062"
"1147","7621.34"
"1148","7610.841"
"1149","7607.55"
"1150","7612.262"
"1151","7625.44"
"1152","7646.204"
"1153","7669.018"
"1154","7687.324"
"1155","7695.367"
"1156","7694.626"
"1157","7690.443"
"1158","7688.1"
"1159","7689.729"
"1160","7693.695"
"1161","7698.133"
"1162","7701.311"
"1163","7701.849"
"1164","7698.436"
"1165","7691.017"
"1166","7688.114"
"1167","7701.819"
"1168","7743.155"
"1169","7801.51"
"1170","7846.286"
"1171","7846.264"
"1172","7792.31"
"1173","7719.651"
"1174","7668.855"
"1175","7670.571"
"1176","7708.993"
"1177","7754.751"
"1178","7780.454"
"1179","7782.364"
"1180","7772.188"
"1181","7761.806"
"1182","7758.574"
"1183","7763.652"
"1184","7777.748"
"1185","7799.192"
"1186","7819.263"
"1187","7827.931"
"1188","7817.172"
"1189","7792.661"
"1190","7765.775"
"1191","7747.62"
"1192","7743.646"
"1193","7754.413"
"1194","7780.276"
"1195","7818.166"
"1196","7858.976"
"1197","7892.974"
"1198","7912.629"
"1199","7918.675"
"1200","7913.794"
"1201","7900.851"
"1202","7884.259"
"1203","7869.209"
"1204","7860.697"
"1205","7859.046"
"1206","7859.926"
"1207","7858.831"
"1208","7855.181"
"1209","7856.104"
"1210","7869.623"
"1211","7900.277"
"1212","7938.507"
"1213","7971.177"
"1214","7986.802"
"1215","7988.456"
"1216","7986.739"
"1217","7991.849"
"1218","8003.347"
"1219","8010.298"
"1220","8001.383"
"1221","7974.425"
"1222","7944.315"
"1223","7927.832"
"1224","7936.033"
"1225","7958.854"
"1226","7981.353"
"1227","7990.789"
"1228","7991.092"
"1229","7993.803"
"1230","8009.886"
"1231","8039.354"
"1232","8072.947"
"1233","8101.159"
"1234","8118.005"
"1235","8122.897"
"1236","8115.711"
"1237","8099.071"
"1238","8083.446"
"1239","8080.7"
"1240","8099.559"
"1241","8131.34"
"1242","8161.4"
"1243","8176.286"
"1244","8176.207"
"1245","8169.932"
"1246","8166.109"
"1247","8166.063"
"1248","8163.081"
"1249","8150.103"
"1250","8127.837"
"1251","8111.898"
"1252","8119.597"
"1253","8159.032"
"1254","8206.428"
"1255","8231.1"
"1256","8209.041"
"1257","8159.029"
"1258","8116.698"
"1259","8115.025"
"1260","8152.784"
"1261","8205.465"
"1262","8248.505"
"1263","8269.479"
"1264","8269.793"
"1265","8251.63"
"1266","8221.082"
"1267","8191.661"
"1268","8177.711"
"1269","8187.161"
"1270","8207.02"
"1271","8220.033"
"1272","8212.681"
"1273","8192.687"
"1274","8175.295"
"1275","8174.313"
"1276","8188.535"
"1277","8207.925"
"1278","8222.556"
"1279","8227.122"
"1280","8220.692"
"1281","8202.573"
"1282","8175.695"
"1283","8148.426"
"1284","8129.57"
"1285","8124.457"
"1286","8130.085"
"1287","8142.217"
"1288","8157.962"
"1289","8179.708"
"1290","8211.136"
"1291","8253.683"
"1292","8294.133"
"1293","8313.4"
"1294","8295.208"
"1295","8254.942"
"1296","8227.82"
"1297","8247.646"
"1298","8311.523"
"1299","8381.656"
"1300","8419.362"
"1301","8412"
"1302","8384.126"
"1303","8363.109"
"1304","8363.079"
"1305","8369.599"
"1306","8364.499"
"1307","8337.718"
"1308","8306.047"
"1309","8291.85"
"1310","8310.904"
"1311","8345.221"
"1312","8366.011"
"1313","8349.037"
"1314","8306.571"
"1315","8268.401"
"1316","8261.91"
"1317","8281.645"
"1318","8299.229"
"1319","8287.138"
"1320","8248.274"
"1321","8215.841"
"1322","8223.712"
"1323","8275.13"
"1324","8330.229"
"1325","8346.091"
"1326","8307.253"
"1327","8252.937"
"1328","8228.854"
"1329","8262.144"
"1330","8327.201"
"1331","8389.114"
"1332","8420.904"
"1333","8428.001"
"1334","8424.108"
"1335","8423.265"
"1336","8441.477"
"1337","8495.465"
"1338","8598.034"
"1339","8728.779"
"1340","8850.627"
"1341","8928.443"
"1342","8953.355"
"1343","8934.333"
"1344","8880.745"
"1345","8803.008"
"1346","8712.481"
"1347","8620.524"
"1348","8537.323"
"1349","8471.637"
"1350","8432.02"
"1351","8418.885"
"1352","8419.91"
"1353","8421.7"
"1354","8416.211"
"1355","8406.386"
"1356","8396.5"
"1357","8387.934"
"1358","8374.289"
"1359","8347.872"
"1360","8306.715"
"1361","8269.006"
"1362","8257.376"
"1363","8286.627"
"1364","8335.481"
"1365","8372.281"
"1366","8371.29"
"1367","8342.277"
"1368","8308.163"
"1369","8289.189"
"1370","8284.595"
"1371","8283.782"
"1372","8277.301"
"1373","8267.925"
"1374","8265.538"
"1375","8278.854"
"1376","8299.48"
"1377","8306.807"
"1378","8281.387"
"1379","8229.324"
"1380","8178.825"
"1381","8157.86"
"1382","8170.059"
"1383","8193.795"
"1384","8206.785"
"1385","8205.008"
"1386","8206.994"
"1387","8232.287"
"1388","8280.089"
"1389","8319.915"
"1390","8319.221"
"1391","8270.559"
"1392","8209.509"
"1393","8175.744"
"1394","8187.036"
"1395","8217.292"
"1396","8235.221"
"1397","8224.174"
"1398","8201.56"
"1399","8189.616"
"1400","8201.189"
"1401","8223.848"
"1402","8240.961"
"1403","8241.096"
"1404","8228.877"
"1405","8212.016"
"1406","8196.515"
"1407","8182.364"
"1408","8168.234"
"1409","8154.18"
"1410","8145.75"
"1411","8149.863"
"1412","8170.554"
"1413","8199.03"
"1414","8222.93"
"1415","8231.838"
"1416","8224.978"
"1417","8204.555"
"1418","8174.278"
"1419","8146.054"
"1420","8134.56"
"1421","8150.895"
"1422","8184.885"
"1423","8218.552"
"1424","8237.192"
"1425","8247.201"
"1426","8263.296"
"1427","8296.358"
"1428","8330.831"
"1429","8340.052"
"1430","8304.214"
"1431","8253.715"
"1432","8241.157"
"1433","8309.542"
"1434","8427.422"
"1435","8528.967"
"1436","8557.148"
"1437","8526.874"
"1438","8487.426"
"1439","8482.564"
"1440","8508.746"
"1441","8539.24"
"1442","8549.764"
"1443","8538.051"
"1444","8512.814"
"1445","8482.761"
"1446","8455.845"
"1447","8439.655"
"1448","8440.787"
"1449","8457.488"
"1450","8483.795"
"1451","8513.03"
"1452","8532.77"
"1453","8527.726"
"1454","8485.977"
"1455","8423.37"
"1456","8369.338"
"1457","8349.283"
"1458","8355.821"
"1459","8365.948"
"1460","8359.468"
"1461","8338.394"
"1462","8314.946"
"1463","8299.224"
"1464","8285.504"
"1465","8261.116"
"1466","8216.782"
"1467","8166.627"
"1468","8134.531"
"1469","8137.971"
"1470","8153.413"
"1471","8141.248"
"1472","8072.176"
"1473","7977.816"
"1474","7911.996"
"1475","7916.13"
"1476","7964.333"
"1477","8008.129"
"1478","8008.88"
"1479","7976.415"
"1480","7935.396"
"1481","7906.858"
"1482","7895.712"
"1483","7902.416"
"1484","7924.264"
"1485","7946.027"
"1486","7949.384"
"1487","7924.517"
"1488","7891.413"
"1489","7876.577"
"1490","7895.384"
"1491","7928.927"
"1492","7951.741"
"1493","7947.788"
"1494","7926.372"
"1495","7900.997"
"1496","7880.928"
"1497","7865.546"
"1498","7852.85"
"1499","7844.333"
"1500","7848.495"
"1501","7874.533"
"1502","7919.09"
"1503","7957.147"
"1504","7961.9"
"1505","7926.597"
"1506","7874.038"
"1507","7829.007"
"1508","7801.364"
"1509","7782.309"
"1510","7762.136"
"1511","7738.504"
"1512","7716.832"
"1513","7702.866"
"1514","7701.492"
"1515","7716.824"
"1516","7751.677"
"1517","7791.092"
"1518","7807.074"
"1519","7775.194"
"1520","7712.382"
"1521","7660.481"
"1522","7655.871"
"1523","7687.252"
"1524","7720.044"
"1525","7726.019"
"1526","7718.239"
"1527","7725.86"
"1528","7770.167"
"1529","7833.577"
"1530","7886.622"
"1531","7909.506"
"1532","7919.089"
"1533","7940.901"
"1534","7989.821"
"1535","8049.791"
"1536","8099.169"
"1537","8120.435"
"1538","8105.271"
"1539","8046.78"
"1540","7952.063"
"1541","7852.267"
"1542","7780.326"
"1543","7744.07"
"1544","7718.129"
"1545","7676.121"
"1546","7622.069"
"1547","7590.851"
"1548","7615.213"
"1549","7674.413"
"1550","7706.371"
"1551","7656.283"
"1552","7554.514"
"1553","7480.944"
"1554","7501.122"
"1555","7574.991"
"1556","7617.171"
"1557","7564.013"
"1558","7460.842"
"1559","7386.738"
"1560","7395.518"
"1561","7452.339"
"1562","7502.979"
"1563","7512.922"
"1564","7496.458"
"1565","7475.203"
"1566","7461.972"
"1567","7454.042"
"1568","7447.169"
"1569","7439.349"
"1570","7431.422"
"1571","7424.211"
"1572","7414.705"
"1573","7396.414"
"1574","7364.051"
"1575","7327.737"
"1576","7307.481"
"1577","7319.759"
"1578","7353.778"
"1579","7386.595"
"1580","7398.924"
"1581","7389.445"
"1582","7362.229"
"1583","7324.46"
"1584","7293.16"
"1585","7287.221"
"1586","7311.193"
"1587","7339.403"
"1588","7342.848"
"1589","7317.5"
"1590","7294.811"
"1591","7307.329"
"1592","7352.091"
"1593","7391.939"
"1594","7391.693"
"1595","7356.001"
"1596","7315.293"
"1597","7296.313"
"1598","7296.99"
"1599","7303.033"
"1600","7303.696"
"1601","7303.704"
"1602","7311.923"
"1603","7330.939"
"1604","7346.554"
"1605","7341.933"
"1606","7312.82"
"1607","7276.339"
"1608","7251.239"
"1609","7243.641"
"1610","7245.811"
"1611","7249.626"
"1612","7251.303"
"1613","7250.098"
"1614","7246.645"
"1615","7251.047"
"1616","7277.615"
"1617","7334.184"
"1618","7400.932"
"1619","7450.668"
"1620","7466.422"
"1621","7457.082"
"1622","7435.466"
"1623","7408.938"
"1624","7376.448"
"1625","7336.591"
"1626","7295.407"
"1627","7266.025"
"1628","7260.605"
"1629","7278.464"
"1630","7311.428"
"1631","7350.799"
"1632","7385.563"
"1633","7403.895"
"1634","7398.103"
"1635","7373.372"
"1636","7337.42"
"1637","7301.569"
"1638","7283.577"
"1639","7301.079"
"1640","7350.562"
"1641","7406.009"
"1642","7442.082"
"1643","7453.787"
"1644","7448.923"
"1645","7434.834"
"1646","7415.041"
"1647","7391.693"
"1648","7368.871"
"1649","7356.615"
"1650","7366.002"
"1651","7396.981"
"1652","7430.254"
"1653","7445.383"
"1654","7439.883"
"1655","7429.061"
"1656","7427.182"
"1657","7431"
"1658","7427.42"
"1659","7405.925"
"1660","7369.147"
"1661","7323.731"
"1662","7280.816"
"1663","7262.92"
"1664","7293.655"
"1665","7364.365"
"1666","7421.833"
"1667","7414"
"1668","7355.534"
"1669","7312.208"
"1670","7338.439"
"1671","7403.102"
"1672","7439.8"
"1673","7404.274"
"1674","7326.615"
"1675","7252.22"
"1676","7208.551"
"1677","7192.159"
"1678","7196.378"
"1679","7211.398"
"1680","7224.504"
"1681","7223.772"
"1682","7204.79"
"1683","7166.802"
"1684","7112.859"
"1685","7060.617"
"1686","7031.18"
"1687","7034.241"
"1688","7057.683"
"1689","7086.948"
"1690","7108.224"
"1691","7108.433"
"1692","7077.458"
"1693","7030.459"
"1694","6995.502"
"1695","6991.022"
"1696","6997.209"
"1697","6985.031"
"1698","6945.836"
"1699","6909.243"
"1700","6907.459"
"1701","6937.583"
"1702","6963.433"
"1703","6953.009"
"1704","6917.86"
"1705","6890.083"
"1706","6891.182"
"1707","6905.162"
"1708","6908.039"
"1709","6891.375"
"1710","6872.244"
"1711","6868.878"
"1712","6879.497"
"1713","6886.124"
"1714","6875.034"
"1715","6862.053"
"1716","6874.388"
"1717","6922.033"
"1718","6967.729"
"1719","6967.096"
"1720","6911.986"
"1721","6840.671"
"1722","6791.756"
"1723","6773.679"
"1724","6776.374"
"1725","6789.748"
"1726","6804.819"
"1727","6812.945"
"1728","6811.295"
"1729","6808.216"
"1730","6812.877"
"1731","6825.674"
"1732","6839.142"
"1733","6847.271"
"1734","6855.689"
"1735","6874.772"
"1736","6907.692"
"1737","6937.723"
"1738","6945.038"
"1739","6920.815"
"1740","6869.733"
"1741","6799.432"
"1742","6737.891"
"1743","6724.453"
"1744","6780.729"
"1745","6861.485"
"1746","6906.384"
"1747","6892.021"
"1748","6853.245"
"1749","6827.575"
"1750","6819.377"
"1751","6809.679"
"1752","6785.73"
"1753","6766.699"
"1754","6781.021"
"1755","6832.591"
"1756","6878.345"
"1757","6872.912"
"1758","6822.854"
"1759","6777.941"
"1760","6778.97"
"1761","6808.428"
"1762","6828.532"
"1763","6818.657"
"1764","6795.75"
"1765","6780.629"
"1766","6771.646"
"1767","6746.404"
"1768","6688.992"
"1769","6628.664"
"1770","6611.904"
"1771","6657.335"
"1772","6718.364"
"1773","6741.335"
"1774","6722.71"
"1775","6707.252"
"1776","6731.651"
"1777","6768.275"
"1778","6764.378"
"1779","6700.861"
"1780","6637.53"
"1781","6642.155"
"1782","6710.956"
"1783","6772.506"
"1784","6766.356"
"1785","6715.607"
"1786","6674.603"
"1787","6672.886"
"1788","6685.353"
"1789","6681.325"
"1790","6661.545"
"1791","6654.172"
"1792","6680.644"
"1793","6720.931"
"1794","6741.173"
"1795","6721.665"
"1796","6670.099"
"1797","6598.417"
"1798","6534.616"
"1799","6518.888"
"1800","6575.892"
"1801","6659.213"
"1802","6703.092"
"1803","6683.071"
"1804","6640.807"
"1805","6620.473"
"1806","6627.817"
"1807","6644.873"
"1808","6655.701"
"1809","6652.75"
"1810","6630.612"
"1811","6596.344"
"1812","6572.593"
"1813","6578.129"
"1814","6593.429"
"1815","6580.996"
"1816","6526.553"
"1817","6474.957"
"1818","6478.161"
"1819","6543.056"
"1820","6634.796"
"1821","6718.355"
"1822","6766.61"
"1823","6755.256"
"1824","6683.896"
"1825","6594.26"
"1826","6530.272"
"1827","6510.124"
"1828","6535.478"
"1829","6596.286"
"1830","6643.441"
"1831","6621.25"
"1832","6533.218"
"1833","6452.304"
"1834","6443.168"
"1835","6486.591"
"1836","6528.759"
"1837","6540.119"
"1838","6542.667"
"1839","6562.778"
"1840","6595.812"
"1841","6614.161"
"1842","6598.341"
"1843","6562.531"
"1844","6528.856"
"1845","6511.583"
"1846","6515.049"
"1847","6541.351"
"1848","6581.149"
"1849","6620.16"
"1850","6648.018"
"1851","6662.764"
"1852","6663.678"
"1853","6652.369"
"1854","6632.121"
"1855","6606.526"
"1856","6580.085"
"1857","6557.327"
"1858","6536.877"
"1859","6510.566"
"1860","6473.897"
"1861","6447.216"
"1862","6460.05"
"1863","6518.271"
"1864","6584.977"
"1865","6621.672"
"1866","6621.257"
"1867","6595.351"
"1868","6557.982"
"1869","6529.179"
"1870","6528.888"
"1871","6554.466"
"1872","6583.011"
"1873","6593.515"
"1874","6576.74"
"1875","6527.248"
"1876","6462.876"
"1877","6431.895"
"1878","6473.633"
"1879","6552.548"
"1880","6602.41"
"1881","6591.506"
"1882","6553.182"
"1883","6525.442"
"1884","6519.347"
"1885","6530.045"
"1886","6548.294"
"1887","6553.802"
"1888","6526.39"
"1889","6478.488"
"1890","6449.054"
"1891","6464.319"
"1892","6499.777"
"1893","6519.928"
"1894","6514.479"
"1895","6500.509"
"1896","6493.168"
"1897","6490.447"
"1898","6484.962"
"1899","6475.864"
"1900","6471.545"
"1901","6478.669"
"1902","6487.007"
"1903","6479.313"
"1904","6453.099"
"1905","6432.587"
"1906","6441.44"
"1907","6471.706"
"1908","6498.461"
"1909","6506.852"
"1910","6505.274"
"1911","6504.113"
"1912","6498.954"
"1913","6475.593"
"1914","6430.731"
"1915","6391.945"
"1916","6390.002"
"1917","6421.064"
"1918","6453.892"
"1919","6464.008"
"1920","6452.272"
"1921","6425.184"
"1922","6396.002"
"1923","6384.214"
"1924","6402.014"
"1925","6431.901"
"1926","6449.712"
"1927","6448.135"
"1928","6437.477"
"1929","6427.658"
"1930","6423.014"
"1931","6426.106"
"1932","6432.631"
"1933","6430.343"
"1934","6410.67"
"1935","6385.667"
"1936","6373.411"
"1937","6377.56"
"1938","6383.68"
"1939","6378.358"
"1940","6360.022"
"1941","6331.272"
"1942","6303.731"
"1943","6300.941"
"1944","6339.955"
"1945","6396.346"
"1946","6431.547"
"1947","6427.306"
"1948","6393.099"
"1949","6342.815"
"1950","6303.98"
"1951","6308.277"
"1952","6352.023"
"1953","6383.056"
"1954","6357.807"
"1955","6302.656"
"1956","6268.083"
"1957","6272.046"
"1958","6288.666"
"1959","6292.877"
"1960","6281.507"
"1961","6258.923"
"1962","6231.286"
"1963","6207.052"
"1964","6192.457"
"1965","6181.313"
"1966","6163.945"
"1967","6148.064"
"1968","6162.351"
"1969","6223.159"
"1970","6282.446"
"1971","6275.342"
"1972","6200.985"
"1973","6129.102"
"1974","6114.736"
"1975","6135.212"
"1976","6148.798"
"1977","6145.653"
"1978","6147.316"
"1979","6163.637"
"1980","6156.999"
"1981","6082.88"
"1982","5967.728"
"1983","5898.876"
"1984","5928.892"
"1985","5996.922"
"1986","6025.687"
"1987","6013.867"
"1988","6015.499"
"1989","6056.031"
"1990","6084.954"
"1991","6047.308"
"1992","5968.952"
"1993","5924.435"
"1994","5949.717"
"1995","5999.805"
"1996","6025.116"
"1997","6021.002"
"1998","6004.591"
"1999","5986.337"
"2000","5965.478"
"2001","5941.604"
"2002","5922.759"
"2003","5919.981"
"2004","5935.12"
"2005","5958.266"
"2006","5979.274"
"2007","5990.661"
"2008","5985.829"
"2009","5961.898"
"2010","5919.631"
"2011","5862.559"
"2012","5802.893"
"2013","5754.942"
"2014","5736.352"
"2015","5767.172"
"2016","5844.617"
"2017","5911.242"
"2018","5908.376"
"2019","5840.877"
"2020","5747.776"
"2021","5684.11"
"2022","5731.343"
"2023","5926.5"
"2024","6022.092"
"2025","5677.119"
"2026","4990.679"
"2027","4589.079"
"2028","4916.871"
"2029","5562.447"
"2030","5927.829"
"2031","5898.112"
"2032","5758.808"
"2033","5712.374"
"2034","5711.905"
"2035","5679.965"
"2036","5631.719"
"2037","5633.332"
"2038","5701.727"
"2039","5769.109"
"2040","5772.117"
"2041","5721.702"
"2042","5654.85"
"2043","5592.471"
"2044","5537.612"
"2045","5495.886"
"2046","5484.961"
"2047","5522.244"
"2048","5586.196"
"2049","5627.794"
"2050","5619.649"
"2051","5581.39"
"2052","5538.062"
"2053","5510.253"
"2054","5516.034"
"2055","5548.405"
"2056","5568.147"
"2057","5546.404"
"2058","5504.905"
"2059","5476.271"
"2060","5464.544"
"2061","5451.549"
"2062","5428.695"
"2063","5410.466"
"2064","5413.511"
"2065","5446.424"
"2066","5513.399"
"2067","5588.617"
"2068","5607.223"
"2069","5531.581"
"2070","5442.372"
"2071","5441.364"
"2072","5510.702"
"2073","5543.586"
"2074","5490.209"
"2075","5425.367"
"2076","5425.167"
"2077","5468.11"
"2078","5494.037"
"2079","5480.305"
"2080","5447.577"
"2081","5415.073"
"2082","5389.08"
"2083","5372.127"
"2084","5354.441"
"2085","5318.796"
"2086","5265.598"
"2087","5225.332"
"2088","5226.061"
"2089","5268.253"
"2090","5342.438"
"2091","5416.429"
"2092","5437.916"
"2093","5378.216"
"2094","5267.705"
"2095","5148.427"
"2096","5082.95"
"2097","5140.197"
"2098","5289.607"
"2099","5380.988"
"2100","5317.569"
"2101","5204.831"
"2102","5177.89"
"2103","5238.474"
"2104","5309.234"
"2105","5342.888"
"2106","5340.741"
"2107","5311.816"
"2108","5280.45"
"2109","5271.838"
"2110","5262.283"
"2111","5191.884"
"2112","5057.305"
"2113","4966.049"
"2114","5008.471"
"2115","5110.31"
"2116","5147.346"
"2117","5113.809"
"2118","5109.729"
"2119","5176.952"
"2120","5215.34"
"2121","5131.222"
"2122","5003.142"
"2123","4972.921"
"2124","5047.238"
"2125","5095.027"
"2126","5039.464"
"2127","4960.95"
"2128","4949.528"
"2129","4979.985"
"2130","4978.125"
"2131","4932.949"
"2132","4903.687"
"2133","4924.659"
"2134","4950.145"
"2135","4928.96"
"2136","4876.837"
"2137","4840.244"
"2138","4843.5"
"2139","4885.21"
"2140","4948.058"
"2141","4973.402"
"2142","4908.307"
"2143","4804.018"
"2144","4758.332"
"2145","4784.434"
"2146","4798.81"
"2147","4751.115"
"2148","4698.532"
"2149","4705.303"
"2150","4747.984"
"2151","4765.036"
"2152","4740.944"
"2153","4710.022"
"2154","4698.793"
"2155","4707.075"
"2156","4727.029"
"2157","4727.903"
"2158","4672.374"
"2159","4589.303"
"2160","4571.963"
"2161","4654.518"
"2162","4730.075"
"2163","4700.748"
"2164","4635.891"
"2165","4656.223"
"2166","4729.238"
"2167","4693.904"
"2168","4506.44"
"2169","4356.705"
"2170","4405.972"
"2171","4552.339"
"2172","4626.735"
"2173","4601.013"
"2174","4544.846"
"2175","4495.358"
"2176","4435.728"
"2177","4364.577"
"2178","4354.294"
"2179","4477.055"
"2180","4641.288"
"2181","4669.566"
"2182","4529.45"
"2183","4365.403"
"2184","4289"
"2185","4291.859"
"2186","4343.809"
"2187","4404.966"
"2188","4432.273"
"2189","4401.075"
"2190","4303.732"
"2191","4176.75"
"2192","4141.889"
"2193","4279.574"
"2194","4434.616"
"2195","4405.226"
"2196","4235.989"
"2197","4127.48"
"2198","4151.155"
"2199","4197.855"
"2200","4185.91"
"2201","4156.604"
"2202","4164.892"
"2203","4197.864"
"2204","4214.726"
"2205","4206.067"
"2206","4191.483"
"2207","4178.324"
"2208","4148.077"
"2209","4089.228"
"2210","4033.551"
"2211","4019.504"
"2212","4031.981"
"2213","4025.004"
"2214","3985.792"
"2215","3942.697"
"2216","3925.554"
"2217","3961.317"
"2218","4062.29"
"2219","4159.04"
"2220","4159.797"
"2221","4073.057"
"2222","3981.479"
"2223","3927.295"
"2224","3889.12"
"2225","3850.262"
"2226","3825.434"
"2227","3828.265"
"2228","3821.356"
"2229","3749.66"
"2230","3635.658"
"2231","3568.495"
"2232","3585.829"
"2233","3632.852"
"2234","3661.898"
"2235","3684.021"
"2236","3717.658"
"2237","3736.042"
"2238","3694.036"
"2239","3609.272"
"2240","3557.675"
"2241","3569.313"
"2242","3586.419"
"2243","3564.749"
"2244","3545.991"
"2245","3580.185"
"2246","3621.83"
"2247","3583.498"
"2248","3466.811"
"2249","3356.683"
"2250","3307.784"
"2251","3314.547"
"2252","3355.387"
"2253","3373.869"
"2254","3317.167"
"2255","3220.337"
"2256","3155.804"
"2257","3143.672"
"2258","3158.211"
"2259","3169.699"
"2260","3144.513"
"2261","3074.494"
"2262","3033.767"
"2263","3092.064"
"2264","3183.151"
"2265","3192.607"
"2266","3096.991"
"2267","2942.037"
"2268","2789.608"
"2269","2721.371"
"2270","2775.37"
"2271","2871.615"
"2272","2918.97"
"2273","2868.555"
"2274","2695.641"
"2275","2490.718"
"2276","2409.466"
"2277","2469.675"
"2278","2536.705"
"2279","2523.589"
"2280","2454.646"
"2281","2370.021"
"2282","2319.353"
"2283","2340.363"
"2284","2364.177"
"2285","2281.64"
"2286","2113.632"
"2287","1985.483"
"2288","1947.862"
"2289","1939.694"
"2290","1919.657"
"2291","1920.37"
"2292","1967.03"
"2293","1990.503"
"2294","1905.808"
"2295","1754.541"
"2296","1645.591"
"2297","1614.177"
"2298","1623.092"
"2299","1634.98"
"2300","1617.444"
