,"Scan 00844"
"400","9461.138"
"401","9437.08"
"402","9436.513"
"403","9457.124"
"404","9496.614"
"405","9552.355"
"406","9618.723"
"407","9688.606"
"408","9754.937"
"409","9810.952"
"410","9853.367"
"411","9881.317"
"412","9893.983"
"413","9890.641"
"414","9872.243"
"415","9841.31"
"416","9800.396"
"417","9752.094"
"418","9700.731"
"419","9652.771"
"420","9614.769"
"421","9593.115"
"422","9586.761"
"423","9582.679"
"424","9566.848"
"425","9525.41"
"426","9455.853"
"427","9379.266"
"428","9319.548"
"429","9300.424"
"430","9333.856"
"431","9400.386"
"432","9475.438"
"433","9534.616"
"434","9560.178"
"435","9556.964"
"436","9534.651"
"437","9502.847"
"438","9469.59"
"439","9436.303"
"440","9402.594"
"441","9368.073"
"442","9333.011"
"443","9301.279"
"444","9277.951"
"445","9268.063"
"446","9275.091"
"447","9292.099"
"448","9307.893"
"449","9311.341"
"450","9293.194"
"451","9259.24"
"452","9222.632"
"453","9196.48"
"454","9192.17"
"455","9204.449"
"456","9218.531"
"457","9219.61"
"458","9194.348"
"459","9145.966"
"460","9088.636"
"461","9036.617"
"462","9003.239"
"463","8989.466"
"464","8987.03"
"465","8987.494"
"466","8983.004"
"467","8974.852"
"468","8971.929"
"469","8983.309"
"470","9017.326"
"471","9068.718"
"472","9119.789"
"473","9152.49"
"474","9149.739"
"475","9114.088"
"476","9067.56"
"477","9032.869"
"478","9031.746"
"479","9063.709"
"480","9104.766"
"481","9129.918"
"482","9115.111"
"483","9058.925"
"484","8985.199"
"485","8918.975"
"486","8884.529"
"487","8887.092"
"488","8909.774"
"489","8934.54"
"490","8943.813"
"491","8931.58"
"492","8905.607"
"493","8874.418"
"494","8846.287"
"495","8822.643"
"496","8796.66"
"497","8761.06"
"498","8708.858"
"499","8641.542"
"500","8570.785"
"501","8508.813"
"502","8467.435"
"503","8447.355"
"504","8436.114"
"505","8420.545"
"506","8387.876"
"507","8334.978"
"508","8269.835"
"509","8201.008"
"510","8136.875"
"511","8082.156"
"512","8037.528"
"513","8003.45"
"514","7980.291"
"515","7966.179"
"516","7956.895"
"517","7948.132"
"518","7935.689"
"519","7917.255"
"520","7892.358"
"521","7860.61"
"522","7821.969"
"523","7783.202"
"524","7757.19"
"525","7756.969"
"526","7794.143"
"527","7857.72"
"528","7918.208"
"529","7945.721"
"530","7912.872"
"531","7825.285"
"532","7712.822"
"533","7605.755"
"534","7532.222"
"535","7496.896"
"536","7489.207"
"537","7498.376"
"538","7513.985"
"539","7528.652"
"540","7536.731"
"541","7532.627"
"542","7512.108"
"543","7481.842"
"544","7453.773"
"545","7439.816"
"546","7449.756"
"547","7479.482"
"548","7519.229"
"549","7559.26"
"550","7590.802"
"551","7610.082"
"552","7615.021"
"553","7603.559"
"554","7575.393"
"555","7537.91"
"556","7500.569"
"557","7472.791"
"558","7461.239"
"559","7463.109"
"560","7473.54"
"561","7487.705"
"562","7500.754"
"563","7507.767"
"564","7503.828"
"565","7484.071"
"566","7449.131"
"567","7411.444"
"568","7384.93"
"569","7383.287"
"570","7408.761"
"571","7444.411"
"572","7471.54"
"573","7471.865"
"574","7440.313"
"575","7388.957"
"576","7330.963"
"577","7279.251"
"578","7242.417"
"579","7224.727"
"580","7230.241"
"581","7262.238"
"582","7312.679"
"583","7364.959"
"584","7402.329"
"585","7410.101"
"586","7393.196"
"587","7367.604"
"588","7349.377"
"589","7351.854"
"590","7370.46"
"591","7393.272"
"592","7408.395"
"593","7406.738"
"594","7392.114"
"595","7372.07"
"596","7354.123"
"597","7344.42"
"598","7344.78"
"599","7356.143"
"600","7379.434"
"601","7411.695"
"602","7441.387"
"603","7455.86"
"604","7442.702"
"605","7400.582"
"606","7345.179"
"607","7293.55"
"608","7262.211"
"609","7255.076"
"610","7262.613"
"611","7274.679"
"612","7281.69"
"613","7281.425"
"614","7277.068"
"615","7271.912"
"616","7268.937"
"617","7268.589"
"618","7270.073"
"619","7272.586"
"620","7275.005"
"621","7274.557"
"622","7267.945"
"623","7251.888"
"624","7225.63"
"625","7196.485"
"626","7173.351"
"627","7165.06"
"628","7175.712"
"629","7199.886"
"630","7231.041"
"631","7262.715"
"632","7290.936"
"633","7314.923"
"634","7334.113"
"635","7347.916"
"636","7355.303"
"637","7354.884"
"638","7345.256"
"639","7325.504"
"640","7298.843"
"641","7270.625"
"642","7246.197"
"643","7229.871"
"644","7220.858"
"645","7216.792"
"646","7215.313"
"647","7214.991"
"648","7217.009"
"649","7223.015"
"650","7234.627"
"651","7251.11"
"652","7267.758"
"653","7279.5"
"654","7281.46"
"655","7272.982"
"656","7257.702"
"657","7239.429"
"658","7222.056"
"659","7210.422"
"660","7209.939"
"661","7226.008"
"662","7260.949"
"663","7300.19"
"664","7323.407"
"665","7310.339"
"666","7252.088"
"667","7173.345"
"668","7104.943"
"669","7077.353"
"670","7102.072"
"671","7159.458"
"672","7227.036"
"673","7283.028"
"674","7318.808"
"675","7337.97"
"676","7344.579"
"677","7342.864"
"678","7338.705"
"679","7338.822"
"680","7349.929"
"681","7376.301"
"682","7411.641"
"683","7446.775"
"684","7472.573"
"685","7483.543"
"686","7482.321"
"687","7472.634"
"688","7458.165"
"689","7441.211"
"690","7422.427"
"691","7402.369"
"692","7381.923"
"693","7365.78"
"694","7361.073"
"695","7374.952"
"696","7410.95"
"697","7453.631"
"698","7481.391"
"699","7472.698"
"700","7418.776"
"701","7343.083"
"702","7274.045"
"703","7239.518"
"704","7247.82"
"705","7282.27"
"706","7324.589"
"707","7357.61"
"708","7377.064"
"709","7387.175"
"710","7392.302"
"711","7396.174"
"712","7399.308"
"713","7401.192"
"714","7401.319"
"715","7399.773"
"716","7398.04"
"717","7397.803"
"718","7400.775"
"719","7409.573"
"720","7427.851"
"721","7459.314"
"722","7506.376"
"723","7558.853"
"724","7599.483"
"725","7610.955"
"726","7582.898"
"727","7533.326"
"728","7487.504"
"729","7470.49"
"730","7491.915"
"731","7533.107"
"732","7572.402"
"733","7589.198"
"734","7581.617"
"735","7564.034"
"736","7551.35"
"737","7556.018"
"738","7574.76"
"739","7598.03"
"740","7616.279"
"741","7622.998"
"742","7619.88"
"743","7609.987"
"744","7596.407"
"745","7583.119"
"746","7575.195"
"747","7577.759"
"748","7594.998"
"749","7622.317"
"750","7650.3"
"751","7669.498"
"752","7673.429"
"753","7666.437"
"754","7655.338"
"755","7646.924"
"756","7647.086"
"757","7660.346"
"758","7691.105"
"759","7742.755"
"760","7806.277"
"761","7864.249"
"762","7899.106"
"763","7898.194"
"764","7870.646"
"765","7831.668"
"766","7796.387"
"767","7774.367"
"768","7765.323"
"769","7767.957"
"770","7780.907"
"771","7801.842"
"772","7827.703"
"773","7855.416"
"774","7882.015"
"775","7905.04"
"776","7922.188"
"777","7931.186"
"778","7932.4"
"779","7931.141"
"780","7933.257"
"781","7944.358"
"782","7966.674"
"783","7999.806"
"784","8043.294"
"785","8095.259"
"786","8146.964"
"787","8187.609"
"788","8206.495"
"789","8200.749"
"790","8181.533"
"791","8161.453"
"792","8152.387"
"793","8156.435"
"794","8168.668"
"795","8184.01"
"796","8197.801"
"797","8207.169"
"798","8209.729"
"799","8203.183"
"800","8190.775"
"801","8184.415"
"802","8196.759"
"803","8238.244"
"804","8295.409"
"805","8340.219"
"806","8344.45"
"807","8292.525"
"808","8212.583"
"809","8142.175"
"810","8118.101"
"811","8150.66"
"812","8216.979"
"813","8292.095"
"814","8353.034"
"815","8392.256"
"816","8409.477"
"817","8404.469"
"818","8380.579"
"819","8350.22"
"820","8327.212"
"821","8324.633"
"822","8340.976"
"823","8361.278"
"824","8370.094"
"825","8355.837"
"826","8327.153"
"827","8299.271"
"828","8287.311"
"829","8297.871"
"830","8322.905"
"831","8352.926"
"832","8378.976"
"833","8397.903"
"834","8410.159"
"835","8416.245"
"836","8417.795"
"837","8420.086"
"838","8429.127"
"839","8450.634"
"840","8482.442"
"841","8513.787"
"842","8533.477"
"843","8532.468"
"844","8514.683"
"845","8488.884"
"846","8463.814"
"847","8446.746"
"848","8442.188"
"849","8454.348"
"850","8486.811"
"851","8535.946"
"852","8593.528"
"853","8651.267"
"854","8702.034"
"855","8742.403"
"856","8769.669"
"857","8781.27"
"858","8777.995"
"859","8764.052"
"860","8743.809"
"861","8721.925"
"862","8704.638"
"863","8698.693"
"864","8710.745"
"865","8741.117"
"866","8780.132"
"867","8817.229"
"868","8842.525"
"869","8852.029"
"870","8844.803"
"871","8819.952"
"872","8782.283"
"873","8750.305"
"874","8744.531"
"875","8783.639"
"876","8859.103"
"877","8941.642"
"878","9001.451"
"879","9017.843"
"880","9002.847"
"881","8975.844"
"882","8955.866"
"883","8952.856"
"884","8966.976"
"885","8997.9"
"886","9043.856"
"887","9095.496"
"888","9141"
"889","9168.725"
"890","9175.954"
"891","9173.09"
"892","9171.573"
"893","9181.084"
"894","9198.273"
"895","9213.943"
"896","9218.93"
"897","9210.681"
"898","9199.523"
"899","9197.27"
"900","9214.293"
"901","9246.194"
"902","9279.916"
"903","9302.295"
"904","9305.318"
"905","9293.904"
"906","9274.974"
"907","9255.396"
"908","9241.357"
"909","9238.529"
"910","9252.578"
"911","9286.76"
"912","9336.731"
"913","9396.659"
"914","9460.543"
"915","9519.421"
"916","9561.689"
"917","9575.651"
"918","9554.341"
"919","9508.948"
"920","9455.022"
"921","9407.871"
"922","9376.747"
"923","9364.627"
"924","9374.191"
"925","9406.403"
"926","9454.48"
"927","9509.461"
"928","9562.404"
"929","9604.95"
"930","9629.432"
"931","9628.219"
"932","9596.878"
"933","9547.219"
"934","9496.195"
"935","9460.592"
"936","9450.349"
"937","9466.649"
"938","9510.106"
"939","9577.952"
"940","9648.75"
"941","9694.642"
"942","9688.39"
"943","9629.881"
"944","9555.794"
"945","9505.441"
"946","9510.183"
"947","9555.242"
"948","9609.262"
"949","9641.228"
"950","9637.525"
"951","9608.733"
"952","9567.215"
"953","9524.89"
"954","9491.054"
"955","9474.051"
"956","9482.033"
"957","9514.39"
"958","9558.425"
"959","9600.555"
"960","9628.621"
"961","9638.628"
"962","9629.466"
"963","9600.193"
"964","9556.872"
"965","9514.837"
"966","9490.08"
"967","9495.128"
"968","9523.954"
"969","9564.349"
"970","9604.239"
"971","9636.621"
"972","9660.769"
"973","9676.344"
"974","9682.676"
"975","9677.487"
"976","9658.007"
"977","9621.687"
"978","9572.155"
"979","9519.98"
"980","9476.099"
"981","9450.478"
"982","9448.938"
"983","9476.194"
"984","9536.188"
"985","9615.194"
"986","9682.121"
"987","9705.13"
"988","9665.932"
"989","9595.069"
"990","9534.081"
"991","9522.316"
"992","9561.413"
"993","9621.356"
"994","9671.151"
"995","9690.471"
"996","9690.537"
"997","9688.378"
"998","9699.81"
"999","9725.028"
"1000","9753.387"
"1001","9774.039"
"1002","9781.275"
"1003","9781.534"
"1004","9783.004"
"1005","9793.885"
"1006","9820.558"
"1007","9857.209"
"1008","9892.99"
"1009","9917.129"
"1010","9923.41"
"1011","9912.162"
"1012","9884.222"
"1013","9842.432"
"1014","9800.522"
"1015","9775.912"
"1016","9785.48"
"1017","9828.695"
"1018","9884.565"
"1019","9930.919"
"1020","9951.461"
"1021","9954.754"
"1022","9955.922"
"1023","9969.322"
"1024","9993.637"
"1025","10013.03"
"1026","10011.1"
"1027","9980.724"
"1028","9943.892"
"1029","9928.338"
"1030","9959.319"
"1031","10029.44"
"1032","10108.39"
"1033","10165.42"
"1034","10183.47"
"1035","10176.47"
"1036","10162.68"
"1037","10158.8"
"1038","10168.09"
"1039","10187.04"
"1040","10212.04"
"1041","10237.96"
"1042","10257.22"
"1043","10261.98"
"1044","10248.12"
"1045","10231.82"
"1046","10236.35"
"1047","10283.87"
"1048","10367.09"
"1049","10446.35"
"1050","10480.32"
"1051","10445.17"
"1052","10378.89"
"1053","10333.1"
"1054","10355.27"
"1055","10435.44"
"1056","10521.95"
"1057","10562.33"
"1058","10532.6"
"1059","10471.19"
"1060","10424.79"
"1061","10433.54"
"1062","10487.87"
"1063","10555.66"
"1064","10605.11"
"1065","10623.27"
"1066","10622.59"
"1067","10617.31"
"1068","10618.92"
"1069","10627.15"
"1070","10638.65"
"1071","10650.13"
"1072","10659.59"
"1073","10666.02"
"1074","10668.48"
"1075","10667.09"
"1076","10664.58"
"1077","10664.04"
"1078","10667.92"
"1079","10673.73"
"1080","10676.7"
"1081","10672.17"
"1082","10659.76"
"1083","10644.62"
"1084","10632.28"
"1085","10627.53"
"1086","10632.33"
"1087","10647.96"
"1088","10675.18"
"1089","10708.15"
"1090","10736.28"
"1091","10748.95"
"1092","10743.83"
"1093","10734.45"
"1094","10736.23"
"1095","10760.83"
"1096","10798.54"
"1097","10831.93"
"1098","10843.93"
"1099","10826.49"
"1100","10780.46"
"1101","10707.04"
"1102","10614.03"
"1103","10526.72"
"1104","10473.31"
"1105","10477.19"
"1106","10522.82"
"1107","10575.84"
"1108","10602.47"
"1109","10594.23"
"1110","10574.54"
"1111","10568.86"
"1112","10593.31"
"1113","10632.33"
"1114","10663.62"
"1115","10667.07"
"1116","10645.04"
"1117","10613.17"
"1118","10587.11"
"1119","10575.73"
"1120","10577.85"
"1121","10591.47"
"1122","10613.32"
"1123","10635.14"
"1124","10647.43"
"1125","10641.93"
"1126","10625.32"
"1127","10614.04"
"1128","10624.49"
"1129","10658.22"
"1130","10693.18"
"1131","10705.19"
"1132","10678.24"
"1133","10630.36"
"1134","10588.39"
"1135","10577.24"
"1136","10597.74"
"1137","10634.68"
"1138","10672.67"
"1139","10702.47"
"1140","10724.57"
"1141","10740.32"
"1142","10749.88"
"1143","10748.77"
"1144","10731.29"
"1145","10693.26"
"1146","10646.91"
"1147","10614.67"
"1148","10618.73"
"1149","10660.49"
"1150","10711.54"
"1151","10741.15"
"1152","10730.97"
"1153","10705.54"
"1154","10698.68"
"1155","10739.08"
"1156","10808.62"
"1157","10864.22"
"1158","10863.87"
"1159","10807.23"
"1160","10744.07"
"1161","10727.08"
"1162","10784.34"
"1163","10876.28"
"1164","10951.81"
"1165","10968.28"
"1166","10940.75"
"1167","10908.21"
"1168","10907.89"
"1169","10939.17"
"1170","10966.52"
"1171","10953.26"
"1172","10890.88"
"1173","10827.46"
"1174","10817.9"
"1175","10899.23"
"1176","11024.81"
"1177","11123.57"
"1178","11130.94"
"1179","11059.93"
"1180","10974.19"
"1181","10937.31"
"1182","10968.63"
"1183","11026.92"
"1184","11066.52"
"1185","11058.84"
"1186","11025.75"
"1187","10998.45"
"1188","11003.22"
"1189","11032.69"
"1190","11065.48"
"1191","11081.15"
"1192","11077.8"
"1193","11069.63"
"1194","11071.3"
"1195","11089.71"
"1196","11118.01"
"1197","11147.98"
"1198","11172.55"
"1199","11189.02"
"1200","11195.72"
"1201","11192.1"
"1202","11186.81"
"1203","11193.17"
"1204","11223.58"
"1205","11268.66"
"1206","11297.31"
"1207","11277.71"
"1208","11204.58"
"1209","11124.71"
"1210","11090.99"
"1211","11138.74"
"1212","11232.13"
"1213","11317.3"
"1214","11346.36"
"1215","11323.81"
"1216","11281.27"
"1217","11249.78"
"1218","11241.67"
"1219","11250.79"
"1220","11270.21"
"1221","11293.76"
"1222","11316.75"
"1223","11334.64"
"1224","11343.74"
"1225","11343.54"
"1226","11334.26"
"1227","11316.84"
"1228","11297.73"
"1229","11285.87"
"1230","11289.73"
"1231","11308.97"
"1232","11335.77"
"1233","11362.21"
"1234","11386.46"
"1235","11416.18"
"1236","11459.77"
"1237","11519.28"
"1238","11578.42"
"1239","11617.65"
"1240","11621.77"
"1241","11599.76"
"1242","11568.87"
"1243","11545.38"
"1244","11534.64"
"1245","11535.1"
"1246","11545.09"
"1247","11562.2"
"1248","11583.23"
"1249","11604.93"
"1250","11627.9"
"1251","11660.03"
"1252","11710.03"
"1253","11778.76"
"1254","11839.84"
"1255","11860.98"
"1256","11818.18"
"1257","11740.58"
"1258","11678.21"
"1259","11677.26"
"1260","11734.27"
"1261","11812"
"1262","11873.18"
"1263","11899.23"
"1264","11892.85"
"1265","11857.96"
"1266","11805.58"
"1267","11760.14"
"1268","11747.6"
"1269","11782.46"
"1270","11841.92"
"1271","11895.54"
"1272","11918.24"
"1273","11915.44"
"1274","11903.32"
"1275","11896.96"
"1276","11900"
"1277","11909.32"
"1278","11921.66"
"1279","11932.75"
"1280","11937.38"
"1281","11930.38"
"1282","11911.98"
"1283","11890.47"
"1284","11874.8"
"1285","11870.4"
"1286","11874.19"
"1287","11881.87"
"1288","11889.7"
"1289","11896.05"
"1290","11899.88"
"1291","11900.06"
"1292","11895.08"
"1293","11883.27"
"1294","11863.88"
"1295","11846.14"
"1296","11845.57"
"1297","11876.95"
"1298","11937.88"
"1299","12009.59"
"1300","12072.7"
"1301","12111.54"
"1302","12115.71"
"1303","12075.29"
"1304","11994.11"
"1305","11905.75"
"1306","11847.66"
"1307","11846.03"
"1308","11889.69"
"1309","11959.76"
"1310","12037.02"
"1311","12100.73"
"1312","12129.62"
"1313","12106.24"
"1314","12043.46"
"1315","11968.75"
"1316","11908.5"
"1317","11873.77"
"1318","11864.92"
"1319","11881.8"
"1320","11917.02"
"1321","11956.02"
"1322","11984.08"
"1323","11993.83"
"1324","11988.35"
"1325","11971.49"
"1326","11947.96"
"1327","11924.23"
"1328","11906.98"
"1329","11900.99"
"1330","11905.59"
"1331","11919.2"
"1332","11939.46"
"1333","11961.01"
"1334","11977.7"
"1335","11985.62"
"1336","11993.83"
"1337","12016.12"
"1338","12063.89"
"1339","12128.31"
"1340","12190.43"
"1341","12232.43"
"1342","12252.23"
"1343","12258.39"
"1344","12259.19"
"1345","12252.93"
"1346","12228.91"
"1347","12176.5"
"1348","12097.72"
"1349","12009.75"
"1350","11930.56"
"1351","11873.65"
"1352","11845.42"
"1353","11851.64"
"1354","11889.46"
"1355","11938.54"
"1356","11976.34"
"1357","11988.57"
"1358","11982.98"
"1359","11970.97"
"1360","11961.02"
"1361","11951.28"
"1362","11937.6"
"1363","11918.05"
"1364","11900.76"
"1365","11896.74"
"1366","11914.25"
"1367","11944.79"
"1368","11973.71"
"1369","11987.22"
"1370","11978.76"
"1371","11945.09"
"1372","11885.27"
"1373","11821.27"
"1374","11788.42"
"1375","11818.39"
"1376","11891.66"
"1377","11952.11"
"1378","11946.24"
"1379","11881.78"
"1380","11819.43"
"1381","11819.36"
"1382","11884.91"
"1383","11960.47"
"1384","11988.87"
"1385","11956.2"
"1386","11901.93"
"1387","11868.33"
"1388","11870.6"
"1389","11884.45"
"1390","11882.63"
"1391","11855.23"
"1392","11822.04"
"1393","11805.68"
"1394","11817.27"
"1395","11844.81"
"1396","11873.57"
"1397","11893.35"
"1398","11904.52"
"1399","11908.93"
"1400","11906.69"
"1401","11893.11"
"1402","11862.74"
"1403","11816.64"
"1404","11775.87"
"1405","11765.38"
"1406","11798.63"
"1407","11848.69"
"1408","11879.74"
"1409","11867.67"
"1410","11834.82"
"1411","11815.06"
"1412","11834.02"
"1413","11880.32"
"1414","11932.33"
"1415","11971.72"
"1416","11996.73"
"1417","12010.64"
"1418","12016.76"
"1419","12018.35"
"1420","12018.64"
"1421","12020.17"
"1422","12021.37"
"1423","12019.16"
"1424","12011.85"
"1425","12006.9"
"1426","12015.32"
"1427","12045.78"
"1428","12090.5"
"1429","12134.84"
"1430","12166.81"
"1431","12194.04"
"1432","12232.83"
"1433","12295.63"
"1434","12364.97"
"1435","12409.58"
"1436","12403.92"
"1437","12369.11"
"1438","12348.51"
"1439","12379.34"
"1440","12446.96"
"1441","12511.26"
"1442","12536.56"
"1443","12525.69"
"1444","12500.72"
"1445","12482.36"
"1446","12478.88"
"1447","12492.3"
"1448","12523.49"
"1449","12564.19"
"1450","12601.5"
"1451","12622.41"
"1452","12613.28"
"1453","12560.1"
"1454","12453.62"
"1455","12323.29"
"1456","12217.52"
"1457","12177.63"
"1458","12187.62"
"1459","12204.13"
"1460","12189.67"
"1461","12152.47"
"1462","12121.79"
"1463","12121.09"
"1464","12130.72"
"1465","12112.1"
"1466","12034.98"
"1467","11926.62"
"1468","11838.25"
"1469","11810.64"
"1470","11817.33"
"1471","11805.5"
"1472","11734.64"
"1473","11636.96"
"1474","11571.17"
"1475","11582.6"
"1476","11644.07"
"1477","11704.03"
"1478","11719.71"
"1479","11691.73"
"1480","11633.95"
"1481","11560.66"
"1482","11487.9"
"1483","11432.23"
"1484","11407.5"
"1485","11416.77"
"1486","11460.48"
"1487","11529.41"
"1488","11580.62"
"1489","11563.8"
"1490","11456.71"
"1491","11323.44"
"1492","11244.64"
"1493","11265.19"
"1494","11333.88"
"1495","11383.61"
"1496","11374.2"
"1497","11328.14"
"1498","11276.8"
"1499","11240.22"
"1500","11215.74"
"1501","11198.03"
"1502","11186.57"
"1503","11189.14"
"1504","11214.11"
"1505","11256.73"
"1506","11292.92"
"1507","11297.79"
"1508","11272.89"
"1509","11252.83"
"1510","11272.85"
"1511","11329.24"
"1512","11377.16"
"1513","11372.26"
"1514","11315.88"
"1515","11249.8"
"1516","11214.85"
"1517","11218.95"
"1518","11245.85"
"1519","11278.92"
"1520","11303.12"
"1521","11304.42"
"1522","11271.7"
"1523","11217.75"
"1524","11167.02"
"1525","11139.78"
"1526","11129.17"
"1527","11117.78"
"1528","11093.11"
"1529","11066.75"
"1530","11057.73"
"1531","11079"
"1532","11120.52"
"1533","11166.85"
"1534","11206.23"
"1535","11237.68"
"1536","11262.12"
"1537","11278.85"
"1538","11283.43"
"1539","11271.02"
"1540","11242.01"
"1541","11205.84"
"1542","11172.66"
"1543","11144.96"
"1544","11115.11"
"1545","11075.35"
"1546","11031.59"
"1547","11003.63"
"1548","11010.22"
"1549","11045.21"
"1550","11083.13"
"1551","11099.97"
"1552","11091.72"
"1553","11065.99"
"1554","11031.82"
"1555","11007.32"
"1556","11014.5"
"1557","11066.41"
"1558","11131.42"
"1559","11164.1"
"1560","11134.42"
"1561","11066.5"
"1562","10996.29"
"1563","10948.02"
"1564","10916.8"
"1565","10893.38"
"1566","10872.75"
"1567","10857.36"
"1568","10850.39"
"1569","10852.75"
"1570","10862.51"
"1571","10877.28"
"1572","10889.62"
"1573","10887.47"
"1574","10860.9"
"1575","10826.47"
"1576","10817.76"
"1577","10860.67"
"1578","10922.59"
"1579","10944.81"
"1580","10885.71"
"1581","10786.63"
"1582","10713.87"
"1583","10711.44"
"1584","10752.76"
"1585","10797.33"
"1586","10819.62"
"1587","10825.57"
"1588","10825.06"
"1589","10825.4"
"1590","10830.27"
"1591","10842.88"
"1592","10862.68"
"1593","10885.48"
"1594","10906.51"
"1595","10915.8"
"1596","10900.06"
"1597","10849.87"
"1598","10783.33"
"1599","10730.21"
"1600","10713.14"
"1601","10723.85"
"1602","10745.79"
"1603","10765.82"
"1604","10780.01"
"1605","10786.03"
"1606","10785.53"
"1607","10787.05"
"1608","10799.48"
"1609","10823.56"
"1610","10851.11"
"1611","10873.91"
"1612","10889.88"
"1613","10901.22"
"1614","10910.62"
"1615","10923.7"
"1616","10947.35"
"1617","10983"
"1618","11008.86"
"1619","10997"
"1620","10940.82"
"1621","10887.66"
"1622","10892.47"
"1623","10960.57"
"1624","11020.94"
"1625","10999.92"
"1626","10907.32"
"1627","10832.29"
"1628","10856.79"
"1629","10955.89"
"1630","11042.47"
"1631","11046.15"
"1632","10993.77"
"1633","10945.6"
"1634","10943.7"
"1635","10973.48"
"1636","11009.42"
"1637","11032.56"
"1638","11035.72"
"1639","11013.52"
"1640","10976.24"
"1641","10950.84"
"1642","10961.87"
"1643","10997.82"
"1644","11024.42"
"1645","11015.37"
"1646","10992.5"
"1647","10994.88"
"1648","11042.36"
"1649","11094.84"
"1650","11101.02"
"1651","11050.86"
"1652","11005.55"
"1653","11030.32"
"1654","11119.04"
"1655","11194.96"
"1656","11187.76"
"1657","11120.22"
"1658","11067.36"
"1659","11083.41"
"1660","11118.1"
"1661","11089.46"
"1662","10962.98"
"1663","10824.73"
"1664","10777.96"
"1665","10846.67"
"1666","10945.28"
"1667","10985.06"
"1668","10950.95"
"1669","10884.28"
"1670","10825.01"
"1671","10793.56"
"1672","10802.33"
"1673","10849.29"
"1674","10884.17"
"1675","10847.25"
"1676","10729.78"
"1677","10610.78"
"1678","10573.76"
"1679","10616.76"
"1680","10658.85"
"1681","10627.43"
"1682","10542.85"
"1683","10470.79"
"1684","10458.39"
"1685","10479.8"
"1686","10491.74"
"1687","10473.71"
"1688","10448.88"
"1689","10444.16"
"1690","10459.74"
"1691","10469.27"
"1692","10449.36"
"1693","10411.53"
"1694","10385.17"
"1695","10388.69"
"1696","10396.69"
"1697","10373.33"
"1698","10311.82"
"1699","10260"
"1700","10269"
"1701","10330.98"
"1702","10382.22"
"1703","10366.46"
"1704","10304.14"
"1705","10251.87"
"1706","10248.61"
"1707","10270.73"
"1708","10281.25"
"1709","10263.48"
"1710","10234.14"
"1711","10212.14"
"1712","10201.21"
"1713","10192.82"
"1714","10179.41"
"1715","10161.92"
"1716","10144.55"
"1717","10130.53"
"1718","10120.44"
"1719","10114.48"
"1720","10114.54"
"1721","10124.71"
"1722","10148.19"
"1723","10176.77"
"1724","10195.25"
"1725","10192.58"
"1726","10176.36"
"1727","10159.35"
"1728","10150.4"
"1729","10150.84"
"1730","10160.65"
"1731","10170.09"
"1732","10160.7"
"1733","10119.33"
"1734","10070.38"
"1735","10053.6"
"1736","10089.55"
"1737","10145.75"
"1738","10181.25"
"1739","10177.82"
"1740","10145.08"
"1741","10095.98"
"1742","10059.18"
"1743","10072.12"
"1744","10151.41"
"1745","10235.34"
"1746","10244.83"
"1747","10161.16"
"1748","10060.9"
"1749","10023.08"
"1750","10047.16"
"1751","10076.6"
"1752","10066.19"
"1753","10030.42"
"1754","10001.37"
"1755","9996.057"
"1756","10002.64"
"1757","10006.86"
"1758","10008.97"
"1759","10021.28"
"1760","10050.5"
"1761","10069.82"
"1762","10040.85"
"1763","9959.662"
"1764","9897.566"
"1765","9931.067"
"1766","10039.13"
"1767","10110.65"
"1768","10054.92"
"1769","9930.11"
"1770","9851.153"
"1771","9879.039"
"1772","9948.231"
"1773","9978.228"
"1774","9957.743"
"1775","9942.199"
"1776","9977.036"
"1777","10026.45"
"1778","10022.91"
"1779","9940.468"
"1780","9850.721"
"1781","9835.607"
"1782","9899.057"
"1783","9971.245"
"1784","9991.125"
"1785","9969.321"
"1786","9943.29"
"1787","9940.281"
"1788","9964.922"
"1789","10017.46"
"1790","10072.78"
"1791","10083.67"
"1792","10018.79"
"1793","9936.957"
"1794","9926.804"
"1795","10014.38"
"1796","10104.81"
"1797","10096.89"
"1798","10001.25"
"1799","9913.279"
"1800","9904.366"
"1801","9928.551"
"1802","9907.851"
"1803","9822.429"
"1804","9745.508"
"1805","9750.768"
"1806","9823.588"
"1807","9894.828"
"1808","9913.156"
"1809","9892.21"
"1810","9859.517"
"1811","9834.158"
"1812","9824.633"
"1813","9835.536"
"1814","9846.116"
"1815","9823.717"
"1816","9757.266"
"1817","9690.572"
"1818","9674.31"
"1819","9722.816"
"1820","9816.778"
"1821","9930.748"
"1822","10013.85"
"1823","10007.31"
"1824","9903.994"
"1825","9787.933"
"1826","9745.391"
"1827","9778.792"
"1828","9836.587"
"1829","9875.794"
"1830","9886.161"
"1831","9864.511"
"1832","9811.042"
"1833","9729.906"
"1834","9630.943"
"1835","9560.619"
"1836","9580.313"
"1837","9693.584"
"1838","9781.952"
"1839","9723.131"
"1840","9563.633"
"1841","9475.026"
"1842","9574.655"
"1843","9758.041"
"1844","9869.637"
"1845","9853.572"
"1846","9779.825"
"1847","9718.849"
"1848","9686.332"
"1849","9674.33"
"1850","9673.658"
"1851","9672.75"
"1852","9660.787"
"1853","9641.899"
"1854","9631.001"
"1855","9638.198"
"1856","9655.234"
"1857","9669.77"
"1858","9671.797"
"1859","9654.02"
"1860","9614.494"
"1861","9583.15"
"1862","9601.628"
"1863","9674.321"
"1864","9738.288"
"1865","9731.096"
"1866","9671.238"
"1867","9625.502"
"1868","9634.32"
"1869","9661.722"
"1870","9660.879"
"1871","9634.962"
"1872","9631.985"
"1873","9684.935"
"1874","9753.305"
"1875","9777.319"
"1876","9737.743"
"1877","9668.406"
"1878","9604.206"
"1879","9562.452"
"1880","9553.116"
"1881","9574.077"
"1882","9600.574"
"1883","9608.723"
"1884","9610.129"
"1885","9637.393"
"1886","9703.817"
"1887","9770.521"
"1888","9792.363"
"1889","9764.131"
"1890","9713.072"
"1891","9665.319"
"1892","9639.009"
"1893","9649.568"
"1894","9688.297"
"1895","9720.284"
"1896","9716.61"
"1897","9686.333"
"1898","9650.618"
"1899","9627.046"
"1900","9628.103"
"1901","9661.678"
"1902","9706.419"
"1903","9728.799"
"1904","9718.367"
"1905","9706.499"
"1906","9723.27"
"1907","9745.796"
"1908","9722.837"
"1909","9639.624"
"1910","9564.715"
"1911","9571.6"
"1912","9652.688"
"1913","9746.72"
"1914","9799.598"
"1915","9780.233"
"1916","9666.274"
"1917","9510.849"
"1918","9426.868"
"1919","9483.304"
"1920","9595.902"
"1921","9652.152"
"1922","9619.688"
"1923","9539.94"
"1924","9455.99"
"1925","9406.102"
"1926","9425.716"
"1927","9506.305"
"1928","9593.375"
"1929","9641.817"
"1930","9658.927"
"1931","9665.848"
"1932","9658.462"
"1933","9603.383"
"1934","9484.264"
"1935","9377.794"
"1936","9386.625"
"1937","9501.482"
"1938","9572.803"
"1939","9481.348"
"1940","9320.33"
"1941","9251.39"
"1942","9320.873"
"1943","9422.437"
"1944","9460.018"
"1945","9456.271"
"1946","9474.298"
"1947","9526.009"
"1948","9553.451"
"1949","9508.217"
"1950","9426.577"
"1951","9374.122"
"1952","9371.669"
"1953","9378.544"
"1954","9359.892"
"1955","9340.076"
"1956","9363.327"
"1957","9423.805"
"1958","9448.246"
"1959","9379.864"
"1960","9279.78"
"1961","9247.566"
"1962","9301.714"
"1963","9356.087"
"1964","9338.438"
"1965","9285.252"
"1966","9266.729"
"1967","9305.271"
"1968","9365.568"
"1969","9410.845"
"1970","9414.212"
"1971","9353.026"
"1972","9243.756"
"1973","9145.978"
"1974","9106.691"
"1975","9110.019"
"1976","9123.936"
"1977","9125.82"
"1978","9102.297"
"1979","9053.447"
"1980","9026.924"
"1981","9076.384"
"1982","9167.657"
"1983","9191.211"
"1984","9086.354"
"1985","8950.534"
"1986","8903.887"
"1987","8956.987"
"1988","9040.515"
"1989","9104.924"
"1990","9155.863"
"1991","9204.859"
"1992","9234.188"
"1993","9208.605"
"1994","9124.056"
"1995","9041.129"
"1996","9019.966"
"1997","9050.571"
"1998","9088.915"
"1999","9102.076"
"2000","9075.813"
"2001","9005.057"
"2002","8930.691"
"2003","8909.881"
"2004","8950.861"
"2005","8999.183"
"2006","9007.391"
"2007","8979.501"
"2008","8934.002"
"2009","8883.889"
"2010","8836.765"
"2011","8802.364"
"2012","8798.108"
"2013","8840.899"
"2014","8916.908"
"2015","8989.708"
"2016","9027.699"
"2017","9012.321"
"2018","8931.204"
"2019","8811.632"
"2020","8702.189"
"2021","8654.288"
"2022","8723.579"
"2023","8926.825"
"2024","9043.266"
"2025","8774.206"
"2026","8194.023"
"2027","7824.041"
"2028","8040.362"
"2029","8528.683"
"2030","8823.521"
"2031","8832.838"
"2032","8774.122"
"2033","8791.916"
"2034","8815.349"
"2035","8752.875"
"2036","8648.688"
"2037","8621.68"
"2038","8710.452"
"2039","8815.563"
"2040","8841.279"
"2041","8792.519"
"2042","8709.92"
"2043","8626.12"
"2044","8564.812"
"2045","8541.132"
"2046","8541.735"
"2047","8547.535"
"2048","8546.438"
"2049","8531.304"
"2050","8501.012"
"2051","8466.91"
"2052","8441.938"
"2053","8438.721"
"2054","8469.115"
"2055","8519.521"
"2056","8543.599"
"2057","8507.816"
"2058","8439.2"
"2059","8378.999"
"2060","8351.899"
"2061","8369.673"
"2062","8436.924"
"2063","8542.738"
"2064","8672.414"
"2065","8799.339"
"2066","8891.594"
"2067","8924.465"
"2068","8882.725"
"2069","8768.97"
"2070","8653.599"
"2071","8615.791"
"2072","8617.749"
"2073","8534.906"
"2074","8335.201"
"2075","8185.6"
"2076","8239.423"
"2077","8388.418"
"2078","8423.13"
"2079","8312.152"
"2080","8229.25"
"2081","8291.744"
"2082","8390.811"
"2083","8384.188"
"2084","8282.482"
"2085","8190.84"
"2086","8164.09"
"2087","8169.077"
"2088","8170.542"
"2089","8166.253"
"2090","8163.91"
"2091","8162.297"
"2092","8152.291"
"2093","8128.685"
"2094","8096.456"
"2095","8063.84"
"2096","8051.8"
"2097","8085.708"
"2098","8146.359"
"2099","8160.958"
"2100","8084.713"
"2101","7977.021"
"2102","7913.979"
"2103","7917.707"
"2104","7977.712"
"2105","8055.417"
"2106","8069.363"
"2107","7969.623"
"2108","7861.213"
"2109","7880.379"
"2110","7998.742"
"2111","8065.149"
"2112","8005.423"
"2113","7900.056"
"2114","7831.966"
"2115","7799.524"
"2116","7773.814"
"2117","7752.982"
"2118","7759.318"
"2119","7791.763"
"2120","7793.877"
"2121","7718.663"
"2122","7631.446"
"2123","7638.013"
"2124","7735.857"
"2125","7812.094"
"2126","7792.861"
"2127","7718.916"
"2128","7647.06"
"2129","7616.242"
"2130","7655.759"
"2131","7743.444"
"2132","7800.206"
"2133","7772.759"
"2134","7688.739"
"2135","7588.689"
"2136","7503.582"
"2137","7459.292"
"2138","7460.705"
"2139","7488.591"
"2140","7520.136"
"2141","7526.33"
"2142","7483.592"
"2143","7420.536"
"2144","7388.893"
"2145","7391.964"
"2146","7377.742"
"2147","7327.918"
"2148","7326.576"
"2149","7452.135"
"2150","7606.229"
"2151","7615.931"
"2152","7464.731"
"2153","7305.158"
"2154","7245.461"
"2155","7257.075"
"2156","7290.39"
"2157","7301.492"
"2158","7251.697"
"2159","7168.509"
"2160","7143.873"
"2161","7223.653"
"2162","7342.238"
"2163","7426.609"
"2164","7451.833"
"2165","7411.978"
"2166","7332.765"
"2167","7266.43"
"2168","7237.004"
"2169","7212.493"
"2170","7164.575"
"2171","7112.806"
"2172","7089.06"
"2173","7100.849"
"2174","7138.456"
"2175","7178.375"
"2176","7176.254"
"2177","7106.855"
"2178","7022.249"
"2179","6984.293"
"2180","6978.002"
"2181","6947.449"
"2182","6880.444"
"2183","6818.346"
"2184","6790.409"
"2185","6783.768"
"2186","6779.759"
"2187","6768.931"
"2188","6746.792"
"2189","6732.313"
"2190","6765.42"
"2191","6850.611"
"2192","6921.276"
"2193","6916.278"
"2194","6838.438"
"2195","6712.368"
"2196","6603.295"
"2197","6600.516"
"2198","6693.822"
"2199","6736.186"
"2200","6634.399"
"2201","6488.329"
"2202","6420.259"
"2203","6451.332"
"2204","6556.145"
"2205","6654.282"
"2206","6615.537"
"2207","6419.358"
"2208","6261.457"
"2209","6300.106"
"2210","6421.601"
"2211","6453.893"
"2212","6388.25"
"2213","6311.535"
"2214","6263.592"
"2215","6225.205"
"2216","6195.706"
"2217","6231.084"
"2218","6367.262"
"2219","6473.16"
"2220","6375.814"
"2221","6159.367"
"2222","6096.448"
"2223","6258.937"
"2224","6409.722"
"2225","6368.104"
"2226","6213.484"
"2227","6066.866"
"2228","5980.331"
"2229","5975.013"
"2230","6042.145"
"2231","6146.945"
"2232","6240.818"
"2233","6253.143"
"2234","6145.616"
"2235","6003.929"
"2236","5929.724"
"2237","5929.302"
"2238","5963.231"
"2239","5978.889"
"2240","5912.293"
"2241","5769.24"
"2242","5683.58"
"2243","5746.374"
"2244","5836.691"
"2245","5807.431"
"2246","5703.356"
"2247","5656.368"
"2248","5682.453"
"2249","5688.939"
"2250","5618.734"
"2251","5486.229"
"2252","5324.266"
"2253","5204.841"
"2254","5195.396"
"2255","5260.543"
"2256","5320.633"
"2257","5346.979"
"2258","5355.125"
"2259","5333.925"
"2260","5226.269"
"2261","5021.869"
"2262","4872.954"
"2263","4925.541"
"2264","5072.897"
"2265","5118.587"
"2266","5032.748"
"2267","4910.492"
"2268","4801.908"
"2269","4690.265"
"2270","4568.399"
"2271","4466.873"
"2272","4414.982"
"2273","4403.654"
"2274","4410.417"
"2275","4401.636"
"2276","4338.388"
"2277","4224.911"
"2278","4112.805"
"2279","4025.422"
"2280","3924.723"
"2281","3790.769"
"2282","3699.847"
"2283","3728.69"
"2284","3786.184"
"2285","3715.639"
"2286","3529.552"
"2287","3376.708"
"2288","3326.238"
"2289","3326.92"
"2290","3324.353"
"2291","3280.403"
"2292","3171.902"
"2293","3036.801"
"2294","2930.595"
"2295","2896.412"
"2296","2965.682"
"2297","3063.11"
"2298","3011.271"
"2299","2760.809"
"2300","2485.938"
