800,113.43194679142289
801,107.72685345126592
802,99.3959088866286
803,94.12536394956987
804,93.5834691224336
805,96.57847451137786
806,101.8646298399508
807,107.74818444274206
808,110.79338725905109
809,107.13448682663693
810,93.04873127551036
811,70.67636832177777
812,50.07564526153146
813,41.8608089648169
814,55.00310586960768
815,85.04778197588166
816,120.93908283970813
817,151.58825356740454
818,168.8045388097471
819,171.78218275622748
820,160.87642912934461
821,136.69452117898436
822,104.5767016768059
823,74.14321291070519
824,55.1462966793315
825,54.819194286623315
826,68.00814653643283
827,85.77539372717001
828,99.26917564650648
829,105.03373156613088
830,108.1203002365528
831,114.32111988194083
832,128.4434281950289
833,146.019462332064
834,157.45145890779168
835,153.11565399049323
836,129.46528309710084
837,99.70858118829346
838,79.90678266371287
839,85.23012135717181
840,113.23683053194873
841,145.23714287609073
842,161.93829049779742
843,148.94050492083989
844,115.40601707999667
845,77.57505731659694
846,51.565855374044986
847,47.09364039342108
848,64.34264090915349
849,102.7310848446632
850,160.1421995081364
851,221.7102115882717
852,266.2203471501307
853,272.45983163097844
854,233.46788983621627
855,175.98674593531905
856,131.6476234578513
857,129.7987452894904
858,165.7083336681335
859,208.30161018000945
860,225.8297957558534
861,197.21511066713356
862,141.5007745222938
863,87.1450062630629
864,61.917024160795336
865,73.08604581285545
866,104.33628813903852
867,138.05796737805758
868,159.4122990840242
869,169.80849812302586
870,176.5467786697045
871,186.86535420390646
872,203.58643750733245
873,222.14024066027196
874,237.25897503835404
875,244.46085130934262
876,246.37907942998208
877,249.40686864285271
878,259.9614274733158
879,280.68596372644424
880,305.22868448403824
881,325.9267961016467
882,335.60950420565496
883,334.0390136903825
884,326.0965287152467
885,316.7822527019507
886,310.0763883317104
887,306.5421375425394
888,306.0207015265132
889,308.3502807271634
890,313.31807483683406
891,320.65728279408904
892,330.10510278120273
893,340.89473222162087
894,349.97436777751864
895,353.6292053473444
896,348.22544006345015
897,333.47126628970545
898,313.4078776192073
899,292.3564668719664
900,274.58422609267654
901,264.00434654849414
902,264.3860187268547
903,279.4264323333464
904,307.21977628959394
905,336.6132387311827
906,355.57600700562944
907,353.8682676703902
908,335.93620649087825
909,313.4390084385341
910,298.0428576889426
911,295.11593761995755
912,297.00043080988326
913,294.41951903566223
914,279.34638327113316
915,257.0222036853047
916,240.71515964063838
917,243.7824296914223
918,271.08619158211513
919,305.9966222457715
920,328.54389780246856
921,320.4761935577899
922,287.0126840013163
923,250.34354280517073
924,233.03094282259008
925,248.84405608652196
926,284.96305380825834
927,323.57110637609367
928,347.54138335403877
929,351.84905348053144
930,341.6212846671988
931,322.2952439976616
932,299.39409772633553
933,278.6900112773001
934,266.02014924316427
935,266.7966753840028
936,277.5157526262792
937,286.1875430618293
938,280.4792079468625
939,252.45290770099746
940,211.8258019063269
941,172.7450493065062
942,148.9728078058797
943,144.17723446863602
944,151.4164855179788
945,163.24771633534692
946,172.80808145965057
947,175.86873458653463
948,168.92582856768422
949,148.6365154101386
950,116.22194627565295
951,78.10527148007532
952,40.99264049275007
953,10.954201935961464
954,-9.048896415593845
955,-16.974507635333794
956,-10.86848564525826
957,8.474314783585214
958,36.94303803069852
959,70.23082762570266
960,103.36482624798737
961,127.95517572635617
962,134.55501703870686
963,114.08749031173465
964,71.19873482068033
965,27.592888989067433
966,6.056090388497978
967,23.184475738466062
968,63.39918090618812
969,100.69434090646246
970,109.64108990156456
971,86.37656120114843
972,54.20988726219184
973,38.18919968895534
974,56.32762923296832
975,89.90630579303433
976,108.28135841528092
977,81.56291529320151
978,7.782103767760418
979,-80.15294967251975
980,-147.1251193914104
981,-165.4662806048309
982,-145.59430938066907
983,-110.04008263856849
984,-80.99847814971145
985,-68.91437453656908
986,-69.94765127262508
987,-79.39818868208567
988,-92.63286793955012
989,-105.32957106968752
990,-113.27018094685627
991,-112.3455812947268
992,-102.161656685872
993,-86.60129254134154
994,-69.79837513020902
995,-55.59179156908431
996,-46.50642982163481
997,-44.683178698061965
998,-52.13092785455956
999,-67.01256779276628
1000,-83.34298985916212
1001,-94.92608624449167
1002,-96.66174998312454
1003,-88.09787495241653
1004,-69.99335587203677
1005,-43.117088303306446
1006,-11.24096864846797
1007,14.317105850030202
1008,21.061237110276124
1009,-1.7734737883329217
1010,-47.06792660431347
1011,-97.13902193328249
1012,-134.21166120713315
1013,-147.64774669320468
1014,-140.84318149339197
1015,-118.83686954329096
1016,-87.19371561127628
1017,-55.36862529759128
1018,-34.60250503340467
1019,-35.91526207985771
1020,-57.49080452707494
1021,-78.32504129317931
1022,-75.82388212327533
1023,-33.93323758842416
1024,28.420980915427208
1025,80.60286116849056
1026,92.95249012823297
1027,62.3899539304748
1028,15.15533789051915
1029,-20.981273495715868
1030,-25.95979655053452
1031,-8.260148413308343
1032,17.087752960736907
1033,35.55398880171015
1034,41.068639526294646
1035,34.161784738978895
1036,15.53350323329505
1037,-9.836127006856259
1038,-26.407028805972004
1039,-17.069125795596847
1040,32.03765758695772
1041,104.97339609998744
1042,169.96816369874068
1043,195.3520335367666
1044,170.89507796733596
1045,121.1173685448066
1046,73.72897602606463
1047,51.56997037194924
1048,50.85042074869489
1049,58.71039552939692
1050,62.63996229549048
1051,58.47918783823479
1052,50.91813816023023
1053,45.03687847692527
1054,44.935473218169136
1055,51.48398602974339
1056,64.90247977493527
1057,85.17101653612372
1058,109.48965761634827
1059,133.178463540944
1060,151.57749405913273
1061,163.096808145674
1062,171.96646400251302
1063,183.0865190604345
1064,200.10702998072702
1065,219.07805265689603
1066,233.1096422163373
1067,235.4918530220566
1068,224.76473867441746
1069,205.31835201284412
1070,181.80274511759308
1071,158.79796931152669
1072,140.414075161867
1073,130.73111248198802
1074,133.26913033323217
1075,145.6481770267128
1076,161.7383001251419
1077,175.37954644465572
1078,183.22196205668115
1079,186.805592289782
1080,188.18048173153875
1081,188.4966742304332
1082,184.23421289772705
1083,170.28314010939357
1084,141.98349750801572
1085,103.28532600471772
1086,66.24866578110232
1087,43.25355629121623
1088,40.640036263484944
1089,49.30814370271037
1090,57.6679158920324
1091,55.68938939493273
1092,45.702600057229574
1093,35.95758300909438
1094,34.54437266707828
1095,41.56300273614215
1096,46.90350621168909
1097,39.80591538164117
1098,13.510261828469083
1099,-24.553423568700964
1100,-63.82511063203128
1101,-94.37476988287926
1102,-113.28237253967745
1103,-122.03789051585045
1104,-122.20129641767926
1105,-116.0625635421784
1106,-107.12166587496176
1107,-98.9685780880991
1108,-94.54327553795156
1109,-94.04573426302159
1110,-96.83593098177334
1111,-102.09384309046254
1112,-105.70944866093487
1113,-101.16272643843877
1114,-81.92365583942592
1115,-49.662216949331196
1116,-21.258390520348257
1117,-15.23215796922159
1118,-44.61350137498266
1119,-94.1924034767253
1120,-139.8188476713549
1121,-158.6228180113194
1122,-148.85429920235038
1123,-125.94327660119052
1124,-105.76973621331126
1125,-98.04366469062188
1126,-100.13504932917931
1127,-107.93387806688952
1128,-117.99013948119318
1129,-130.2338227867458
1130,-145.73491783311692
1131,-165.3534151024378
1132,-186.98930570708035
1133,-206.03258138730416
1134,-217.88323450893768
1135,-221.0212580609823
1136,-220.0466456532813
1137,-220.2793915141574
1138,-225.1794904880171
1139,-229.02693803299553
1140,-223.1917302185575
1141,-199.95386372312532
1142,-164.6533358316592
1143,-132.62014443328917
1144,-119.33428801887749
1145,-129.91576567863194
1146,-151.3645770996809
1147,-168.84072256363834
1148,-171.12420294420372
1149,-162.72501970471603
1150,-152.41317489570793
1151,-148.1786711524819
1152,-149.04151169266515
1153,-148.14170031373578
1154,-138.6592413905928
1155,-121.07413987308064
1156,-106.48640128353873
1157,-106.83603171431605
1158,-128.66303782531395
1159,-160.02742684149598
1160,-185.07920655042108
1161,-189.508385299745
1162,-172.4849719947415
1163,-140.00897609579624
1164,-98.22040761592689
1165,-54.78927711827055
1166,-19.1555957135879
1167,-0.8193750577465835
1168,-6.2406273492197215
1169,-34.35936532655796
1170,-82.97560226589485
1171,-147.74935197839477
1172,-212.0006288077584
1173,-254.54944762767445
1174,-255.68582383930334
1175,-218.9497733687349
1176,-166.33131266445525
1177,-120.200458694806
1178,-93.04722894545012
1179,-80.87164141681387
1180,-78.10371462156036
1181,-80.52346758202111
1182,-89.03091982765
1183,-105.66609139247339
1184,-131.6290028125295
1185,-160.55967512331335
1186,-182.22812985721976
1187,-186.66438904095958
1188,-171.31847519302755
1189,-141.4904113211087
1190,-102.89022091951847
1191,-62.007927966644274
1192,-27.113556922353382
1193,-6.71713272542911
1194,-5.928680791004808
1195,-13.90822700796707
1196,-15.065797736391687
1197,4.268580195030154
1198,36.354879491600514
1199,60.16307239515663
1200,55.03313068669013
1201,19.32502568891141
1202,-25.201271731160887
1203,-55.39579115961351
1204,-58.32856263305075
1205,-46.159616635997736
1206,-34.82898409833251
1207,-36.74669639268177
1208,-45.82278533182762
1209,-50.02728316613138
1210,-38.80022258092322
1211,-18.771636693927576
1212,-7.731559052666853
1213,-23.120023631860022
1214,-63.89706483084592
1215,-106.25271747097577
1216,-124.98701679302394
1217,-107.98999845459912
1218,-74.20169852755316
1219,-47.04215349537844
1220,-44.7214002506189
1221,-60.13947609229035
1222,-78.6464187232632
1223,-86.55226624769784
1224,-80.20705716842349
1225,-61.79083038437784
1226,-33.723625187987636
1227,-2.695481262597241
1228,19.973561320128283
1229,22.833462102795238
1230,3.8641802448546514
1231,-20.204325474787765
1232,-30.462096655193818
1233,-13.389175270820488
1234,24.09439633108741
1235,70.21857543306578
1236,113.92331895003008
1237,149.3785834318296
1238,173.1443250658631
1239,182.1304996796298
1240,178.62706274332777
1241,169.35396937241603
1242,161.1011743302024
1243,158.37863203040797
1244,162.44629653975244
1245,174.2741215805072
1246,193.46206053308742
1247,216.00006643860252
1248,237.298092001427
1249,253.70608959177298
1250,265.9840112482416
1251,276.19180868040166
1252,286.1294332713278
1253,295.2468360801686
1254,301.6939678447088
1255,303.85077898390773
1256,304.5272196004644
1257,310.5532394833572
1258,328.82878811040246
1259,359.12381465078215
1260,390.3582679676074
1261,410.52209662043606
1262,412.06524886783336
1263,399.2876726698905
1264,378.43931569077176
1265,355.66012530123044
1266,336.82004858115033
1267,327.70903232206365
1268,332.77702302967555
1269,345.44396692638657
1270,353.5998099538101
1271,345.99449777528025
1272,326.2179757783797
1273,310.10018907743324
1274,313.4510825160196
1275,338.36060066947357
1276,368.65868784740087
1277,386.9552880961455
1278,383.03034520131405
1279,361.973802690256
1280,330.87560383454
1281,296.5456916524654
1282,264.7940089115091
1283,241.1904981308453
1284,230.40510158378493
1285,231.56776130026446
1286,241.77841906931644
1287,258.3370164415319
1288,280.88349473151175
1289,310.3777950203439
1290,347.54985815803775
1291,387.18962476600063
1292,418.63703523945514
1293,431.28202974991655
1294,425.93454824759283
1295,419.48453046386567
1296,429.98191591369505
1297,464.9366438980451
1298,509.06865350634143
1299,544.0978836188424
1300,556.0442729091101
1301,545.537759846391
1302,516.2982826980278
1303,474.1957795318849
1304,436.6101882187231
1305,424.7914464346195
1306,455.869491663354
1307,511.6442611987968
1308,555.8856921472925
1309,554.6737214300465
1310,510.29828578550223
1311,452.4293217717095
1312,410.7567657686959
1313,396.6405539808311
1314,401.37062243919354
1315,415.1969070039013
1316,428.7293433665054
1317,433.07786705229773
1318,419.452413422674
1319,387.41291767747134
1320,355.8293148572866
1321,346.2715398458313
1322,370.2695273722293
1323,405.38321201335566
1324,421.9625281961453
1325,398.0174101999037
1326,349.8677921586168
1327,305.8036080632446
1328,290.02479176402267
1329,296.5412769727627
1330,305.78299726512705
1331,299.5598860829141
1332,275.99187673634697
1333,243.45890240632434
1334,210.49089614672084
1335,185.6177908866175
1336,177.37951943258668
1337,193.70601447092304
1338,223.33720856991022
1339,232.58303418205833
1340,186.95342364634234
1341,85.04830919043707
1342,-22.152377067057387
1343,-79.13870311438768
1344,-56.67073704442737
1345,18.381452947533035
1346,111.86779856599242
1347,194.9482314174511
1348,254.12268301261065
1349,278.6410847685511
1350,264.603368010934
1351,235.01946397618485
1352,219.59930381366212
1353,240.94281858784052
1354,283.61993928047013
1355,319.50059679274455
1356,323.9647219474482
1357,297.88224549113147
1358,253.42309809622748
1359,202.65721036320974
1360,156.44451282273076
1361,124.93493593773928
1362,117.15841010562508
1363,126.75486566031577
1364,136.07423287441088
1365,128.31644196128036
1366,108.36142307718
1367,101.05910632333143
1368,131.01942174802753
1369,192.7122993487228
1370,246.01766907410456
1371,249.64546082618835
1372,198.82560446236312
1373,140.71802979747918
1374,126.10266660590241
1375,170.6394446235645
1376,228.36829355001282
1377,247.1991430504695
1378,204.57192275783564
1379,141.70656227477411
1380,108.0929911756939
1381,131.26113900878954
1382,180.42093529805425
1383,215.25230954530343
1384,209.14519123215723
1385,180.04950982206174
1386,154.94519476226742
1387,154.04217548582892
1388,171.0003814135889
1389,192.89974195614013
1390,209.28018651581806
1391,221.4016444886547
1392,234.01404526634178
1393,250.9273182381894
1394,270.5113927930761
1395,289.2161983213846
1396,303.32166421695183
1397,307.8877198789942
1398,297.424294714041
1399,267.9313181378493
1400,226.9487195773272
1401,187.62642847244024
1402,162.75437427811994
1403,161.15248646615692
1404,189.47069452710093
1405,251.87892797215318
1406,325.23711633503444
1407,369.185189173877
1408,346.9130760730877
1409,272.4107066452252
1410,195.5580105328354
1411,164.30491741034166
1412,184.5413569858665
1413,229.12725900308214
1414,270.7925532430563
1415,297.0671695260771
1416,308.2910377134849
1417,305.38408770948627
1418,292.27624946298056
1419,275.7874529693654
1420,262.81762827233797
1421,260.0367054656963
1422,273.86461469514325
1423,310.29128616005437
1424,364.0866501152814
1425,417.51063687291935
1426,452.7231768040692
1427,468.99420034063405
1428,485.87363797704893
1429,523.7114202720477
1430,590.1074778504117
1431,676.6317414047226
1432,773.7241416970919
1433,868.2746095608982
1434,942.4730759025115
1435,978.609471703021
1436,977.913728019952
1437,967.6057759889809
1438,976.4155468256231
1439,1014.2329718269666
1440,1064.147982373339
1441,1107.290509930015
1442,1129.7904860488889
1443,1124.997842370174
1444,1087.1425106240513
1445,1025.854422632363
1446,973.5235103102605
1447,963.8597056678736
1448,999.5229408119503
1449,1036.763147947533
1450,1028.6402593795628
1451,962.594207514554
1452,877.4749248622047
1453,815.9123440370258
1454,796.2163977599757
1455,800.5170188600714
1456,808.1941402760021
1457,807.3776950577267
1458,798.9776163680854
1459,784.8938374844038
1460,766.3262918000673
1461,743.4249128261254
1462,716.1596341928598
1463,680.6303896513691
1464,627.5471130751412
1465,547.6497384616232
1466,450.51819993377285
1467,370.68243174162126
1468,343.4423682638371
1469,367.90794400925733
1470,397.39909361844
1471,383.3557518651942
1472,314.70785365813026
1473,225.25533404216003
1474,150.85112820005634
1475,110.07517145394377
1476,102.05739926682327
1477,124.26274724408358
1478,158.2101511350047
1479,168.74954683426222
1480,122.0668703834126
1481,31.2700579723969
1482,-45.175954058982825
1483,-50.0612292195583
1484,14.650169134643875
1485,94.54717780190913
1486,135.91873373629096
1487,126.22877404907558
1488,86.1242360102533
1489,36.8720570499554
1490,-4.989825240079881
1491,-26.351473105065452
1492,-16.305948625718884
1493,10.977686283176809
1494,25.070369874203607
1495,-0.6179594312579866
1496,-51.357363041601275
1497,-88.67990219356761
1498,-79.2946379508412
1499,-36.30963120262459
1500,3.8260573377829132
1501,10.038367134357031
1502,-8.80876217019977
1503,-26.454390753109692
1504,-21.82557861008354
1505,-5.7003855539642245
1506,-0.7358712133100198
1507,-22.418095031032863
1508,-49.77011626300009
1509,-50.312993976682264
1510,-3.9857870497562544
1511,56.857445831252335
1512,86.0396461723285
1513,55.10775567334531
1514,-2.654283770605616
1515,-40.510530067815125
1516,-29.364040928654504
1517,9.37312613580798
1518,45.33591381513361
1519,59.2272650008581
1520,57.69612278784007
1521,51.082430475575165
1522,44.44513156954963
1523,32.736169782543584
1524,9.878489035987513
1525,-24.032966538745313
1526,-59.24625259899949
1527,-85.40442458953657
1528,-101.40953774121044
1529,-117.87064706965793
1530,-145.7478073739985
1531,-185.73007323552883
1532,-227.99849901640846
1533,-262.5291388583846
1534,-283.9880466814757
1535,-290.89527618267493
1536,-282.3498808346776
1537,-262.8459138845883
1538,-240.4074283526188
1539,-221.98547703082113
1540,-204.71511248180468
1541,-180.70938703744287
1542,-144.46635279762086
1543,-105.9250616289446
1544,-81.11156516346819
1545,-80.97391479743601
1546,-92.25216169000305
1547,-94.47735676198135
1548,-75.19355069456105
1549,-50.22579392807165
1550,-41.620136660700155
1551,-60.762628847240194
1552,-91.18632019784854
1553,-111.99026017677716
1554,-112.28849800112766
1555,-100.6750826395928
1556,-87.91906281122829
1557,-80.93348698417867
1558,-81.01140337445213
1559,-88.7958599446647
1560,-99.2769044028064
1561,-101.30458420099421
1562,-84.34394653423806
1563,-52.8580383391909
1564,-23.380906292919462
1565,-11.45459681167813
1566,-18.583156049655372
1567,-37.98762989773968
1568,-63.23606398231277
1569,-91.10450366398436
1570,-119.73799403638623
1571,-146.2175799249253
1572,-162.63430588556184
1573,-159.5812162035818
1574,-133.40135489237036
1575,-99.20476569217499
1576,-75.90449206889389
1577,-73.37957721282328
1578,-81.16506403747007
1579,-86.12899517828919
1580,-83.65041299148652
1581,-82.44635955276863
1582,-91.96587665614607
1583,-108.87600581268998
1584,-115.77478824930222
1585,-96.21126490750976
1586,-58.99947644223539
1587,-32.40146322055989
1588,-40.74526532051277
1589,-68.25392252984057
1590,-77.93347434478164
1591,-42.321959968845476
1592,10.610581688426464
1593,33.29411201266703
1594,-4.550407314078257
1595,-69.76001431211625
1596,-114.6887467028937
1597,-111.07764190776106
1598,-76.60273704674364
1599,-35.51006893730482
1600,-4.9076740931323
1601,9.25741127711808
1602,2.50915127103508
1603,-16.743489706299442
1604,-26.71554694108454
1605,-7.253055409557419
1606,32.947950223242515
1607,65.34943560471584
1608,66.17636669593958
1609,49.47970977291334
1610,46.11143142780202
1611,76.80949857018459
1612,117.1238784282923
1613,130.13453855027547
1614,98.76644680543359
1615,59.527571385489864
1616,57.49388080582685
1617,105.04634390675346
1618,159.42892985477192
1619,174.04560814381693
1620,141.5023485965412
1621,96.35512136557736
1622,72.66489693480071
1623,72.24364612059799
1624,75.11134007315377
1625,65.1069502777118
1626,54.98144855586543
1627,69.52080706684137
1628,124.21799830877535
1629,197.9329951199943
1630,260.5857706803363
1631,291.456298512403
1632,291.34455248290396
1633,264.2485068039059
1634,223.20713603418153
1635,193.7364150804915
1636,200.53831919890035
1637,237.94482399609478
1638,274.70890543069436
1639,282.63453981458224
1640,266.51970381422143
1641,247.79437445199437
1642,245.86952910752916
1643,270.03114551902945
1644,326.64820178464106
1645,411.0146763637622
1646,489.9465480784238
1647,526.2237961146366
1648,510.23540002373375
1649,473.31933972375555
1650,448.98659550080265
1651,449.48114801041993
1652,468.5439782789599
1653,499.4420677049802
1654,536.7173980606185
1655,575.5479514929993
1656,610.7587105256061
1657,635.6426580597144
1658,643.0627773757733
1659,624.8200521348354
1660,570.2474663799749
1661,469.03900453769893
1662,339.914651419389
1663,239.9073922227326
1664,224.29221253316246
1665,284.59509832530966
1666,364.7250359644531
1667,413.2300122079723
1668,417.9760142068262
1669,382.9310295070136
1670,317.96904605106283
1671,252.8070521794907
1672,221.15103663232912
1673,231.06298855059686
1674,244.68389747781112
1675,221.22275336149505
1676,161.95754655470773
1677,109.35026781755005
1678,101.82590831870948
1679,125.28545963699798
1680,137.76491376289232
1681,109.11826310009201
1682,61.671500467082296
1683,31.88361909869127
1684,35.15961264767611
1685,41.173475186315045
1686,14.685201207972568
1687,-46.22421437128651
1688,-105.44377621107014
1689,-127.80848854508258
1690,-110.9293551794799
1691,-72.1993794912305
1692,-29.04956442648654
1693,2.3400875010647724
1694,6.1845742118566704
1695,-22.720105937884
1696,-64.89795415446133
1697,-97.8279712050462
1698,-114.89815741594794
1699,-128.35151267095716
1700,-149.20903640959477
1701,-163.423727625428
1702,-141.67058486430506
1703,-67.6896062226424
1704,11.761210654320166
1705,31.443868574298904
1706,-34.58962920027989
1707,-125.23927895050656
1708,-169.47707649918993
1709,-147.0070172090691
1710,-93.21309598100197
1711,-44.107307252141254
1712,-14.38064499412576
1713,-7.104102711229643
1714,-22.413673438497426
1715,-49.05034973992224
1716,-72.93112370654126
1717,-89.3199869545715
1718,-110.86493062351292
1719,-150.75994537424413
1720,-195.26102138711576
1721,-206.2101483600145
1722,-153.57731550643075
1723,-71.632511553511
1724,-22.503724740097823
1725,-43.61294281475057
1726,-96.4231530337729
1727,-128.52134215921433
1728,-117.74449645685127
1729,-84.36160169418508
1730,-50.70664313839552
1731,-25.199605554311347
1732,-6.987473202329056
1733,5.252770163628156
1734,14.327141298213974
1735,23.470657466739794
1736,33.47833644729326
1737,40.14919653285506
1738,39.02925653342572
1739,33.579535778184436
1740,34.76405411764608
1741,51.3158319258273
1742,74.02389010244951
1743,85.9402500751221
1744,77.16793380156741
1745,58.25196377186148
1746,43.134363010649395
1747,35.63715507942106
1748,26.80236407878874
1749,8.474014650757454
1750,-11.32186801897842
1751,-15.324258198692405
1752,5.722870391671677
1753,30.192544582869232
1754,29.448791758692096
1755,-2.3683601416378224
1756,-35.00588262108977
1757,-37.976746622411156
1758,-20.427922525719623
1759,-19.34438014605803
1760,-60.28908873093678
1761,-112.4950169578824
1762,-128.95713293194422
1763,-92.17140418318922
1764,-39.941797664205296
1765,-14.427279747544162
1766,-28.577816223203627
1767,-71.73137229603162
1768,-130.80391258316922
1769,-183.46740111143845
1770,-204.368801314733
1771,-184.41207603139082
1772,-148.3161875015303
1773,-123.88609736440412
1774,-117.23476665569251
1775,-115.5231558048381
1776,-106.91822463227436
1777,-89.1519323467437
1778,-63.3722375425059
1779,-32.15509819658473
1780,-1.124471665976671
1781,23.76468531518185
1782,38.10041663839729
1783,38.843766823705664
1784,24.908781022508265
1785,6.062505020472599
1786,-4.0850147595738235
1787,2.4782687452716345
1788,21.97340324094148
1789,48.57343707933978
1790,67.04341926133384
1791,54.163399439739806
1792,-3.4225720776466915
1793,-65.43744432502717
1794,-74.24316567552887
1795,-13.20268383813891
1796,55.66005414539177
1797,66.17010190367728
1798,23.80851373882615
1799,-11.423655370399501
1800,4.643650234596862
