Frequent,Density
-31.722347,11172
-29.886687,13032
-28.051868,15175
-26.217889,17289
-24.384749,20510
-22.552448,23435
-20.720985,27158
-18.890361,30872
-17.060575,34155
-15.231626,39348
-13.403514,42250
-11.576239,47089
-9.749799,47295
-7.924195,45214
-6.099426,36756
-4.275492,36361
-2.452392,40885
-0.630127,36418
1.191306,33279
3.011906,32130
4.831672,37707
6.650607,40511
8.46871,29473
10.285982,24163
12.102423,21321
13.918034,19250
15.732815,17849
17.546766,18237
19.359888,17444
21.172181,15291
22.983647,12365
24.794284,10765
26.604094,10271
28.413077,9766
30.221233,8552
32.028563,6949
33.835068,5281
35.640747,4796
37.445602,4505
39.249632,4670
41.052838,4289
42.855221,4139
44.656781,3843
46.457517,3829
48.257432,3506
50.056525,3181
51.854796,3116
53.652246,3114
55.448876,3303
57.244685,3205
59.039675,3475
60.833846,3599
62.627197,3685
64.41973,3690
66.211446,4089
68.002343,4196
69.792423,4434
71.581687,4959
73.370134,4652
75.157765,5147
76.944581,5721
78.730581,6344
80.515767,7392
82.300139,7751
84.083697,9198
85.866441,10317
87.648372,11066
89.429491,12871
91.209797,14344
92.989292,16777
94.767976,19135
96.545848,22572
98.32291,26456
100.099162,32385
101.874604,27570
103.649237,31689
105.423061,31707
107.196077,36710
108.968284,35363
110.739684,34519
112.510277,32763
114.280063,32606
116.049042,31997
117.817216,35942
119.584584,43076
121.351147,38414
123.116905,36557
124.881859,37727
126.646009,28701
128.409356,41616
130.171899,40593
131.93364,38035
133.694578,27332
135.454715,34507
137.21405,33134
138.972584,29201
140.730317,43610
142.48725,36096
144.243384,25424
145.998718,34833
147.753252,28975
149.506989,34957
151.259927,36428
153.012067,42804
154.76341,33179
156.513956,40040
158.263705,35915
160.012659,36538
161.760816,30126
163.508178,36282
165.254745,33446
167.000518,36948
168.745496,38247
170.489681,35375
172.233072,35901
173.975671,42715
175.717476,28232
177.45849,37032
179.198712,29544
180.938142,35799
182.676782,29820
184.414631,36966
186.15169,33898
187.887959,28692
189.623439,39812
191.35813,30718
193.092032,34855
194.825147,33713
196.557473,33098
198.289012,34896
200.019764,33123
201.74973,31620
203.478909,35505
205.207303,35571
206.934911,37440
208.661735,38328
210.387773,31884
212.113028,31173
213.837499,30638
215.561186,34252
217.28409,34630
219.006212,32370
220.727552,32765
222.44811,37543
224.167886,37108
225.886881,33093
227.605096,34467
229.32253,31665
231.039185,31678
232.75506,30180
234.470156,23941
236.184473,32610
237.898012,28647
239.610773,28987
241.322757,36956
243.033964,36181
244.744393,28437
246.454047,34040
248.162924,31334
249.871026,31204
251.578353,34255
253.284905,30805
254.990683,40214
256.695686,31777
258.399916,35236
260.103373,36072
261.806057,35755
263.507968,38769
265.209107,32645
266.909475,31780
268.609071,32906
270.307897,28294
272.005952,33693
273.703236,34737
275.399751,33478
277.095497,31935
278.790473,38079
280.484681,30635
282.178121,33623
283.870793,38377
285.562697,30110
287.253835,39988
288.944205,38246
290.633809,30270
292.322648,31815
294.010721,35939
295.698028,38104
297.384571,39771
299.070349,37511
300.755364,39040
302.439614,34452
304.123102,34510
305.805826,36694
307.487788,34826
309.168988,34696
310.849426,39590
312.529103,32673
314.208018,32535
315.886173,21811
317.563568,35812
319.240203,36873
320.916079,39735
322.591195,35964
324.265552,38082
325.939151,34526
327.611993,34849
329.284076,35114
330.955402,36212
332.625972,41779
334.295785,36893
335.964841,34197
337.633142,31469
339.300688,37970
340.967479,29752
342.633515,37719
344.298796,35475
345.963324,36031
347.627098,34977
349.29012,39966
350.952388,35130
352.613904,36804
354.274668,33756
355.93468,33379
357.593941,37937
359.252451,38133
360.910211,30754
362.56722,36296
364.22348,33004
365.87899,30113
367.533751,40571
369.187763,34783
370.841027,33282
372.493543,36160
374.145311,42135
375.796332,37258
377.446607,22384
379.096134,42019
380.744916,33996
382.392952,31234
384.040242,37187
385.686787,46476
387.332588,36584
388.977645,39632
390.621957,35919
392.265526,41480
393.908351,31052
395.550434,39876
397.191775,37416
398.832373,28272
400.472229,39200
402.111344,43038
403.749718,42814
405.387351,39106
407.024244,29710
408.660397,37602
410.295811,39953
411.930485,40993
413.56442,39797
415.197617,47485
416.830076,25683
418.461796,40615
420.09278,39993
421.723026,36493
423.352536,29455
424.981309,31550
426.609346,37430
428.236648,35709
429.863214,41245
431.489046,43722
433.114143,29597
434.738505,39817
436.362134,32593
437.98503,31275
439.607192,35635
441.228621,32671
442.849318,38417
444.469283,30765
446.088516,37118
447.707018,32410
449.324789,27934
450.941829,35229
452.558139,31727
454.173719,38255
455.78857,6221
457.402691,36311
459.016083,38001
460.628747,37810
462.240682,39302
463.85189,38895
465.46237,36006
467.072124,39209
468.68115,31373
470.28945,39549
471.897024,33486
473.503872,33683
475.109995,39759
476.715393,34931
478.320066,40215
479.924015,34307
481.52724,36224
483.129741,35246
484.731519,32714
486.332575,38410
487.932907,26824
489.532517,37172
491.131406,30621
492.729573,30537
494.327019,36563
495.923744,36698
497.519748,28348
499.115033,35187
500.709597,39081
502.303442,37914
503.896568,36275
505.488976,34782
507.080665,38190
508.671635,37347
510.261889,28799
511.851424,36272
513.440243,32485
515.028345,37957
516.615731,38838
518.202401,36696
519.788355,34816
521.373593,41667
522.958117,35563
524.541926,28903
526.125021,36026
527.707402,29748
529.28907,36626
530.870024,24890
532.450265,30128
534.029794,35037
535.60861,34306
537.186715,41671
538.764108,32025
540.340789,29430
541.91676,38597
543.492021,39229
545.066571,33060
546.640411,34851
548.213542,31643
549.785964,30683
551.357676,39731
552.928681,34892
554.498977,44308
556.068565,31896
557.637446,40770
559.20562,43558
560.773087,39760
562.339847,35702
563.905901,33116
565.47125,31621
567.035893,30793
568.599831,31874
570.163064,36877
571.725593,35938
573.287417,37277
574.848538,41253
576.408955,35239
577.968669,33149
579.52768,35919
581.085989,31099
582.643596,39163
584.200501,36770
585.756704,31917
587.312207,41778
588.867008,38574
590.42111,38586
591.974511,34007
593.527212,34951
595.079214,30261
596.630516,38529
598.18112,39395
599.731025,24096
601.280232,35786
602.828742,38627
604.376554,36377
605.923668,38414
607.470086,32450
609.015808,41161
610.560833,36028
612.105162,38437
613.648796,35327
615.191735,34405
616.733979,32739
618.275528,41849
619.816383,32107
621.356544,30928
622.896012,36789
624.434787,38298
625.972868,32748
627.510257,33300
629.046954,38430
630.582959,32619
632.118272,32865
633.652894,40456
635.186825,36682
636.720066,37285
638.252616,32892
639.784476,39793
641.315647,30800
642.846128,29257
644.37592,32459
645.905024,32718
647.433439,27647
648.961166,38832
650.488206,39117
652.014558,30182
653.540223,32095
655.065201,35306
656.589493,36996
658.113099,34852
659.636019,35245
661.158253,34364
662.679803,37898
664.200668,35414
665.720848,37385
667.240344,37191
668.759156,34644
670.277284,33897
671.79473,36344
673.311492,35126
674.827572,36168
676.34297,35932
677.857686,33223
679.37172,35441
680.885072,27847
682.397744,35082
683.909735,34792
685.421046,33436
686.931677,34903
688.441628,30156
689.950899,34985
691.459492,34642
692.967406,34591
694.474641,34638
695.981198,34364
697.487078,16066
698.992279,34203
700.496804,34420
702.000652,34148
703.503823,28916
705.006318,29919
706.508137,34280
708.00928,32088
709.509748,33971
711.009541,33648
712.50866,33448
714.007104,30950
715.504874,29340
717.00197,33396
718.498393,33282
719.994142,33434
721.489219,33232
722.983624,33209
724.477356,32858
725.970416,29227
727.462805,32758
728.954522,31759
730.445569,25153
731.935944,32604
733.42565,32423
734.914685,32684
736.403051,32574
737.890748,32211
739.377775,31969
740.864133,27321
742.349823,32222
743.834845,32059
745.319199,32406
746.802886,32217
748.285905,32114
749.768257,31897
751.249943,31886
752.730962,31888
754.211315,31715
755.691003,31796
757.170025,31501
758.648382,29203
760.126075,31208
761.603102,31168
763.079466,31417
764.555166,30999
766.030202,30993
767.504575,30560
768.978285,30713
770.451332,30421
771.923717,30664
773.39544,30639
774.866501,30688
776.3369,30331
777.806639,30081
779.275716,30358
780.744134,29434
782.21189,29663
783.678987,29034
785.145425,28869
786.611203,29227
788.076322,28831
789.540782,28536
791.004583,27924
792.467727,28431
793.930213,27940
795.392041,27532
796.853212,27642
798.313726,27290
799.773584,27348
801.232785,27131
802.69133,27205
804.14922,26429
805.606454,26787
807.063032,26762
808.518956,26668
809.974226,26423
811.428841,26095
812.882802,25842
814.33611,25746
815.788764,25219
817.240766,25284
818.692114,25338
820.14281,24735
821.592854,25150
823.042246,25116
824.490986,24981
825.939075,24347
827.386514,24551
828.833301,24082
830.279438,24217
831.724925,23991
833.169762,23966
834.61395,23718
836.057488,23840
837.500378,23277
838.942619,23726
840.384212,23364
841.825156,23721
843.265453,23288
844.705102,16411
846.144105,23126
847.58246,23521
849.020169,23171
850.457231,22851
851.893648,23004
853.329418,22799
854.764544,22721
856.199024,22334
857.632859,22650
859.06605,22316
860.498597,22448
861.9305,22195
863.361759,21849
864.792374,22029
866.222347,21740
867.651677,21656
869.080364,21624
870.508409,21579
871.935812,21343
873.362574,21209
874.788694,20971
876.214173,21182
877.639011,20780
879.063209,20666
880.486766,20709
881.909684,20578
883.331962,20646
884.753601,20541
886.174601,20399
887.594961,20127
889.014684,19792
890.433768,20134
891.852214,20027
893.270023,19796
894.687194,19968
896.103729,19792
897.519626,19658
898.934887,19376
900.349512,19592
901.763501,19192
903.176854,19176
904.589572,19400
906.001655,18657
907.413103,18470
908.823917,18728
910.234096,18284
911.643642,18046
913.052554,18087
914.460832,17811
915.868477,18325
917.27549,17768
918.68187,18084
920.087618,17976
921.492734,17828
922.897218,17445
924.301071,17685
925.704292,17089
927.106883,17490
928.508844,17441
929.910174,17343
931.310874,17193
932.710944,17205
934.110385,16927
935.509197,17233
936.907379,17222
938.304934,17071
939.70186,16787
941.098158,16790
942.493828,16807
943.88887,16718
945.283286,16392
946.677075,16638
948.070236,16914
949.462772,16196
950.854681,16700
952.245965,16265
953.636623,16468
955.026656,16600
956.416064,16162
957.804847,16406
959.193006,16145
960.58054,15947
961.967451,16226
963.353738,16353
964.739402,16081
966.124442,16109
967.50886,16192
968.892656,15825
970.275829,15939
971.65838,16225
973.04031,16129
974.421618,15682
975.802305,15931
977.182371,16218
978.561816,15885
979.940641,15759
981.318846,16057
982.696432,15706
984.073398,15571
985.449744,15985
986.825472,15810
988.200581,15557
989.575072,15638
990.948944,15688
992.322199,15881
993.694836,15745
995.066855,15959
996.438258,15730
997.809044,15696
999.179213,15841
1000.548766,15487
1001.917703,15612
1003.286024,15725
1004.65373,15398
1006.020821,15299
1007.387297,15600
1008.753158,14686
1010.118405,12773
1011.483038,15320
1012.847057,15278
1014.210462,15265
1015.573254,15305
1016.935433,15315
1018.296999,15123
1019.657953,14966
1021.018295,14955
1022.378025,14773
1023.737143,14976
1025.095649,15262
1026.453544,15118
1027.810829,15162
1029.167503,14979
1030.523566,14850
1031.87902,14673
1033.233863,14833
1034.588097,14890
1035.941722,14686
1037.294738,14716
1038.647145,15027
1039.998943,14751
1041.350133,14909
1042.700716,14431
1044.05069,14789
1045.400057,14594
1046.748817,14782
1048.09697,14719
1049.444516,14796
1050.791456,14789
1052.13779,14815
1053.483518,14705
1054.82864,15088
1056.173157,14848
1057.517069,15549
1058.860376,14998
1060.203079,14971
1061.545177,15314
1062.886671,14895
1064.227562,15215
1065.567848,15266
1066.907532,14674
1068.246613,14970
1069.585091,14902
1070.922966,14944
1072.260239,14749
1073.596911,15063
1074.93298,14482
1076.268448,14790
1077.603315,14431
1078.937581,14551
1080.271247,14552
1081.604312,14341
1082.936776,14150
1084.268641,14250
1085.599907,14308
1086.930573,13953
1088.260639,14097
1089.590107,14144
1090.918977,13848
1092.247248,14152
1093.574921,13853
1094.901996,13927
1096.228474,13964
1097.554354,14118
1098.879637,14167
1100.204323,14069
1101.528413,14122
1102.851907,13848
1104.174804,14117
1105.497106,13978
1106.818812,13949
1108.139923,13968
1109.460439,14115
1110.78036,13991
1112.099687,14192
1113.41842,13963
1114.736558,14254
1116.054103,14030
1117.371054,14188
1118.687412,13869
1120.003177,14060
1121.318349,14178
1122.632929,14036
1123.946916,14324
1125.260312,14075
1126.573116,13834
1127.885328,13873
1129.196949,13978
1130.507979,13759
1131.818419,13864
1133.128268,13725
1134.437527,13273
1135.746195,13542
1137.054275,13242
1138.361764,13020
1139.668665,13083
1140.974976,12967
1142.280699,12881
1143.585833,13080
1144.890379,13111
1146.194337,13098
1147.497708,12962
1148.800491,12789
1150.102687,12671
1151.404295,12620
1152.705318,12831
1154.005753,12570
1155.305603,12715
1156.604866,12980
1157.903544,12818
1159.201636,12642
1160.499143,12472
1161.796065,12814
1163.092402,12595
1164.388155,12907
1165.683324,12598
1166.977908,12252
1168.271909,12938
1169.565326,12698
1170.85816,12832
1172.150411,12760
1173.44208,12513
1174.733165,12526
1176.023669,12855
1177.31359,12855
1178.60293,12368
1179.891688,12681
1181.179865,12587
1182.467461,12748
1183.754476,12446
1185.04091,12800
1186.326765,12583
1187.612039,12708
1188.896733,12515
1190.180848,12699
1191.464383,12750
1192.747339,12526
1194.029717,12557
1195.311515,12804
1196.592736,12840
1197.873378,12679
1199.153442,12793
1200.432929,12941
1201.711838,12820
1202.990171,12881
1204.267926,12890
1205.545105,12535
1206.821707,12959
1208.097733,12987
1209.373183,12757
1210.648057,12591
1211.922356,12756
1213.196079,12502
1214.469228,12624
1215.741802,12529
1217.013801,12520
1218.285226,12445
1219.556077,12661
1220.826355,12818
1222.096058,12759
1223.365189,12687
1224.633746,12365
1225.90173,12391
1227.169142,12540
1228.435982,12438
1229.702249,12208
1230.967945,12561
1232.233069,12064
1233.497621,12306
1234.761602,11911
1236.025013,12170
1237.287852,11955
1238.550121,11981
1239.81182,12248
1241.072949,11960
1242.333509,12004
1243.593498,12058
1244.852919,12077
1246.11177,12132
1247.370053,11861
1248.627767,11951
1249.884912,11975
1251.14149,12175
1252.397499,12092
1253.652942,12205
1254.907816,12102
1256.162124,12176
1257.415864,12228
1258.669038,11842
1259.921646,12385
1261.173687,12093
1262.425162,12223
1263.676071,12059
1264.926415,12226
1266.176194,12407
1267.425408,12397
1268.674056,12340
1269.92214,12378
1271.16966,12251
1272.416616,12138
1273.663008,12431
1274.908836,12474
1276.1541,12179
1277.398802,12256
1278.64294,12339
1279.886516,12230
1281.129529,12071
1282.37198,12146
1283.613869,11743
1284.855196,12148
1286.095962,11763
1287.336166,12038
1288.575809,11974
1289.814891,11976
1291.053413,11867
1292.291374,11816
1293.528775,11913
1294.765616,11695
1296.001897,11939
1297.237618,11644
1298.472781,11727
1299.707384,11775
1300.941428,11870
1302.174914,11752
1303.407842,11638
1304.640211,11996
1305.872022,11982
1307.103276,11694
1308.333972,12024
1309.564111,11862
1310.793693,11678
1312.022719,12048
1313.251187,11918
1314.4791,11638
1315.706456,12065
1316.933256,11900
1318.159501,12122
1319.38519,11945
1320.610324,12052
1321.834903,12013
1323.058928,11950
1324.282398,11884
1325.505313,11981
1326.727675,11933
1327.949482,12037
1329.170736,11820
1330.391437,12080
1331.611584,11913
1332.831179,11817
1334.050221,11765
1335.26871,11849
1336.486647,11991
1337.704032,11797
1338.920865,11841
1340.137147,11533
1341.352877,11361
1342.568056,11582
1343.782684,11931
1344.996761,11361
1346.210288,11625
1347.423265,11551
1348.635691,11658
1349.847568,11544
1351.058895,11307
1352.269673,11177
1353.479901,11338
1354.689581,11202
1355.898712,11028
1357.107294,11256
1358.315329,11377
1359.522815,11138
1360.729753,11180
1361.936144,11025
1363.141987,11227
1364.347283,10937
1365.552032,11189
1366.756235,11171
1367.959891,11209
1369.163,11242
1370.365564,11015
1371.567582,11257
1372.769054,11254
1373.96998,11145
1375.170362,11050
1376.370198,10992
1377.56949,10741
1378.768237,10678
1379.96644,11033
1381.164099,10798
1382.361214,10872
1383.557785,11227
1384.753813,11430
1385.949297,10793
1387.144239,10957
1388.338637,10973
1389.532493,11104
1390.725807,10752
1391.918579,10725
1393.110808,10925
1394.302496,10833
1395.493643,10550
1396.684248,10829
1397.874312,10665
1399.063835,10597
1400.252818,10703
1401.44126,10514
1402.629162,10581
1403.816524,10297
1405.003346,10241
1406.189629,10546
1407.375372,10642
1408.560576,10223
1409.745241,10559
1410.929368,10395
1412.112956,10254
1413.296006,10371
1414.478517,10480
1415.660491,10226
1416.841927,10272
1418.022826,10385
1419.203188,10202
1420.383012,10308
1421.5623,10264
1422.741051,10185
1423.919266,10293
1425.096945,10190
1426.274088,10499
1427.450695,10166
1428.626766,9953
1429.802302,10367
1430.977303,10230
1432.15177,10368
1433.325701,10176
1434.499098,10647
1435.671961,10130
1436.84429,10258
1438.016085,10132
1439.187347,10165
1440.358075,10296
1441.528269,10295
1442.697931,10322
1443.86706,10388
1445.035657,10093
1446.203721,9977
1447.371253,10084
1448.538253,10046
1449.704721,10316
1450.870658,10185
1452.036064,10207
1453.200938,9794
1454.365282,10056
1455.529094,9937
1456.692377,9877
1457.855129,9958
1459.017351,10150
1460.179043,9712
1461.340206,10055
1462.500839,10063
1463.660943,9602
1464.820517,9564
1465.979563,9603
1467.138081,-27
1468.29607,9376
1469.453531,9607
1470.610464,9707
1471.766869,9670
1472.922746,9529
1474.078096,9518
1475.232919,9484
1476.387215,9522
1477.540985,9320
1478.694227,9403
1479.846944,9386
1480.999134,9467
1482.150798,9446
1483.301937,9309
1484.45255,9394
1485.602637,9276
1486.7522,9616
1487.901238,9304
1489.049751,9629
1490.197739,9370
1491.345203,9629
1492.492144,9421
1493.63856,9543
1494.784452,9325
1495.929821,9476
1497.074667,9705
1498.21899,9443
1499.36279,9578
1500.506067,9503
1501.648821,9586
1502.791054,9695
1503.932764,9722
1505.073953,9389
1506.21462,9482
1507.354765,9496
1508.494389,9260
1509.633492,9464
1510.772074,9907
1511.910136,9802
1513.047677,9907
1514.184698,9826
1515.321198,9571
1516.457179,9740
1517.592641,9753
1518.727582,9598
1519.862005,9677
1520.995909,9710
1522.129293,10011
1523.262159,9715
1524.394507,9915
1525.526336,9963
1526.657647,10482
1527.788441,9772
1528.918717,10084
1530.048475,9818
1531.177716,9884
1532.30644,10391
1533.434647,10076
1534.562338,10335
1535.689512,10338
1536.816169,10247
1537.942311,10422
1539.067937,10356
1540.193047,10636
1541.317642,10182
1542.441721,10422
1543.565285,10388
1544.688335,10214
1545.81087,10386
1546.93289,10444
1548.054396,11023
1549.175388,10612
1550.295866,10649
1551.41583,10848
1552.535281,10762
1553.654218,10808
1554.772643,11155
1555.890554,10943
1557.007953,11186
1558.124839,10801
1559.241213,10794
1560.357075,10760
1561.472424,10938
1562.587262,11456
1563.701589,10917
1564.815404,11250
1565.928708,11465
1567.041501,11279
1568.153783,11437
1569.265555,11539
1570.376816,11487
1571.487567,11289
1572.597808,11450
1573.707539,11547
1574.816761,11518
1575.925473,11672
1577.033676,11865
1578.14137,11934
1579.248555,11864
1580.355231,11786
1581.461399,11781
1582.567059,11959
1583.672211,12102
1584.776854,11827
1585.88099,12328
1586.984619,12299
1588.08774,11858
1589.190354,11925
1590.292462,12940
1591.394062,12975
1592.495156,12810
1593.595744,12727
1594.695825,13405
1595.795401,13177
1596.89447,13234
1597.993034,13313
1599.091093,13382
1600.188647,13719
1601.285695,14039
1602.382239,14129
1603.478278,14193
1604.573812,13984
1605.668843,14400
1606.763369,14494
1607.857391,14755
1608.95091,14607
1610.043925,14742
1611.136437,14848
1612.228446,15088
1613.319952,15312
1614.410955,15618
1615.501455,15394
1616.591453,15514
1617.680949,15760
1618.769943,15699
1619.858435,15806
1620.946426,16190
1622.033915,16217
1623.120903,16122
1624.20739,16456
1625.293376,16435
1626.378861,16658
1627.463845,16611
1628.54833,16348
1629.632314,16540
1630.715799,16866
1631.798783,16604
1632.881268,16864
1633.963254,16637
1635.04474,16376
1636.125728,16596
1637.206216,16971
1638.286206,16693
1639.365698,16785
1640.444691,16633
1641.523187,16297
1642.601184,16272
1643.678683,16501
1644.755686,16485
1645.83219,16475
1646.908198,16431
1647.983708,16373
1649.058722,16115
1650.133239,16037
1651.20726,16166
1652.280785,16074
1653.353813,16041
1654.426346,15784
1655.498383,15445
1656.569924,15503
1657.64097,15342
1658.711521,15625
1659.781577,15085
1660.851139,15187
1661.920205,14918
1662.988777,15014
1664.056855,14607
1665.124439,14633
1666.191529,14510
1667.258126,14329
1668.324229,14129
1669.389838,13906
1670.454955,13679
1671.519578,13577
1672.583709,13621
1673.647347,13163
1674.710493,13160
1675.773147,12732
1676.835308,12649
1677.896978,12413
1678.958155,12246
1680.018842,12199
1681.079037,11747
1682.138741,11801
1683.197954,11459
1684.256676,11400
1685.314908,11158
1686.372649,10818
1687.4299,10637
1688.48666,10590
1689.542931,10425
1690.598713,10235
1691.654004,10429
1692.708807,10075
1693.76312,9787
1694.816944,9517
1695.870279,9674
1696.923126,9437
1697.975484,9108
1699.027354,9160
1700.078736,9015
1701.12963,9082
1702.180036,9067
1703.229955,9211
1704.279386,8799
1705.32833,8706
1706.376787,8665
1707.424757,8338
1708.47224,8430
1709.519237,7994
1710.565748,7918
1711.611772,7825
1712.65731,7842
1713.702363,7935
1714.74693,7614
1715.791011,7515
1716.834608,7313
1717.877719,7369
1718.920345,7062
1719.962486,7095
1721.004143,7304
1722.045316,6759
1723.086004,6703
1724.126208,6701
1725.165929,6930
1726.205165,6313
1727.243918,6350
1728.282188,6468
1729.319975,6371
1730.357278,6150
1731.394099,6367
1732.430437,6196
1733.466293,5991
1734.501666,6030
1735.536557,5823
1736.570967,6094
1737.604894,5270
1738.63834,5554
1739.671304,5851
1740.703787,5470
1741.735789,5498
1742.767311,5655
1743.798351,5428
1744.828911,5260
1745.85899,5405
1746.888589,5386
1747.917708,5264
1748.946348,5143
1749.974507,5424
1751.002187,5079
1752.029388,4979
1753.056109,5019
1754.082351,4880
1755.108115,5038
1756.1334,4766
1757.158206,4902
1758.182534,4844
1759.206384,4650
1760.229755,4813
1761.252649,4458
1762.275065,4410
1763.297004,4809
1764.318466,4385
1765.33945,4565
1766.359957,4329
1767.379988,4505
1768.399542,4379
1769.418619,4449
1770.43722,3923
1771.455345,4059
1772.472994,4111
1773.490167,3942
1774.506865,4005
1775.523087,4008
1776.538834,3714
1777.554106,3446
1778.568902,3914
1779.583224,3937
1780.597072,3173
1781.610444,3975
1782.623343,3662
1783.635768,3965
1784.647718,3549
1785.659195,3837
1786.670198,3406
1787.680728,3660
1788.690784,3693
1789.700368,3665
1790.709478,3735
1791.718116,3829
1792.726281,3787
1793.733973,3505
1794.741194,3611
1795.747942,3610
1796.754218,3347
1797.760023,3498
1798.765356,3499
1799.770217,3638
1800.774607,3393
1801.778526,3384
1802.781974,3572
1803.784952,3726
1804.787458,3448
1805.789495,3505
1806.791061,3479
1807.792156,3546
1808.792782,3272
1809.792938,3388
1810.792625,3249
1811.791842,3628
1812.79059,3252
1813.788868,3221
1814.786678,3119
1815.784019,3247
1816.780891,3475
1817.777295,3420
1818.77323,3483
1819.768697,3274
1820.763697,3206
1821.758228,3214
1822.752292,3340
1823.745888,3308
1824.739017,3285
1825.731679,3192
1826.723874,3259
1827.715602,2932
1828.706863,3190
1829.697658,3329
1830.687986,3432
1831.677848,3236
1832.667244,2988
1833.656175,3053
1834.644639,3171
1835.632638,3237
1836.620172,3180
1837.60724,2742
1838.593844,3343
1839.579982,3196
1840.565656,2993
1841.550865,3254
1842.53561,3261
1843.51989,3040
1844.503706,3283
1845.487059,2969
1846.469947,3092
1847.452372,3073
1848.434334,3004
1849.415832,2966
1850.396867,2811
1851.377439,2919
1852.357549,3059
1853.337195,3155
1854.31638,2802
1855.295101,3176
1856.273361,3064
1857.251159,2768
1858.228494,3252
1859.205369,2970
1860.181781,2963
1861.157732,2899
1862.133222,2946
1863.108251,2704
1864.082819,2918
1865.056926,2948
1866.030573,2732
1867.003759,2909
1867.976485,2723
1868.948751,2823
1869.920556,2858
1870.891902,2731
1871.862789,2815
1872.833216,2938
1873.803183,2674
1874.772691,2693
1875.741741,2796
1876.710331,2468
1877.678463,2722
1878.646136,2785
1879.613351,2591
1880.580108,2535
1881.546406,2790
1882.512247,2824
1883.47763,2603
1884.442555,2686
1885.407023,2754
1886.371033,2695
1887.334586,2581
1888.297683,2758
1889.260322,2580
1890.222505,2690
1891.184231,2474
1892.145501,2629
1893.106315,2773
1894.066673,2911
1895.026574,2412
1895.98602,2811
1896.945011,2635
1897.903546,2795
1898.861626,2690
1899.81925,2678
1900.77642,2452
1901.733135,2552
1902.689395,2536
1903.6452,2416
1904.600551,2497
1905.555448,2499
1906.509891,2739
1907.46388,2713
1908.417416,2706
1909.370498,2719
1910.323126,2578
1911.275301,2550
1912.227023,2585
1913.178292,2554
1914.129108,2702
1915.079471,2514
1916.029382,2610
1916.97884,2559
1917.927846,2625
1918.876401,2438
1919.824503,2772
1920.772153,2760
1921.719352,2222
1922.6661,2439
1923.612396,1965
1924.558241,2819
1925.503635,2590
1926.448578,2360
1927.39307,2630
1928.337112,2621
1929.280703,2726
1930.223844,2549
1931.166535,2616
1932.108776,2785
1933.050568,2491
1933.991909,2555
1934.932801,2589
1935.873244,2690
1936.813238,2811
1937.752782,2852
1938.691878,2668
1939.630525,2843
1940.568723,2654
1941.506473,2586
1942.443774,2971
1943.380627,2630
1944.317033,3174
1945.25299,2846
1946.1885,2872
1947.123562,2702
1948.058177,2626
1948.992344,2858
1949.926065,2715
1950.859338,2776
1951.792165,2784
1952.724545,2926
1953.656478,2651
1954.587965,2820
1955.519006,2809
1956.4496,2706
1957.379749,2885
1958.309452,2728
1959.238709,2693
1960.167521,2713
1961.095888,2699
1962.023809,2709
1962.951285,2793
1963.878317,2761
1964.804903,2389
1965.731045,2322
1966.656743,2385
1967.581996,2925
1968.506805,2591
1969.43117,2611
1970.355091,2800
1971.278568,2679
1972.201602,2475
1973.124192,2892
1974.046339,2898
1974.968043,2611
1975.889304,2750
1976.810122,2656
1977.730498,2772
1978.65043,2960
1979.569921,2668
1980.488969,2813
1981.407574,2678
1982.325738,2753
1983.24346,2701
1984.160741,2683
1985.077579,2429
1985.993977,2174
1986.909933,2565
1987.825448,2797
1988.740522,2582
1989.655155,2755
1990.569347,2696
1991.483099,2681
1992.396411,2817
1993.309282,2879
1994.221713,2520
1995.133704,2789
1996.045256,2855
1996.956367,2713
1997.867039,2704
1998.777272,2609
1999.687065,2931
2000.596419,2828
2001.505335,2859
2002.413811,2624
2003.321849,2757
2004.229448,2844
2005.136609,2841
2006.043331,2810
2006.949616,3011
2007.855462,2997
2008.760871,2935
2009.665841,2855
2010.570375,2628
2011.47447,3020
2012.378129,3031
2013.281351,2948
2014.184135,2854
2015.086483,2893
2015.988393,2777
2016.889868,2886
2017.790906,3158
2018.691507,2799
2019.591673,2835
2020.491402,3339
2021.390695,2827
2022.289553,2988
2023.187975,2720
2024.085962,2838
2024.983514,2902
2025.88063,2930
2026.777311,2756
2027.673557,2997
2028.569369,2694
2029.464746,3013
2030.359688,3062
2031.254197,2848
2032.148271,3021
2033.04191,2903
2033.935116,3053
2034.827889,2979
2035.720227,2838
2036.612132,2805
2037.503604,3068
2038.394642,2943
2039.285248,3020
2040.17542,2854
2041.06516,3077
2041.954466,2962
2042.843341,3016
2043.731783,2698
2044.619792,2871
2045.50737,2879
2046.394516,2965
2047.281229,2750
2048.167511,3039
2049.053362,3090
2049.938781,2782
2050.823768,2815
2051.708325,2733
2052.59245,2918
2053.476145,2782
2054.359409,2783
2055.242242,2970
2056.124645,3105
2057.006617,2874
2057.888159,2712
2058.769271,2896
2059.649953,2951
2060.530206,2903
2061.410028,2551
2062.289421,2867
2063.168385,3074
2064.046919,2736
2064.925025,3030
2065.802701,2836
2066.679949,2968
2067.556767,2845
2068.433157,2876
2069.309119,2833
2070.184652,2841
2071.059758,2874
2071.934435,2727
2072.808684,3024
2073.682505,2931
2074.555899,3111
2075.428865,2912
2076.301404,2798
2077.173516,2869
2078.0452,2618
2078.916458,2700
2079.787289,2786
2080.657693,2550
2081.52767,2765
2082.397221,2604
2083.266346,2882
2084.135044,3020
2085.003316,3105
2085.871163,2841
2086.738584,2832
2087.605579,2967
2088.472148,2900
2089.338292,3133
2090.204011,2889
2091.069305,2903
2091.934174,2830
2092.798618,2978
2093.662637,2829
2094.526231,2779
2095.389402,2806
2096.252147,2879
2097.114469,2721
2097.976366,2957
2098.83784,2704
2099.69889,2819
2100.559516,2808
2101.419719,2809
2102.279498,2913
2103.138854,2612
2103.997786,2834
2104.856296,2910
2105.714383,2695
2106.572047,2787
2107.429289,3056
2108.286108,2792
2109.142504,2791
2109.998479,2756
2110.854031,2886
2111.709161,2980
2112.56387,2723
2113.418156,2802
2114.272021,2597
2115.125465,2447
2115.978487,2831
2116.831089,3024
2117.683269,2670
2118.535028,2803
2119.386366,2702
2120.237284,2834
2121.087781,2787
2121.937857,2845
2122.787514,2672
2123.63675,2802
2124.485566,2680
2125.333962,2512
2126.181939,2455
2127.029496,2660
2127.876633,2861
2128.723351,2499
2129.569649,2549
2130.415529,2686
2131.260989,2548
2132.106031,2503
2132.950654,2512
2133.794858,2349
2134.638643,2696
2135.482011,2668
2136.32496,2460
2137.167491,2481
2138.009604,2259
2138.851299,2407
2139.692576,2517
2140.533436,2330
2141.373878,2609
2142.213903,2458
2143.05351,2360
2143.892701,2611
2144.731474,2468
2145.569831,2471
2146.407771,2216
2147.245294,2657
2148.082401,2486
2148.919091,2330
2149.755365,2332
2150.591224,2259
2151.426666,2351
2152.261692,2262
2153.096302,2416
2153.930497,2517
2154.764277,2190
2155.597641,2396
2156.43059,2162
2157.263124,2656
2158.095242,2365
2158.926946,2264
2159.758236,2267
2160.58911,2232
2161.41957,2355
2162.249616,2239
2163.079248,2277
2163.908465,2196
2164.737269,2048
2165.565658,2410
2166.393634,2062
2167.221196,2227
2168.048345,2034
2168.87508,2200
2169.701402,2300
2170.527311,1855
2171.352807,2154
2172.177891,2159
2173.002561,1929
2173.826819,2143
2174.650664,2346
2175.474097,2311
2176.297117,2482
2177.119726,2127
2177.941922,1994
2178.763707,2070
2179.58508,2266
2180.406041,2313
2181.22659,1966
2182.046729,2306
2182.866456,2170
2183.685771,2032
2184.504676,2127
2185.32317,2206
2186.141253,2023
2186.958925,2153
2187.776187,2306
2188.593038,1800
2189.409479,2009
2190.22551,2010
2191.041131,2047
2191.856342,2094
2192.671143,1876
2193.485534,1975
2194.299516,2050
2195.113088,2060
2195.926251,2320
2196.739005,1975
2197.551349,2096
2198.363285,2090
2199.174812,1909
2199.98593,1947
2200.796639,2090
2201.60694,1941
2202.416832,2660
2203.226317,1805
2204.035393,1540
2204.844061,1827
2205.652321,1811
2206.460173,1668
2207.267618,1813
2208.074655,1937
2208.881285,1810
2209.687507,1888
2210.493322,1619
2211.29873,1893
2212.103732,1621
2212.908326,1885
2213.712513,1902
2214.516294,1870
2215.319669,1525
2216.122637,1459
2216.925199,1535
2217.727355,1408
2218.529105,1467
2219.330449,1753
2220.131387,1744
2220.931919,1694
2221.732046,1530
2222.531768,1892
2223.331084,1531
2224.129995,1473
2224.928501,1563
2225.726602,1575
2226.524298,1461
2227.321589,1548
2228.118476,1739
2228.914959,1458
2229.711037,1432
2230.50671,1747
2231.30198,1366
2232.096846,1518
2232.891307,1433
2233.685365,1508
2234.479019,1590
2235.27227,1308
2236.065117,1525
2236.857561,1471
2237.649602,1375
2238.441239,1434
2239.232474,1600
2240.023306,1593
2240.813735,1338
2241.603761,1278
2242.393385,1448
2243.182607,1573
2243.971426,1369
2244.759843,1372
2245.547858,1209
2246.335471,1564
2247.122682,1533
2247.909492,1465
2248.6959,1531
2249.481906,1251
2250.267511,1567
2251.052715,1463
2251.837518,1315
2252.621919,1100
2253.40592,1390
2254.18952,1456
2254.972719,1256
2255.755518,1356
2256.537916,1274
2257.319914,1247
2258.101512,1109
2258.88271,1169
2259.663507,1244
2260.443905,1126
2261.223903,1388
2262.003501,1419
2262.7827,1309
2263.561499,1058
2264.339899,1264
2265.1179,1209
2265.895501,1056
2266.672704,1331
2267.449508,943
2268.225913,1261
2269.001919,1085
2269.777527,1130
2270.552737,1116
2271.327548,1352
2272.101961,1107
2272.875975,1335
2273.649592,1091
2274.422811,948
2275.195632,1400
2275.968056,1160
2276.740082,1168
2277.511711,1122
2278.282942,1254
2279.053776,1068
2279.824213,1100
2280.594253,1049
2281.363897,1008
2282.133143,989
2282.901993,839
2283.670446,1050
2284.438503,971
2285.206164,942
2285.973428,911
2286.740296,1012
2287.506769,834
2288.272845,902
2289.038526,1166
2289.803811,846
2290.5687,1054
2291.333194,1072
2292.097293,1078
2292.860997,850
2293.624305,1075
2294.387219,1085
2295.149737,955
2295.911861,1129
2296.67359,897
2297.434925,1072
2298.195865,963
2298.956411,1048
2299.716562,995
2300.47632,897
2301.235683,1031
2301.994653,880
2302.753229,810
2303.511411,732
2304.269199,773
2305.026594,1050
2305.783596,1025
2306.540204,1123
2307.29642,899
2308.052242,667
2308.807671,877
2309.562708,965
2310.317351,1116
2311.071603,1036
2311.825461,952
2312.578928,943
2313.332002,1049
2314.084684,942
2314.836973,679
2315.588871,1138
2316.340377,724
2317.091491,731
2317.842214,900
2318.592545,800
2319.342485,944
2320.092033,1096
2320.84119,740
2321.589956,985
2322.338331,1002
2323.086315,739
2323.833908,962
2324.581111,859
2325.327923,855
2326.074345,871
2326.820376,882
2327.566017,928
2328.311268,984
2329.056129,676
2329.800599,1012
2330.54468,925
2331.288372,1041
2332.031673,698
2332.774585,545
2333.517108,849
2334.259242,907
2335.000986,949
2335.742341,818
2336.483307,671
2337.223884,791
2337.964073,660
2338.703872,583
2339.443283,504
2340.182306,862
2340.92094,674
2341.659187,805
2342.397044,738
2343.134514,602
2343.871596,888
2344.60829,756
2345.344597,661
2346.080515,685
2346.816046,890
2347.55119,456
2348.285946,847
2349.020316,693
2349.754298,469
2350.487893,904
2351.221101,637
2351.953922,544
2352.686356,505
2353.418404,603
2354.150066,731
2354.881341,697
2355.61223,568
2356.342732,607
2357.072849,484
2357.802579,596
2358.531924,831
2359.260883,801
2359.989456,692
2360.717643,541
2361.445445,816
2362.172862,644
2362.899893,583
2363.626539,478
2364.352801,543
2365.078677,690
2365.804168,518
2366.529275,586
2367.253996,705
2367.978334,614
2368.702286,506
2369.425855,519
2370.149039,818
2370.871839,545
2371.594255,504
2372.316287,701
2373.037935,534
2373.7592,687
2374.48008,565
2375.200578,512
2375.920691,581
2376.640422,739
2377.359769,612
2378.078733,549
2378.797314,603
2379.515511,647
2380.233327,222
2380.950759,468
2381.667808,573
2382.384476,560
2383.10076,800
2383.816663,615
2384.532183,491
2385.24732,567
2385.962076,479
2386.67645,290
2387.390442,238
2388.104052,330
2388.817281,154
2389.530128,284
2390.242593,517
2390.954677,113
2391.66638,415
2392.377702,399
2393.088643,531
2393.799202,773
2394.509381,313
2395.219179,282
2395.928596,526
2396.637633,244
2397.346289,351
2398.054565,473
2398.762461,215
2399.469976,503
2400.177111,536
2400.883867,288
2401.590242,325
2402.296238,254
2403.001854,274
2403.70709,390
2404.411947,229
2405.116424,313
2405.820522,392
2406.524241,396
2407.227581,200
2407.930542,407
2408.633123,503
2409.335326,323
2410.037151,307
