Waveshift,Intensity
-31.722347,9617
-29.886687,10836
-28.051868,12306
-26.217889,13974
-24.384749,16068
-22.552448,18486
-20.720985,20622
-18.890361,23581
-17.060575,26522
-15.231626,29681
-13.403514,34387
-11.576239,39616
-9.749799,47754
-7.924195,45657
-6.099426,37146
-4.275492,37102
-2.452392,41520
-0.630127,37216
1.191306,33976
3.011906,32718
4.831672,38378
6.650607,41225
8.46871,27859
10.285982,23839
12.102423,21210
13.918034,19184
15.732815,17853
17.546766,17779
19.359888,16779
21.172181,15286
22.983647,12923
24.794284,11214
26.604094,10897
28.413077,10819
30.221233,9030
32.028563,8129
33.835068,7119
35.640747,6642
37.445602,5845
39.249632,6051
41.052838,5580
42.855221,5733
44.656781,5569
46.457517,5732
48.257432,5041
50.056525,5506
51.854796,6698
53.652246,5720
55.448876,6041
57.244685,5858
59.039675,6188
60.833846,7018
62.627197,6523
64.41973,6646
66.211446,6776
68.002343,7371
69.792423,7675
71.581687,7023
73.370134,8975
75.157765,8571
76.944581,9539
78.730581,10231
80.515767,10813
82.300139,12419
84.083697,13053
85.866441,13921
87.648372,14943
89.429491,16004
91.209797,19561
92.989292,20516
94.767976,22522
96.545848,25731
98.32291,31555
100.099162,36238
101.874604,34130
103.649237,37708
105.423061,37972
107.196077,42798
108.968284,41777
110.739684,41284
112.510277,39883
114.280063,40011
116.049042,40142
117.817216,43600
119.584584,49465
121.351147,46169
123.116905,45273
124.881859,46250
126.646009,39591
128.409356,50132
130.171899,49506
131.93364,47998
133.694578,40474
135.454715,46315
137.21405,45851
138.972584,43386
140.730317,53536
142.48725,49190
144.243384,42519
145.998718,49335
147.753252,45830
149.506989,50131
151.259927,51462
153.012067,55345
154.76341,50421
156.513956,54540
158.263705,52801
160.012659,53700
161.760816,50802
163.508178,54324
165.254745,53605
167.000518,55158
168.745496,56175
170.489681,55278
172.233072,55857
173.975671,58670
175.717476,53426
177.45849,57187
179.198712,54808
180.938142,57278
182.676782,55534
184.414631,58184
186.15169,57491
187.887959,56095
189.623439,59650
191.35813,57296
193.092032,58689
194.825147,58529
196.557473,58607
198.289012,59290
200.019764,58933
201.74973,58798
203.478909,59914
205.207303,60183
206.934911,60676
208.661735,60936
210.387773,59092
212.113028,59794
213.837499,59883
215.561186,60717
217.28409,60845
219.006212,60671
220.727552,60866
222.44811,61767
224.167886,61738
225.886881,61226
227.605096,61501
229.32253,61176
231.039185,61293
232.75506,61184
234.470156,60320
236.184473,61768
237.898012,61307
239.610773,61430
241.322757,62575
243.033964,62501
244.744393,61601
246.454047,62357
248.162924,62148
249.871026,62181
251.578353,62564
253.284905,62262
254.990683,63296
256.695686,62499
258.399916,62920
260.103373,63025
261.806057,63078
263.507968,63363
265.209107,62877
266.909475,62785
268.609071,63036
270.307897,62582
272.005952,63155
273.703236,63270
275.399751,63196
277.095497,63113
278.790473,63644
280.484681,63117
282.178121,63356
283.870793,63705
285.562697,41002
287.253835,40619
288.944205,38994
290.633809,30953
292.322648,32430
294.010721,36580
295.698028,38677
297.384571,40310
299.070349,38422
300.755364,39800
302.439614,34963
304.123102,35152
305.805826,37376
307.487788,35536
309.168988,35561
310.849426,40401
312.529103,33513
314.208018,33313
315.886173,23385
317.563568,37194
319.240203,38210
320.916079,40274
322.591195,36248
324.265552,38748
325.939151,34996
327.611993,35244
329.284076,35798
330.955402,36717
332.625972,42527
334.295785,37371
335.964841,34421
337.633142,31654
339.300688,38530
340.967479,30173
342.633515,37915
344.298796,36048
345.963324,36830
347.627098,35346
349.29012,40482
350.952388,35787
352.613904,37419
354.274668,34200
355.93468,33972
357.593941,38348
359.252451,38597
360.910211,31669
362.56722,36909
364.22348,33295
365.87899,30917
367.533751,41218
369.187763,35252
370.841027,33894
372.493543,37095
374.145311,42698
375.796332,37970
377.446607,23283
379.096134,42534
380.744916,34765
382.392952,31788
384.040242,37950
385.686787,47181
387.332588,37142
388.977645,39814
390.621957,36541
392.265526,42028
393.908351,31336
395.550434,40094
397.191775,37978
398.832373,28746
400.472229,39697
402.111344,43451
403.749718,43148
405.387351,39300
407.024244,30168
408.660397,37918
410.295811,40345
411.930485,41323
413.56442,40191
415.197617,47907
416.830076,25912
418.461796,40804
420.09278,40707
421.723026,36895
423.352536,29905
424.981309,32543
426.609346,37867
428.236648,35841
429.863214,41733
431.489046,44228
433.114143,29737
434.738505,40033
436.362134,33016
437.98503,31586
439.607192,35997
441.228621,33174
442.849318,38588
444.469283,31297
446.088516,37546
447.707018,32864
449.324789,28534
450.941829,35581
452.558139,31972
454.173719,38412
455.78857,6715
457.402691,36664
459.016083,38494
460.628747,38319
462.240682,39499
463.85189,39399
465.46237,36377
467.072124,39528
468.68115,31587
470.28945,39771
471.897024,33811
473.503872,34116
475.109995,39991
476.715393,35297
478.320066,40613
479.924015,34747
481.52724,36551
483.129741,35747
484.731519,33200
486.332575,38784
487.932907,27183
489.532517,37709
491.131406,30929
492.729573,31035
494.327019,37073
495.923744,37219
497.519748,28916
499.115033,35774
500.709597,39617
502.303442,38256
503.896568,36727
505.488976,35045
507.080665,38652
508.671635,37796
510.261889,29075
511.851424,36669
513.440243,33078
515.028345,38307
516.615731,39385
518.202401,37097
519.788355,35264
521.373593,42344
522.958117,35867
524.541926,29510
526.125021,36754
527.707402,29995
529.28907,37151
530.870024,25401
532.450265,30600
534.029794,35556
535.60861,34577
537.186715,42275
538.764108,32606
540.340789,29727
541.91676,38887
543.492021,39636
545.066571,33229
546.640411,35270
548.213542,32177
549.785964,31219
551.357676,40247
552.928681,35544
554.498977,44167
556.068565,32502
557.637446,41501
559.20562,44111
560.773087,40373
562.339847,35919
563.905901,33570
565.47125,32152
567.035893,31012
568.599831,32428
570.163064,36883
571.725593,36412
573.287417,37745
574.848538,41877
576.408955,36011
577.968669,33653
579.52768,36165
581.085989,31734
582.643596,39482
584.200501,37077
585.756704,32182
587.312207,40616
588.867008,38860
590.42111,38990
591.974511,34170
593.527212,35290
595.079214,30652
596.630516,38977
598.18112,39304
599.731025,24546
601.280232,36172
602.828742,38937
604.376554,36876
605.923668,38851
607.470086,33022
609.015808,39726
610.560833,36216
612.105162,38951
613.648796,35891
615.191735,34942
616.733979,33284
618.275528,38683
619.816383,32563
621.356544,31327
622.896012,37330
624.434787,37776
625.972868,33183
627.510257,33357
629.046954,37726
630.582959,33024
632.118272,33437
633.652894,37367
635.186825,36968
636.720066,37051
638.252616,33285
639.784476,36751
641.315647,31152
642.846128,29502
644.37592,32748
645.905024,33190
647.433439,27965
648.961166,35877
650.488206,36145
652.014558,30959
653.540223,32422
655.065201,35692
656.589493,35500
658.113099,35051
659.636019,35249
661.158253,34820
662.679803,34849
664.200668,34681
665.720848,34760
667.240344,34630
668.759156,34388
670.277284,34532
671.79473,34208
673.311492,34054
674.827572,33819
676.34297,33590
677.857686,33421
679.37172,33482
680.885072,28368
682.397744,33107
683.909735,33220
685.421046,32898
686.931677,32815
688.441628,30799
689.950899,32591
691.459492,32756
692.967406,32813
694.474641,32137
695.981198,32210
697.487078,16664
698.992279,32179
700.496804,31764
702.000652,31688
703.503823,29372
705.006318,30131
706.508137,31437
708.00928,31528
709.509748,31679
711.009541,31332
712.50866,30966
714.007104,31095
715.504874,29726
717.00197,31057
718.498393,31124
719.994142,30983
721.489219,30718
722.983624,31048
724.477356,31074
725.970416,29296
727.462805,30369
728.954522,30755
730.445569,25507
731.935944,30301
733.42565,30553
734.914685,30410
736.403051,30685
737.890748,30154
739.377775,30046
740.864133,27777
742.349823,30405
743.834845,30110
745.319199,29951
746.802886,30162
748.285905,30004
749.768257,29992
751.249943,29897
752.730962,29741
754.211315,29912
755.691003,29495
757.170025,29494
758.648382,29108
760.126075,29392
761.603102,29144
763.079466,29237
764.555166,29263
766.030202,28933
767.504575,29080
768.978285,28943
770.451332,29076
771.923717,28625
773.39544,28910
774.866501,28478
776.3369,28897
777.806639,28182
779.275716,28790
780.744134,28475
782.21189,28286
783.678987,28002
785.145425,27416
786.611203,27699
788.076322,27297
789.540782,27574
791.004583,26897
792.467727,26936
793.930213,26515
795.392041,26268
796.853212,26288
798.313726,26692
799.773584,26324
801.232785,25987
802.69133,25724
804.14922,25816
805.606454,25760
807.063032,25395
808.518956,25383
809.974226,25113
811.428841,25081
812.882802,24753
814.33611,24635
815.788764,24835
817.240766,24910
818.692114,24002
820.14281,24362
821.592854,24083
823.042246,24101
824.490986,23880
825.939075,23620
827.386514,23888
828.833301,23311
830.279438,23122
831.724925,23149
833.169762,23290
834.61395,22905
836.057488,23143
837.500378,23202
838.942619,22570
840.384212,22680
841.825156,22676
843.265453,22413
844.705102,16709
846.144105,22525
847.58246,22385
849.020169,22116
850.457231,21538
851.893648,21518
853.329418,21508
854.764544,21842
856.199024,21321
857.632859,21318
859.06605,21328
860.498597,21180
861.9305,20899
863.361759,21100
864.792374,20882
866.222347,20762
867.651677,20493
869.080364,21041
870.508409,20598
871.935812,20564
873.362574,20289
874.788694,20332
876.214173,20042
877.639011,20156
879.063209,20063
880.486766,19658
881.909684,19846
883.331962,19410
884.753601,19757
886.174601,19553
887.594961,19656
889.014684,19007
890.433768,19529
891.852214,19458
893.270023,19080
894.687194,19159
896.103729,18665
897.519626,18300
898.934887,18740
900.349512,18682
901.763501,18405
903.176854,18552
904.589572,18003
906.001655,17867
907.413103,17789
908.823917,17914
910.234096,17566
911.643642,17659
913.052554,17535
914.460832,17048
915.868477,17546
917.27549,17286
918.68187,17155
920.087618,17381
921.492734,17455
922.897218,17261
924.301071,17130
925.704292,16833
927.106883,16760
928.508844,16589
929.910174,16512
931.310874,16500
932.710944,16504
934.110385,16609
935.509197,16488
936.907379,16593
938.304934,16214
939.70186,16516
941.098158,16172
942.493828,16201
943.88887,16076
945.283286,16401
946.677075,16118
948.070236,16116
949.462772,16286
950.854681,16060
952.245965,16512
953.636623,15921
955.026656,15812
956.416064,15921
957.804847,15858
959.193006,15662
960.58054,16250
961.967451,15933
963.353738,16040
964.739402,16184
966.124442,15641
967.50886,15674
968.892656,16106
970.275829,15613
971.65838,15582
973.04031,15504
974.421618,15595
975.802305,15418
977.182371,16060
978.561816,15643
979.940641,15272
981.318846,16057
982.696432,15663
984.073398,15474
985.449744,15269
986.825472,15180
988.200581,15394
989.575072,15619
990.948944,15414
992.322199,15434
993.694836,15191
995.066855,15143
996.438258,15543
997.809044,15079
999.179213,15079
1000.548766,15339
1001.917703,15107
1003.286024,14955
1004.65373,14901
1006.020821,15019
1007.387297,14927
1008.753158,15299
1010.118405,14933
1011.483038,14718
1012.847057,14767
1014.210462,14711
1015.573254,14375
1016.935433,14348
1018.296999,14613
1019.657953,14489
1021.018295,14519
1022.378025,14743
1023.737143,14487
1025.095649,14340
1026.453544,14418
1027.810829,14751
1029.167503,14363
1030.523566,14323
1031.87902,14407
1033.233863,14143
1034.588097,14321
1035.941722,14091
1037.294738,14659
1038.647145,13945
1039.998943,13845
1041.350133,13818
1042.700716,13987
1044.05069,13845
1045.400057,14120
1046.748817,14092
1048.09697,13917
1049.444516,13981
1050.791456,14158
1052.13779,14121
1053.483518,14013
1054.82864,14094
1056.173157,14210
1057.517069,14187
1058.860376,13708
1060.203079,14318
1061.545177,13999
1062.886671,14071
1064.227562,14149
1065.567848,14067
1066.907532,14263
1068.246613,14295
1069.585091,14285
1070.922966,14380
1072.260239,17021
1073.596911,17215
1074.93298,14979
1076.268448,13792
1077.603315,13271
1078.937581,13848
1080.271247,13491
1081.604312,13859
1082.936776,13403
1084.268641,13823
1085.599907,13602
1086.930573,13473
1088.260639,13499
1089.590107,13235
1090.918977,13371
1092.247248,13576
1093.574921,13142
1094.901996,13495
1096.228474,13579
1097.554354,13745
1098.879637,13285
1100.204323,13730
1101.528413,13585
1102.851907,13601
1104.174804,13398
1105.497106,13536
1106.818812,13471
1108.139923,13334
1109.460439,13134
1110.78036,13163
1112.099687,13466
1113.41842,13111
1114.736558,13164
1116.054103,13261
1117.371054,13259
1118.687412,12966
1120.003177,12837
1121.318349,12730
1122.632929,12782
1123.946916,13095
1125.260312,12842
1126.573116,12674
1127.885328,12809
1129.196949,12840
1130.507979,12407
1131.818419,13035
1133.128268,12543
1134.437527,12732
1135.746195,12917
1137.054275,12861
1138.361764,12465
1139.668665,12479
1140.974976,12371
1142.280699,12324
1143.585833,12108
1144.890379,12486
1146.194337,12535
1147.497708,12227
1148.800491,12475
1150.102687,11996
1151.404295,12523
1152.705318,12057
1154.005753,12459
1155.305603,12397
1156.604866,12381
1157.903544,12347
1159.201636,12602
1160.499143,12457
1161.796065,12288
1163.092402,12228
1164.388155,12077
1165.683324,12229
1166.977908,12430
1168.271909,12313
1169.565326,12333
1170.85816,12458
1172.150411,12436
1173.44208,12330
1174.733165,12548
1176.023669,12250
1177.31359,12526
1178.60293,12656
1179.891688,12623
1181.179865,12577
1182.467461,12224
1183.754476,12117
1185.04091,12167
1186.326765,12347
1187.612039,12374
1188.896733,12431
1190.180848,12218
1191.464383,12407
1192.747339,12311
1194.029717,12576
1195.311515,12169
1196.592736,12519
1197.873378,12255
1199.153442,12463
1200.432929,12344
1201.711838,12366
1202.990171,12397
1204.267926,12431
1205.545105,12319
1206.821707,12571
1208.097733,12020
1209.373183,12300
1210.648057,12759
1211.922356,12517
1213.196079,12261
1214.469228,12454
1215.741802,12006
1217.013801,12407
1218.285226,12436
1219.556077,12476
1220.826355,12443
1222.096058,12505
1223.365189,12521
1224.633746,12063
1225.90173,12120
1227.169142,12273
1228.435982,12256
1229.702249,12206
1230.967945,11997
1232.233069,12250
1233.497621,12262
1234.761602,11757
1236.025013,11970
1237.287852,12168
1238.550121,12003
1239.81182,11386
1241.072949,11538
1242.333509,11922
1243.593498,11976
1244.852919,11881
1246.11177,11735
1247.370053,11877
1248.627767,11891
1249.884912,12142
1251.14149,11824
1252.397499,11671
1253.652942,11698
1254.907816,11639
1256.162124,11456
1257.415864,11939
1258.669038,11503
1259.921646,11795
1261.173687,11519
1262.425162,11759
1263.676071,11953
1264.926415,11803
1266.176194,11553
1267.425408,11793
1268.674056,11593
1269.92214,11730
1271.16966,12021
1272.416616,11674
1273.663008,12224
1274.908836,11842
1276.1541,11873
1277.398802,11812
1278.64294,11514
1279.886516,11695
1281.129529,11993
1282.37198,11362
1283.613869,11702
1284.855196,11716
1286.095962,11611
1287.336166,11570
1288.575809,11911
1289.814891,11207
1291.053413,11525
1292.291374,11415
1293.528775,11325
1294.765616,11463
1296.001897,11537
1297.237618,11120
1298.472781,11411
1299.707384,11520
1300.941428,11699
1302.174914,11532
1303.407842,11398
1304.640211,11189
1305.872022,11429
1307.103276,11425
1308.333972,11080
1309.564111,11241
1310.793693,11252
1312.022719,11316
1313.251187,11540
1314.4791,11591
1315.706456,11394
1316.933256,11151
1318.159501,11168
1319.38519,11167
1320.610324,11185
1321.834903,10989
1323.058928,11277
1324.282398,11322
1325.505313,11359
1326.727675,11224
1327.949482,11354
1329.170736,10982
1330.391437,11219
1331.611584,11141
1332.831179,11288
1334.050221,11368
1335.26871,11128
1336.486647,11271
1337.704032,11302
1338.920865,10805
1340.137147,11016
1341.352877,11132
1342.568056,11133
1343.782684,10902
1344.996761,10956
1346.210288,11138
1347.423265,10705
1348.635691,10730
1349.847568,10865
1351.058895,10772
1352.269673,10653
1353.479901,10654
1354.689581,10465
1355.898712,10792
1357.107294,10510
1358.315329,10812
1359.522815,10681
1360.729753,10426
1361.936144,10746
1363.141987,10636
1364.347283,10583
1365.552032,10792
1366.756235,10416
1367.959891,10129
1369.163,10579
1370.365564,10689
1371.567582,10477
1372.769054,10496
1373.96998,10354
1375.170362,10553
1376.370198,10532
1377.56949,10668
1378.768237,11022
1379.96644,10632
1381.164099,10272
1382.361214,10392
1383.557785,10585
1384.753813,10484
1385.949297,10522
1387.144239,10491
1388.338637,10307
1389.532493,10614
1390.725807,10356
1391.918579,10431
1393.110808,10637
1394.302496,10217
1395.493643,10670
1396.684248,9990
1397.874312,10259
1399.063835,10286
1400.252818,10260
1401.44126,10335
1402.629162,9971
1403.816524,10069
1405.003346,10248
1406.189629,10127
1407.375372,9939
1408.560576,10173
1409.745241,10000
1410.929368,10073
1412.112956,9887
1413.296006,10037
1414.478517,10118
1415.660491,10077
1416.841927,9964
1418.022826,10143
1419.203188,10054
1420.383012,10016
1421.5623,9980
1422.741051,10026
1423.919266,9985
1425.096945,10045
1426.274088,10131
1427.450695,10007
1428.626766,10066
1429.802302,10178
1430.977303,10002
1432.15177,9795
1433.325701,10305
1434.499098,10370
1435.671961,10120
1436.84429,10137
1438.016085,10245
1439.187347,10252
1440.358075,10078
1441.528269,10029
1442.697931,10080
1443.86706,9906
1445.035657,9734
1446.203721,10293
1447.371253,9888
1448.538253,9833
1449.704721,10250
1450.870658,10020
1452.036064,10028
1453.200938,10133
1454.365282,9874
1455.529094,9672
1456.692377,9930
1457.855129,9478
1459.017351,9700
1460.179043,9357
1461.340206,9680
1462.500839,9667
1463.660943,9338
1464.820517,9465
1465.979563,9498
1467.138081,367
1468.29607,9293
1469.453531,9757
1470.610464,9300
1471.766869,9320
1472.922746,9301
1474.078096,9274
1475.232919,9362
1476.387215,9557
1477.540985,9600
1478.694227,9240
1479.846944,9433
1480.999134,9407
1482.150798,9552
1483.301937,9205
1484.45255,9477
1485.602637,9434
1486.7522,9345
1487.901238,9542
1489.049751,9630
1490.197739,9632
1491.345203,9692
1492.492144,9376
1493.63856,9423
1494.784452,9714
1495.929821,9654
1497.074667,9572
1498.21899,10023
1499.36279,9535
1500.506067,9493
1501.648821,9663
1502.791054,9255
1503.932764,9679
1505.073953,9595
1506.21462,9584
1507.354765,9649
1508.494389,9747
1509.633492,9793
1510.772074,9603
1511.910136,9531
1513.047677,9694
1514.184698,9427
1515.321198,9590
1516.457179,9469
1517.592641,9969
1518.727582,9816
1519.862005,9577
1520.995909,9415
1522.129293,9684
1523.262159,9564
1524.394507,9716
1525.526336,9658
1526.657647,10031
1527.788441,10055
1528.918717,9705
1530.048475,10055
1531.177716,10054
1532.30644,9981
1533.434647,10047
1534.562338,10300
1535.689512,10269
1536.816169,10163
1537.942311,10374
1539.067937,10399
1540.193047,10456
1541.317642,10604
1542.441721,10405
1543.565285,10505
1544.688335,10311
1545.81087,10329
1546.93289,10553
1548.054396,10278
1549.175388,10406
1550.295866,10665
1551.41583,10740
1552.535281,10800
1553.654218,10770
1554.772643,11171
1555.890554,10690
1557.007953,10807
1558.124839,11007
1559.241213,10697
1560.357075,10879
1561.472424,11183
1562.587262,11081
1563.701589,10949
1564.815404,10760
1565.928708,11591
1567.041501,11017
1568.153783,11418
1569.265555,11188
1570.376816,11163
1571.487567,11479
1572.597808,11430
1573.707539,11622
1574.816761,11615
1575.925473,11421
1577.033676,11555
1578.14137,11660
1579.248555,11648
1580.355231,11595
1581.461399,11560
1582.567059,11787
1583.672211,11488
1584.776854,12007
1585.88099,12003
1586.984619,12147
1588.08774,12357
1589.190354,11856
1590.292462,12309
1591.394062,12635
1592.495156,12701
1593.595744,13018
1594.695825,12669
1595.795401,13016
1596.89447,12877
1597.993034,12996
1599.091093,13783
1600.188647,13256
1601.285695,13068
1602.382239,13546
1603.478278,13506
1604.573812,13707
1605.668843,13905
1606.763369,13692
1607.857391,14142
1608.95091,14074
1610.043925,14239
1611.136437,14572
1612.228446,14517
1613.319952,14744
1614.410955,14493
1615.501455,15057
1616.591453,14886
1617.680949,15186
1618.769943,15529
1619.858435,15362
1620.946426,15276
1622.033915,15626
1623.120903,15496
1624.20739,15942
1625.293376,14603
1626.378861,15830
1627.463845,15837
1628.54833,15708
1629.632314,15782
1630.715799,15229
1631.798783,15810
1632.881268,16018
1633.963254,15780
1635.04474,15999
1636.125728,16152
1637.206216,15928
1638.286206,16016
1639.365698,15751
1640.444691,16017
1641.523187,15718
1642.601184,15731
1643.678683,15773
1644.755686,15527
1645.83219,15784
1646.908198,15745
1647.983708,15643
1649.058722,15534
1650.133239,15639
1651.20726,15140
1652.280785,15276
1653.353813,15121
1654.426346,15083
1655.498383,14851
1656.569924,14421
1657.64097,14814
1658.711521,15040
1659.781577,14687
1660.851139,14651
1661.920205,14650
1662.988777,14450
1664.056855,14422
1665.124439,14235
1666.191529,13767
1667.258126,13591
1668.324229,13852
1669.389838,13562
1670.454955,13659
1671.519578,13423
1672.583709,13413
1673.647347,13013
1674.710493,12650
1675.773147,12537
1676.835308,12277
1677.896978,12404
1678.958155,12134
1680.018842,12011
1681.079037,11550
1682.138741,11990
1683.197954,11369
1684.256676,10706
1685.314908,10793
1686.372649,10640
1687.4299,10802
1688.48666,10892
1689.542931,10162
1690.598713,10244
1691.654004,10178
1692.708807,9878
1693.76312,9975
1694.816944,9708
1695.870279,9620
1696.923126,9473
1697.975484,9606
1699.027354,9287
1700.078736,8899
1701.12963,8991
1702.180036,8740
1703.229955,8961
1704.279386,8749
1705.32833,8323
1706.376787,8377
1707.424757,8527
1708.47224,8376
1709.519237,8286
1710.565748,7803
1711.611772,7966
1712.65731,7851
1713.702363,7535
1714.74693,7699
1715.791011,7791
1716.834608,7820
1717.877719,7735
1718.920345,7609
1719.962486,7273
1721.004143,7187
1722.045316,7244
1723.086004,7053
1724.126208,6988
1725.165929,7048
1726.205165,7345
1727.243918,6989
1728.282188,6784
1729.319975,6795
1730.357278,6533
1731.394099,6556
1732.430437,6468
1733.466293,6407
1734.501666,6113
1735.536557,6456
1736.570967,6551
1737.604894,6348
1738.63834,5823
1739.671304,6146
1740.703787,5951
1741.735789,6121
1742.767311,6054
1743.798351,6039
1744.828911,5930
1745.85899,5595
1746.888589,5738
1747.917708,5831
1748.946348,5591
1749.974507,5528
1751.002187,5695
1752.029388,5685
1753.056109,5711
1754.082351,5379
1755.108115,5316
1756.1334,5093
1757.158206,5226
1758.182534,5209
1759.206384,5355
1760.229755,5474
1761.252649,5166
1762.275065,5080
1763.297004,5076
1764.318466,5233
1765.33945,5017
1766.359957,5007
1767.379988,4736
1768.399542,4656
1769.418619,4846
1770.43722,4894
1771.455345,4723
1772.472994,4725
1773.490167,4571
1774.506865,4777
1775.523087,4358
1776.538834,4527
1777.554106,4584
1778.568902,4457
1779.583224,4682
1780.597072,4512
1781.610444,4409
1782.623343,4645
1783.635768,4430
1784.647718,4374
1785.659195,4293
1786.670198,4090
1787.680728,4392
1788.690784,4360
1789.700368,4464
1790.709478,4564
1791.718116,4310
1792.726281,3969
1793.733973,4230
1794.741194,4196
1795.747942,4150
1796.754218,4301
1797.760023,4016
1798.765356,4239
1799.770217,4560
1800.774607,4162
1801.778526,4482
1802.781974,4071
1803.784952,4147
1804.787458,4394
1805.789495,4485
1806.791061,4150
1807.792156,3927
1808.792782,4227
1809.792938,3917
1810.792625,4158
1811.791842,3951
1812.79059,3753
1813.788868,4049
1814.786678,4074
1815.784019,3877
1816.780891,3833
1817.777295,3908
1818.77323,3752
1819.768697,4101
1820.763697,3994
1821.758228,4146
1822.752292,4307
1823.745888,4014
1824.739017,3792
1825.731679,3782
1826.723874,3645
1827.715602,3909
1828.706863,3990
1829.697658,4164
1830.687986,3785
1831.677848,3972
1832.667244,3972
1833.656175,3583
1834.644639,3911
1835.632638,3876
1836.620172,3928
1837.60724,3715
1838.593844,4043
1839.579982,3799
1840.565656,3846
1841.550865,3931
1842.53561,3657
1843.51989,3885
1844.503706,3769
1845.487059,3955
1846.469947,3769
1847.452372,3820
1848.434334,3750
1849.415832,3818
1850.396867,3531
1851.377439,3712
1852.357549,3691
1853.337195,3657
1854.31638,3619
1855.295101,3989
1856.273361,3614
1857.251159,3485
1858.228494,3634
1859.205369,3395
1860.181781,3704
1861.157732,3814
1862.133222,3480
1863.108251,3443
1864.082819,3497
1865.056926,3780
1866.030573,3773
1867.003759,3641
1867.976485,3499
1868.948751,3610
1869.920556,3566
1870.891902,3556
1871.862789,3408
1872.833216,3429
1873.803183,3558
1874.772691,3265
1875.741741,3492
1876.710331,3641
1877.678463,3400
1878.646136,3401
1879.613351,3294
1880.580108,3286
1881.546406,3556
1882.512247,3427
1883.47763,3348
1884.442555,3322
1885.407023,3338
1886.371033,3305
1887.334586,3737
1888.297683,3459
1889.260322,3612
1890.222505,3678
1891.184231,3376
1892.145501,3172
1893.106315,3349
1894.066673,3348
1895.026574,3653
1895.98602,3230
1896.945011,3434
1897.903546,3254
1898.861626,3510
1899.81925,3328
1900.77642,3274
1901.733135,3153
1902.689395,3268
1903.6452,3206
1904.600551,3733
1905.555448,3501
1906.509891,3318
1907.46388,3148
1908.417416,3568
1909.370498,4012
1910.323126,3324
1911.275301,3232
1912.227023,3482
1913.178292,3131
1914.129108,3160
1915.079471,3267
1916.029382,3666
1916.97884,3432
1917.927846,3193
1918.876401,3520
1919.824503,3379
1920.772153,3475
1921.719352,3365
1922.6661,3468
1923.612396,3537
1924.558241,3189
1925.503635,3271
1926.448578,3254
1927.39307,3727
1928.337112,3434
1929.280703,3230
1930.223844,3231
1931.166535,3313
1932.108776,3313
1933.050568,3255
1933.991909,3640
1934.932801,3623
1935.873244,3458
1936.813238,3246
1937.752782,3201
1938.691878,3565
1939.630525,3439
1940.568723,3428
1941.506473,3309
1942.443774,3424
1943.380627,3376
1944.317033,3565
1945.25299,3251
1946.1885,3800
1947.123562,3578
1948.058177,3521
1948.992344,3442
1949.926065,3713
1950.859338,3215
1951.792165,3478
1952.724545,3298
1953.656478,3639
1954.587965,3396
1955.519006,3369
1956.4496,3404
1957.379749,3403
1958.309452,3405
1959.238709,3600
1960.167521,3060
1961.095888,3552
1962.023809,3543
1962.951285,3422
1963.878317,3723
1964.804903,3515
1965.731045,3328
1966.656743,3591
1967.581996,3224
1968.506805,3429
1969.43117,3691
1970.355091,3270
1971.278568,3369
1972.201602,3253
1973.124192,3590
1974.046339,3299
1974.968043,3363
1975.889304,3278
1976.810122,3232
1977.730498,3542
1978.65043,3491
1979.569921,3377
1980.488969,3674
1981.407574,3372
1982.325738,3530
1983.24346,3125
1984.160741,3544
1985.077579,3807
1985.993977,3799
1986.909933,3743
1987.825448,3366
1988.740522,3224
1989.655155,3543
1990.569347,3651
1991.483099,3467
1992.396411,3569
1993.309282,3573
1994.221713,3625
1995.133704,3373
1996.045256,3431
1996.956367,3650
1997.867039,3496
1998.777272,3230
1999.687065,3660
2000.596419,3625
2001.505335,3496
2002.413811,3514
2003.321849,3704
2004.229448,3517
2005.136609,3546
2006.043331,3645
2006.949616,3808
2007.855462,3646
2008.760871,3586
2009.665841,3743
2010.570375,3860
2011.47447,3558
2012.378129,3681
2013.281351,3721
2014.184135,3417
2015.086483,3635
2015.988393,3709
2016.889868,3402
2017.790906,3626
2018.691507,3390
2019.591673,3553
2020.491402,3692
2021.390695,3597
2022.289553,3309
2023.187975,3756
2024.085962,3624
2024.983514,3705
2025.88063,3812
2026.777311,3612
2027.673557,4087
2028.569369,3666
2029.464746,3686
2030.359688,3763
2031.254197,3759
2032.148271,3649
2033.04191,4118
2033.935116,3652
2034.827889,3885
2035.720227,3791
2036.612132,3552
2037.503604,3378
2038.394642,3794
2039.285248,3576
2040.17542,3831
2041.06516,3852
2041.954466,3395
2042.843341,3783
2043.731783,3710
2044.619792,3663
2045.50737,3783
2046.394516,3661
2047.281229,3473
2048.167511,3833
2049.053362,3817
2049.938781,3751
2050.823768,3682
2051.708325,3492
2052.59245,3760
2053.476145,3980
2054.359409,3439
2055.242242,3588
2056.124645,3383
2057.006617,3658
2057.888159,3760
2058.769271,3611
2059.649953,3700
2060.530206,3499
2061.410028,3740
2062.289421,3307
2063.168385,3571
2064.046919,3303
2064.925025,3567
2065.802701,3614
2066.679949,3409
2067.556767,3689
2068.433157,3659
2069.309119,3705
2070.184652,3764
2071.059758,3510
2071.934435,3898
2072.808684,3551
2073.682505,3338
2074.555899,3443
2075.428865,3592
2076.301404,3500
2077.173516,3817
2078.0452,3619
2078.916458,3753
2079.787289,3554
2080.657693,3772
2081.52767,3742
2082.397221,3563
2083.266346,3846
2084.135044,3623
2085.003316,3620
2085.871163,3609
2086.738584,3809
2087.605579,3628
2088.472148,3711
2089.338292,3258
2090.204011,3644
2091.069305,3872
2091.934174,3430
2092.798618,3325
2093.662637,3506
2094.526231,3370
2095.389402,3753
2096.252147,3493
2097.114469,3752
2097.976366,3590
2098.83784,3502
2099.69889,3348
2100.559516,3668
2101.419719,3674
2102.279498,3763
2103.138854,3576
2103.997786,3524
2104.856296,3686
2105.714383,3853
2106.572047,3607
2107.429289,3501
2108.286108,3604
2109.142504,3555
2109.998479,3480
2110.854031,3361
2111.709161,3152
2112.56387,3521
2113.418156,3557
2114.272021,3175
2115.125465,3606
2115.978487,3571
2116.831089,3424
2117.683269,3490
2118.535028,3719
2119.386366,3489
2120.237284,3281
2121.087781,3542
2121.937857,3189
2122.787514,3373
2123.63675,3544
2124.485566,3500
2125.333962,3692
2126.181939,3514
2127.029496,3240
2127.876633,3375
2128.723351,3344
2129.569649,3440
2130.415529,3180
2131.260989,3270
2132.106031,3455
2132.950654,3034
2133.794858,3404
2134.638643,3389
2135.482011,3130
2136.32496,3571
2137.167491,3235
2138.009604,3230
2138.851299,3418
2139.692576,3342
2140.533436,3263
2141.373878,3151
2142.213903,3301
2143.05351,3380
2143.892701,3230
2144.731474,3425
2145.569831,3223
2146.407771,3052
2147.245294,3115
2148.082401,3335
2148.919091,2968
2149.755365,3355
2150.591224,2928
2151.426666,2943
2152.261692,3159
2153.096302,3317
2153.930497,3313
2154.764277,2828
2155.597641,2825
2156.43059,3033
2157.263124,3058
2158.095242,3096
2158.926946,2928
2159.758236,3012
2160.58911,3048
2161.41957,3206
2162.249616,3260
2163.079248,2959
2163.908465,2888
2164.737269,3005
2165.565658,2965
2166.393634,3071
2167.221196,2773
2168.048345,3051
2168.87508,2816
2169.701402,2858
2170.527311,3067
2171.352807,3122
2172.177891,2729
2173.002561,2894
2173.826819,2867
2174.650664,2835
2175.474097,3055
2176.297117,2940
2177.119726,2556
2177.941922,2999
2178.763707,2949
2179.58508,3031
2180.406041,2901
2181.22659,3372
2182.046729,2883
2182.866456,2834
2183.685771,2805
2184.504676,2632
2185.32317,3015
2186.141253,2897
2186.958925,2768
2187.776187,2814
2188.593038,2623
2189.409479,3073
2190.22551,2772
2191.041131,2794
2191.856342,2788
2192.671143,2913
2193.485534,2980
2194.299516,2834
2195.113088,2792
2195.926251,2847
2196.739005,2944
2197.551349,2738
2198.363285,2377
2199.174812,2484
2199.98593,2763
2200.796639,3082
2201.60694,2900
2202.416832,2630
2203.226317,2916
2204.035393,2655
2204.844061,2729
2205.652321,2780
2206.460173,2569
2207.267618,2746
2208.074655,2503
2208.881285,2690
2209.687507,2538
2210.493322,2686
2211.29873,2763
2212.103732,2515
2212.908326,2618
2213.712513,2540
2214.516294,2197
2215.319669,2523
2216.122637,2621
2216.925199,2351
2217.727355,2350
2218.529105,2840
2219.330449,2351
2220.131387,2858
2220.931919,2157
2221.732046,2488
2222.531768,2530
2223.331084,2375
2224.129995,2477
2224.928501,2322
2225.726602,2390
2226.524298,2394
2227.321589,2497
2228.118476,2724
2228.914959,2588
2229.711037,2584
2230.50671,2279
2231.30198,2354
2232.096846,2397
2232.891307,2360
2233.685365,2298
2234.479019,2381
2235.27227,2300
2236.065117,2422
2236.857561,2331
2237.649602,1997
2238.441239,2390
2239.232474,2252
2240.023306,2457
2240.813735,2441
2241.603761,2528
2242.393385,2311
2243.182607,2134
2243.971426,2134
2244.759843,2286
2245.547858,2273
2246.335471,2221
2247.122682,2292
2247.909492,2204
2248.6959,2183
2249.481906,2244
2250.267511,2368
2251.052715,1981
2251.837518,1847
2252.621919,2253
2253.40592,2431
2254.18952,2141
2254.972719,2288
2255.755518,2231
2256.537916,1840
2257.319914,2163
2258.101512,2476
2258.88271,2125
2259.663507,2245
2260.443905,2296
2261.223903,2145
2262.003501,2282
2262.7827,2136
2263.561499,2136
2264.339899,2107
2265.1179,1942
2265.895501,2421
2266.672704,1983
2267.449508,2271
2268.225913,2073
2269.001919,2370
2269.777527,2032
2270.552737,2181
2271.327548,2173
2272.101961,1900
2272.875975,2071
2273.649592,1746
2274.422811,1964
2275.195632,2036
2275.968056,2180
2276.740082,1889
2277.511711,1941
2278.282942,1879
2279.053776,1818
2279.824213,1771
2280.594253,2066
2281.363897,2120
2282.133143,1925
2282.901993,2044
2283.670446,2255
2284.438503,1790
2285.206164,2015
2285.973428,1882
2286.740296,1744
2287.506769,1951
2288.272845,1874
2289.038526,1835
2289.803811,1901
2290.5687,1866
2291.333194,2061
2292.097293,2020
2292.860997,1903
2293.624305,2008
2294.387219,2008
2295.149737,1654
2295.911861,1754
2296.67359,1869
2297.434925,1736
2298.195865,1889
2298.956411,1837
2299.716562,2007
2300.47632,1918
2301.235683,1944
2301.994653,1666
2302.753229,1868
2303.511411,1983
2304.269199,1691
2305.026594,1929
2305.783596,1768
2306.540204,1985
2307.29642,1615
2308.052242,2033
2308.807671,1904
2309.562708,1604
2310.317351,1748
2311.071603,1853
2311.825461,1844
2312.578928,1753
2313.332002,1556
2314.084684,1733
2314.836973,1688
2315.588871,1995
2316.340377,1574
2317.091491,1544
2317.842214,1746
2318.592545,1708
2319.342485,1963
2320.092033,1962
2320.84119,1810
2321.589956,1932
2322.338331,1634
2323.086315,1805
2323.833908,1693
2324.581111,1868
2325.327923,1790
2326.074345,1988
2326.820376,1800
2327.566017,1660
2328.311268,1785
2329.056129,1630
2329.800599,1640
2330.54468,1718
2331.288372,1630
2332.031673,1818
2332.774585,1748
2333.517108,1751
2334.259242,1708
2335.000986,1799
2335.742341,1786
2336.483307,1701
2337.223884,1703
2337.964073,1566
2338.703872,1613
2339.443283,1604
2340.182306,1700
2340.92094,1413
2341.659187,1620
2342.397044,1636
2343.134514,1949
2343.871596,1499
2344.60829,1476
2345.344597,1415
2346.080515,1857
2346.816046,1758
2347.55119,1841
2348.285946,1365
2349.020316,1641
2349.754298,1302
2350.487893,1671
2351.221101,1738
2351.953922,1478
2352.686356,1688
2353.418404,1515
2354.150066,1607
2354.881341,1683
2355.61223,1950
2356.342732,1565
2357.072849,1751
2357.802579,1199
2358.531924,1539
2359.260883,1743
2359.989456,1686
2360.717643,1507
2361.445445,1489
2362.172862,1325
2362.899893,1335
2363.626539,1465
2364.352801,1543
2365.078677,1416
2365.804168,1634
2366.529275,1669
2367.253996,1508
2367.978334,1697
2368.702286,1630
2369.425855,1430
2370.149039,1742
2370.871839,1560
2371.594255,1370
2372.316287,1473
2373.037935,1567
2373.7592,1382
2374.48008,1389
2375.200578,1623
2375.920691,1262
2376.640422,1619
2377.359769,1513
2378.078733,1456
2378.797314,1395
2379.515511,1515
2380.233327,1529
2380.950759,1466
2381.667808,1572
2382.384476,1193
2383.10076,1763
2383.816663,1314
2384.532183,1278
2385.24732,1261
2385.962076,1626
2386.67645,1235
2387.390442,1291
2388.104052,1444
2388.817281,1514
2389.530128,1323
2390.242593,1579
2390.954677,1391
2391.66638,1363
2392.377702,1421
2393.088643,1381
2393.799202,1309
2394.509381,1055
2395.219179,1433
2395.928596,1320
2396.637633,964
2397.346289,1108
2398.054565,1099
2398.762461,1086
2399.469976,1323
2400.177111,1056
2400.883867,1329
2401.590242,1323
2402.296238,956
2403.001854,1061
2403.70709,1111
2404.411947,876
2405.116424,1227
2405.820522,984
2406.524241,844
2407.227581,947
2407.930542,1081
2408.633123,1105
2409.335326,1057
2410.037151,989
