Frequent,Density
-31.722347,12003
-29.886687,14206
-28.051868,16301
-26.217889,18556
-24.384749,22052
-22.552448,24861
-20.720985,28927
-18.890361,33306
-17.060575,36775
-15.231626,43118
-13.403514,42498
-11.576239,47285
-9.749799,47211
-7.924195,45433
-6.099426,36929
-4.275492,36427
-2.452392,40986
-0.630127,36549
1.191306,33596
3.011906,32426
4.831672,37565
6.650607,40511
8.46871,36087
10.285982,30357
12.102423,26920
13.918034,23657
15.732815,21814
17.546766,21876
19.359888,20993
21.172181,18190
22.983647,14405
24.794284,12745
26.604094,12576
28.413077,11855
30.221233,10773
32.028563,8627
33.835068,7048
35.640747,5604
37.445602,5366
39.249632,4876
41.052838,4913
42.855221,4554
44.656781,4300
46.457517,4247
48.257432,4096
50.056525,3816
51.854796,4255
53.652246,3694
55.448876,3497
57.244685,3700
59.039675,4016
60.833846,4220
62.627197,3969
64.41973,4618
66.211446,4794
68.002343,4846
69.792423,4848
71.581687,5317
73.370134,5627
75.157765,6097
76.944581,6463
78.730581,7444
80.515767,8025
82.300139,8904
84.083697,10072
85.866441,11454
87.648372,12338
89.429491,13964
91.209797,15878
92.989292,18602
94.767976,21055
96.545848,24837
98.32291,29018
100.099162,34875
101.874604,27687
103.649237,31861
105.423061,31850
107.196077,36940
108.968284,35701
110.739684,34733
112.510277,32582
114.280063,32337
116.049042,31926
117.817216,36086
119.584584,43170
121.351147,38615
123.116905,36864
124.881859,37835
126.646009,28649
128.409356,41921
130.171899,40641
131.93364,37940
133.694578,27319
135.454715,34680
137.21405,33270
138.972584,29448
140.730317,43662
142.48725,36273
144.243384,25540
145.998718,34995
147.753252,29404
149.506989,34867
151.259927,36642
153.012067,42800
154.76341,33091
156.513956,40112
158.263705,35575
160.012659,37061
161.760816,30378
163.508178,36569
165.254745,33470
167.000518,37029
168.745496,38602
170.489681,35453
172.233072,35734
173.975671,42997
175.717476,28194
177.45849,37299
179.198712,29838
180.938142,35819
182.676782,30376
184.414631,37057
186.15169,33917
187.887959,28703
189.623439,39853
191.35813,30852
193.092032,35004
194.825147,33782
196.557473,33259
198.289012,35010
200.019764,32822
201.74973,31478
203.478909,35519
205.207303,35803
206.934911,37827
208.661735,38635
210.387773,32839
212.113028,31291
213.837499,31059
215.561186,34229
217.28409,34431
219.006212,32377
220.727552,32951
222.44811,37495
224.167886,37182
225.886881,33231
227.605096,34900
229.32253,31545
231.039185,31907
232.75506,30327
234.470156,23671
236.184473,32890
237.898012,28860
239.610773,28993
241.322757,37385
243.033964,36457
244.744393,28709
246.454047,34224
248.162924,31480
249.871026,31396
251.578353,34408
253.284905,30870
254.990683,40480
256.695686,31974
258.399916,35394
260.103373,35972
261.806057,35859
263.507968,38756
265.209107,32767
266.909475,31787
268.609071,32872
270.307897,28451
272.005952,34162
273.703236,34797
275.399751,33767
277.095497,32314
278.790473,38315
280.484681,30829
282.178121,33672
283.870793,38153
285.562697,30321
287.253835,40405
288.944205,38464
290.633809,30382
292.322648,31776
294.010721,36090
295.698028,38196
297.384571,39648
299.070349,37633
300.755364,39142
302.439614,34479
304.123102,34556
305.805826,36852
307.487788,35112
309.168988,35125
310.849426,39845
312.529103,32740
314.208018,32516
315.886173,22030
317.563568,35942
319.240203,37018
320.916079,39594
322.591195,36000
324.265552,38345
325.939151,34529
327.611993,34779
329.284076,35133
330.955402,36254
332.625972,41898
334.295785,36876
335.964841,34131
337.633142,31534
339.300688,38151
340.967479,29865
342.633515,37710
344.298796,35803
345.963324,36365
347.627098,35033
349.29012,40032
350.952388,35677
352.613904,36807
354.274668,34178
355.93468,33786
357.593941,37684
359.252451,38062
360.910211,31167
362.56722,36251
364.22348,32875
365.87899,30252
367.533751,40655
369.187763,35129
370.841027,33637
372.493543,36485
374.145311,41952
375.796332,37511
377.446607,22346
379.096134,42248
380.744916,34056
382.392952,31464
384.040242,37375
385.686787,46571
387.332588,36748
388.977645,39566
390.621957,36166
392.265526,41679
393.908351,31027
395.550434,39968
397.191775,37805
398.832373,28639
400.472229,39281
402.111344,43195
403.749718,42888
405.387351,39094
407.024244,29837
408.660397,37502
410.295811,40141
411.930485,41362
413.56442,39699
415.197617,47568
416.830076,25891
418.461796,40518
420.09278,40195
421.723026,36599
423.352536,29576
424.981309,31917
426.609346,37901
428.236648,35767
429.863214,41573
431.489046,43902
433.114143,29698
434.738505,40132
436.362134,32713
437.98503,31466
439.607192,35747
441.228621,32863
442.849318,38302
444.469283,31062
446.088516,37399
447.707018,32359
449.324789,27965
450.941829,35557
452.558139,31913
454.173719,38465
455.78857,6371
457.402691,36348
459.016083,38334
460.628747,37850
462.240682,39110
463.85189,39015
465.46237,36252
467.072124,39347
468.68115,31361
470.28945,39581
471.897024,33363
473.503872,33824
475.109995,39687
476.715393,34986
478.320066,40196
479.924015,34249
481.52724,36408
483.129741,35257
484.731519,32927
486.332575,38446
487.932907,26918
489.532517,37272
491.131406,30634
492.729573,30697
494.327019,36635
495.923744,36777
497.519748,28602
499.115033,35521
500.709597,39050
502.303442,38233
503.896568,36478
505.488976,34729
507.080665,38028
508.671635,37457
510.261889,29034
511.851424,36273
513.440243,32772
515.028345,38198
516.615731,39002
518.202401,36781
519.788355,34950
521.373593,41862
522.958117,35783
524.541926,29187
526.125021,36072
527.707402,30211
529.28907,36863
530.870024,24867
532.450265,30263
534.029794,35214
535.60861,34135
537.186715,41947
538.764108,32131
540.340789,29239
541.91676,38473
543.492021,39351
545.066571,33187
546.640411,34649
548.213542,31909
549.785964,30840
551.357676,39911
552.928681,35205
554.498977,44160
556.068565,32300
557.637446,41014
559.20562,43529
560.773087,40146
562.339847,35896
563.905901,33180
565.47125,32039
567.035893,30756
568.599831,31941
570.163064,36768
571.725593,36152
573.287417,37769
574.848538,41384
576.408955,35518
577.968669,33060
579.52768,35864
581.085989,31288
582.643596,38958
584.200501,36851
585.756704,32086
587.312207,41952
588.867008,38740
590.42111,38703
591.974511,33999
593.527212,35129
595.079214,30354
596.630516,38602
598.18112,39345
599.731025,24249
601.280232,35796
602.828742,38893
604.376554,36471
605.923668,38508
607.470086,32792
609.015808,41112
610.560833,36086
612.105162,38601
613.648796,35504
615.191735,34526
616.733979,32974
618.275528,42939
619.816383,32414
621.356544,31174
622.896012,36951
624.434787,38273
625.972868,33015
627.510257,33333
629.046954,38633
630.582959,32705
632.118272,33072
633.652894,40767
635.186825,37234
636.720066,37356
638.252616,33194
639.784476,40052
641.315647,30965
642.846128,29351
644.37592,32478
645.905024,32905
647.433439,27472
648.961166,40236
650.488206,40987
652.014558,30455
653.540223,32172
655.065201,35288
656.589493,37336
658.113099,34783
659.636019,35281
661.158253,34650
662.679803,38068
664.200668,35838
665.720848,39301
667.240344,38178
668.759156,34683
670.277284,33896
671.79473,37897
673.311492,35194
674.827572,37301
676.34297,39650
677.857686,33554
679.37172,39287
680.885072,27815
682.397744,35386
683.909735,39157
685.421046,33803
686.931677,35652
688.441628,30011
689.950899,38456
691.459492,38567
692.967406,36121
694.474641,38320
695.981198,38333
697.487078,16591
698.992279,38063
700.496804,37933
702.000652,36297
703.503823,29145
705.006318,29779
706.508137,37805
708.00928,32001
709.509748,37435
711.009541,34520
712.50866,37443
714.007104,31054
715.504874,29768
717.00197,36954
718.498393,36088
719.994142,36895
721.489219,36792
722.983624,33544
724.477356,36675
725.970416,29126
727.462805,36480
728.954522,31748
730.445569,25250
731.935944,35823
733.42565,33065
734.914685,35960
736.403051,33182
737.890748,35828
739.377775,35317
740.864133,27532
742.349823,32275
743.834845,34153
745.319199,35932
746.802886,35027
748.285905,35547
749.768257,34567
751.249943,33186
752.730962,34982
754.211315,32967
755.691003,32236
757.170025,34270
758.648382,29423
760.126075,31893
761.603102,34253
763.079466,34587
764.555166,34457
766.030202,34696
767.504575,31016
768.978285,33711
770.451332,33998
771.923717,34257
773.39544,34208
774.866501,33394
776.3369,33756
777.806639,33301
779.275716,33863
780.744134,32806
782.21189,29867
783.678987,31032
785.145425,32149
786.611203,32365
788.076322,32307
789.540782,31676
791.004583,28004
792.467727,31439
793.930213,31285
795.392041,30440
796.853212,30386
798.313726,29923
799.773584,30115
801.232785,30195
802.69133,29882
804.14922,29397
805.606454,28932
807.063032,29196
808.518956,29115
809.974226,28645
811.428841,28793
812.882802,28902
814.33611,28506
815.788764,28257
817.240766,27993
818.692114,28138
820.14281,24790
821.592854,27923
823.042246,27872
824.490986,27638
825.939075,27439
827.386514,27639
828.833301,27383
830.279438,27202
831.724925,27225
833.169762,27503
834.61395,27035
836.057488,27270
837.500378,25554
838.942619,27346
840.384212,27216
841.825156,27747
843.265453,27717
844.705102,16355
846.144105,27817
847.58246,27340
849.020169,27275
850.457231,26792
851.893648,26494
853.329418,27102
854.764544,26382
856.199024,26281
857.632859,26252
859.06605,26027
860.498597,26051
861.9305,26121
863.361759,25774
864.792374,25792
866.222347,25373
867.651677,24903
869.080364,25246
870.508409,24715
871.935812,24742
873.362574,24340
874.788694,24233
876.214173,24015
877.639011,23814
879.063209,24129
880.486766,23674
881.909684,23557
883.331962,23402
884.753601,23645
886.174601,23562
887.594961,23885
889.014684,23522
890.433768,24207
891.852214,24090
893.270023,24121
894.687194,24141
896.103729,24095
897.519626,24392
898.934887,24293
900.349512,24198
901.763501,23536
903.176854,23791
904.589572,23442
906.001655,23014
907.413103,22863
908.823917,22950
910.234096,22794
911.643642,22237
913.052554,22647
914.460832,22685
915.868477,22883
917.27549,22737
918.68187,22701
920.087618,22219
921.492734,21999
922.897218,21699
924.301071,21747
925.704292,20776
927.106883,20577
928.508844,20317
929.910174,20476
931.310874,20129
932.710944,20036
934.110385,19268
935.509197,19780
936.907379,19678
938.304934,18994
939.70186,18948
941.098158,18804
942.493828,18484
943.88887,18875
945.283286,18465
946.677075,18716
948.070236,18372
949.462772,17838
950.854681,18504
952.245965,18580
953.636623,18304
955.026656,18512
956.416064,18349
957.804847,18504
959.193006,18138
960.58054,17529
961.967451,17868
963.353738,18027
964.739402,17832
966.124442,17823
967.50886,17878
968.892656,17562
970.275829,17804
971.65838,17726
973.04031,17630
974.421618,17447
975.802305,17655
977.182371,17724
978.561816,17557
979.940641,17925
981.318846,17456
982.696432,17600
984.073398,18086
985.449744,17716
986.825472,17899
988.200581,18056
989.575072,18066
990.948944,18183
992.322199,17588
993.694836,17725
995.066855,18140
996.438258,18003
997.809044,17989
999.179213,18406
1000.548766,18001
1001.917703,18416
1003.286024,18256
1004.65373,18557
1006.020821,18377
1007.387297,18830
1008.753158,18768
1010.118405,19158
1011.483038,19024
1012.847057,19405
1014.210462,19139
1015.573254,19552
1016.935433,19687
1018.296999,19638
1019.657953,19454
1021.018295,19560
1022.378025,19488
1023.737143,19351
1025.095649,19351
1026.453544,19141
1027.810829,19136
1029.167503,19098
1030.523566,19088
1031.87902,19161
1033.233863,19250
1034.588097,19160
1035.941722,19477
1037.294738,19414
1038.647145,19607
1039.998943,19395
1041.350133,19442
1042.700716,19563
1044.05069,19809
1045.400057,19564
1046.748817,19582
1048.09697,19601
1049.444516,19678
1050.791456,19891
1052.13779,19758
1053.483518,20313
1054.82864,21123
1056.173157,20807
1057.517069,21455
1058.860376,21119
1060.203079,21591
1061.545177,21881
1062.886671,21904
1064.227562,21860
1065.567848,21460
1066.907532,21684
1068.246613,21379
1069.585091,21102
1070.922966,20704
1072.260239,20504
1073.596911,20274
1074.93298,19794
1076.268448,20453
1077.603315,19748
1078.937581,19786
1080.271247,19289
1081.604312,18929
1082.936776,19029
1084.268641,18492
1085.599907,17951
1086.930573,17750
1088.260639,17826
1089.590107,18072
1090.918977,17778
1092.247248,17579
1093.574921,17857
1094.901996,17813
1096.228474,18220
1097.554354,18225
1098.879637,18250
1100.204323,18604
1101.528413,18591
1102.851907,19000
1104.174804,19326
1105.497106,19225
1106.818812,19550
1108.139923,19636
1109.460439,19642
1110.78036,20069
1112.099687,20001
1113.41842,20253
1114.736558,20454
1116.054103,20659
1117.371054,20822
1118.687412,21359
1120.003177,21404
1121.318349,21847
1122.632929,21901
1123.946916,21879
1125.260312,21693
1126.573116,21796
1127.885328,21383
1129.196949,21184
1130.507979,20948
1131.818419,20414
1133.128268,20358
1134.437527,19482
1135.746195,19506
1137.054275,18946
1138.361764,18121
1139.668665,18203
1140.974976,17317
1142.280699,17133
1143.585833,16683
1144.890379,16492
1146.194337,17109
1147.497708,16317
1148.800491,16527
1150.102687,16395
1151.404295,16322
1152.705318,16187
1154.005753,16162
1155.305603,16537
1156.604866,16260
1157.903544,15939
1159.201636,15984
1160.499143,15305
1161.796065,15354
1163.092402,15410
1164.388155,14960
1165.683324,14784
1166.977908,14907
1168.271909,14621
1169.565326,14683
1170.85816,14910
1172.150411,14620
1173.44208,14419
1174.733165,14296
1176.023669,14626
1177.31359,14401
1178.60293,14134
1179.891688,14147
1181.179865,13926
1182.467461,14101
1183.754476,14147
1185.04091,14055
1186.326765,13981
1187.612039,14083
1188.896733,14341
1190.180848,14211
1191.464383,14018
1192.747339,13865
1194.029717,14166
1195.311515,14087
1196.592736,14057
1197.873378,14399
1199.153442,14471
1200.432929,14393
1201.711838,14258
1202.990171,14542
1204.267926,14374
1205.545105,14228
1206.821707,14302
1208.097733,14205
1209.373183,14449
1210.648057,14219
1211.922356,14228
1213.196079,14411
1214.469228,14348
1215.741802,14130
1217.013801,14130
1218.285226,14272
1219.556077,13857
1220.826355,14280
1222.096058,13751
1223.365189,13941
1224.633746,13958
1225.90173,13879
1227.169142,14160
1228.435982,14228
1229.702249,13851
1230.967945,13683
1232.233069,13779
1233.497621,13910
1234.761602,13484
1236.025013,13871
1237.287852,13291
1238.550121,13597
1239.81182,13749
1241.072949,13806
1242.333509,13819
1243.593498,13402
1244.852919,13689
1246.11177,13688
1247.370053,13793
1248.627767,13902
1249.884912,13753
1251.14149,13660
1252.397499,13990
1253.652942,13734
1254.907816,14069
1256.162124,13938
1257.415864,14100
1258.669038,14203
1259.921646,13887
1261.173687,14301
1262.425162,14425
1263.676071,14468
1264.926415,14549
1266.176194,14407
1267.425408,14482
1268.674056,14253
1269.92214,14286
1271.16966,14445
1272.416616,13951
1273.663008,14129
1274.908836,13561
1276.1541,13883
1277.398802,13579
1278.64294,13625
1279.886516,13756
1281.129529,13789
1282.37198,13237
1283.613869,13448
1284.855196,13378
1286.095962,13288
1287.336166,12915
1288.575809,13149
1289.814891,13128
1291.053413,13203
1292.291374,13222
1293.528775,13168
1294.765616,12946
1296.001897,13136
1297.237618,13085
1298.472781,13179
1299.707384,13168
1300.941428,13255
1302.174914,13288
1303.407842,13248
1304.640211,13168
1305.872022,13158
1307.103276,13189
1308.333972,13486
1309.564111,13594
1310.793693,13628
1312.022719,13621
1313.251187,13675
1314.4791,13607
1315.706456,13901
1316.933256,13920
1318.159501,13650
1319.38519,14161
1320.610324,14168
1321.834903,14265
1323.058928,14222
1324.282398,14295
1325.505313,14181
1326.727675,14364
1327.949482,14378
1329.170736,14415
1330.391437,14356
1331.611584,14509
1332.831179,14366
1334.050221,14273
1335.26871,14166
1336.486647,14304
1337.704032,14423
1338.920865,14203
1340.137147,14235
1341.352877,14181
1342.568056,14202
1343.782684,14051
1344.996761,13967
1346.210288,13948
1347.423265,13944
1348.635691,13777
1349.847568,13713
1351.058895,13607
1352.269673,13942
1353.479901,13966
1354.689581,14177
1355.898712,14086
1357.107294,14088
1358.315329,13947
1359.522815,14243
1360.729753,14207
1361.936144,14297
1363.141987,14286
1364.347283,14276
1365.552032,14643
1366.756235,14171
1367.959891,14490
1369.163,14167
1370.365564,14142
1371.567582,14002
1372.769054,14362
1373.96998,14211
1375.170362,13844
1376.370198,13741
1377.56949,13503
1378.768237,13461
1379.96644,13859
1381.164099,13374
1382.361214,13536
1383.557785,13458
1384.753813,13314
1385.949297,13185
1387.144239,13227
1388.338637,12996
1389.532493,13255
1390.725807,12989
1391.918579,12780
1393.110808,12663
1394.302496,12862
1395.493643,12096
1396.684248,12583
1397.874312,12136
1399.063835,12243
1400.252818,12103
1401.44126,12182
1402.629162,12129
1403.816524,11706
1405.003346,11803
1406.189629,11926
1407.375372,11941
1408.560576,11587
1409.745241,11685
1410.929368,11740
1412.112956,11563
1413.296006,11881
1414.478517,11526
1415.660491,11248
1416.841927,11868
1418.022826,11596
1419.203188,11134
1420.383012,11421
1421.5623,11448
1422.741051,11252
1423.919266,11590
1425.096945,11523
1426.274088,11446
1427.450695,11678
1428.626766,11532
1429.802302,11163
1430.977303,11263
1432.15177,11539
1433.325701,11273
1434.499098,11644
1435.671961,11415
1436.84429,11085
1438.016085,11400
1439.187347,11556
1440.358075,11250
1441.528269,11453
1442.697931,11531
1443.86706,11386
1445.035657,11094
1446.203721,11463
1447.371253,11460
1448.538253,11398
1449.704721,11673
1450.870658,11429
1452.036064,11378
1453.200938,11596
1454.365282,11705
1455.529094,11943
1456.692377,12243
1457.855129,11801
1459.017351,12122
1460.179043,11807
1461.340206,11318
1462.500839,11542
1463.660943,11844
1464.820517,11479
1465.979563,11597
1467.138081,44
1468.29607,11095
1469.453531,11176
1470.610464,11123
1471.766869,10888
1472.922746,10142
1474.078096,10492
1475.232919,10590
1476.387215,10407
1477.540985,10136
1478.694227,10137
1479.846944,10264
1480.999134,9995
1482.150798,9995
1483.301937,10050
1484.45255,10041
1485.602637,9958
1486.7522,9905
1487.901238,9680
1489.049751,9923
1490.197739,9715
1491.345203,9637
1492.492144,9841
1493.63856,9986
1494.784452,9981
1495.929821,10010
1497.074667,10051
1498.21899,10010
1499.36279,9669
1500.506067,9862
1501.648821,9997
1502.791054,10024
1503.932764,9895
1505.073953,10275
1506.21462,9791
1507.354765,9774
1508.494389,9878
1509.633492,9804
1510.772074,10055
1511.910136,10009
1513.047677,9591
1514.184698,9743
1515.321198,9958
1516.457179,9863
1517.592641,9682
1518.727582,10107
1519.862005,9874
1520.995909,9927
1522.129293,10115
1523.262159,10319
1524.394507,10147
1525.526336,10217
1526.657647,9835
1527.788441,10115
1528.918717,10321
1530.048475,10266
1531.177716,10345
1532.30644,10377
1533.434647,10543
1534.562338,10633
1535.689512,10357
1536.816169,10605
1537.942311,11009
1539.067937,10722
1540.193047,10583
1541.317642,10584
1542.441721,10957
1543.565285,10733
1544.688335,10663
1545.81087,10753
1546.93289,11012
1548.054396,11047
1549.175388,10934
1550.295866,10804
1551.41583,11272
1552.535281,11334
1553.654218,11088
1554.772643,11161
1555.890554,11500
1557.007953,11484
1558.124839,11097
1559.241213,11136
1560.357075,11354
1561.472424,11490
1562.587262,11748
1563.701589,11513
1564.815404,11608
1565.928708,11357
1567.041501,11929
1568.153783,11658
1569.265555,11791
1570.376816,11970
1571.487567,11497
1572.597808,11780
1573.707539,12369
1574.816761,12380
1575.925473,12067
1577.033676,12300
1578.14137,12576
1579.248555,12117
1580.355231,12466
1581.461399,12628
1582.567059,12610
1583.672211,12632
1584.776854,12838
1585.88099,13011
1586.984619,12960
1588.08774,13117
1589.190354,13066
1590.292462,13313
1591.394062,13506
1592.495156,13606
1593.595744,13594
1594.695825,13845
1595.795401,13739
1596.89447,13959
1597.993034,13885
1599.091093,13983
1600.188647,14579
1601.285695,14733
1602.382239,14424
1603.478278,14960
1604.573812,14958
1605.668843,14944
1606.763369,15253
1607.857391,15594
1608.95091,15786
1610.043925,15687
1611.136437,15736
1612.228446,15913
1613.319952,16595
1614.410955,16237
1615.501455,16209
1616.591453,16004
1617.680949,16815
1618.769943,16937
1619.858435,16775
1620.946426,16913
1622.033915,17054
1623.120903,17146
1624.20739,17564
1625.293376,17582
1626.378861,17607
1627.463845,17749
1628.54833,17667
1629.632314,17852
1630.715799,17563
1631.798783,17948
1632.881268,18038
1633.963254,17608
1635.04474,17806
1636.125728,17825
1637.206216,18084
1638.286206,17683
1639.365698,17600
1640.444691,17955
1641.523187,17658
1642.601184,17458
1643.678683,17875
1644.755686,17770
1645.83219,17665
1646.908198,17487
1647.983708,17721
1649.058722,16924
1650.133239,17107
1651.20726,17301
1652.280785,17111
1653.353813,16953
1654.426346,17174
1655.498383,16805
1656.569924,16894
1657.64097,16397
1658.711521,16550
1659.781577,16395
1660.851139,16076
1661.920205,15881
1662.988777,16033
1664.056855,15823
1665.124439,15617
1666.191529,15594
1667.258126,15214
1668.324229,15284
1669.389838,14829
1670.454955,14978
1671.519578,14583
1672.583709,14241
1673.647347,14576
1674.710493,13874
1675.773147,14039
1676.835308,13434
1677.896978,13327
1678.958155,13350
1680.018842,12905
1681.079037,12935
1682.138741,12393
1683.197954,12103
1684.256676,11879
1685.314908,11613
1686.372649,11734
1687.4299,11581
1688.48666,11196
1689.542931,11433
1690.598713,10847
1691.654004,10873
1692.708807,10453
1693.76312,10572
1694.816944,10407
1695.870279,10154
1696.923126,10382
1697.975484,9843
1699.027354,9796
1700.078736,9750
1701.12963,9587
1702.180036,9373
1703.229955,9351
1704.279386,9174
1705.32833,9219
1706.376787,9094
1707.424757,8666
1708.47224,8844
1709.519237,8689
1710.565748,8280
1711.611772,8129
1712.65731,8007
1713.702363,8062
1714.74693,8029
1715.791011,7960
1716.834608,7747
1717.877719,7676
1718.920345,7561
1719.962486,7442
1721.004143,7626
1722.045316,7506
1723.086004,7092
1724.126208,7098
1725.165929,7331
1726.205165,6893
1727.243918,6795
1728.282188,7000
1729.319975,6589
1730.357278,6700
1731.394099,6363
1732.430437,6715
1733.466293,6390
1734.501666,6249
1735.536557,6114
1736.570967,6222
1737.604894,6010
1738.63834,6155
1739.671304,5989
1740.703787,5699
1741.735789,5709
1742.767311,5971
1743.798351,5582
1744.828911,5815
1745.85899,5826
1746.888589,5668
1747.917708,5533
1748.946348,5219
1749.974507,5543
1751.002187,5409
1752.029388,5232
1753.056109,5211
1754.082351,5021
1755.108115,5146
1756.1334,5166
1757.158206,5130
1758.182534,4945
1759.206384,4908
1760.229755,4869
1761.252649,5025
1762.275065,4853
1763.297004,4883
1764.318466,4556
1765.33945,4624
1766.359957,4673
1767.379988,4486
1768.399542,4505
1769.418619,4170
1770.43722,4320
1771.455345,4445
1772.472994,4247
1773.490167,4154
1774.506865,4219
1775.523087,4286
1776.538834,4272
1777.554106,4266
1778.568902,4185
1779.583224,4371
1780.597072,4199
1781.610444,3878
1782.623343,3895
1783.635768,3912
1784.647718,4079
1785.659195,3970
1786.670198,3899
1787.680728,3899
1788.690784,4108
1789.700368,3526
1790.709478,3907
1791.718116,3723
1792.726281,3762
1793.733973,3792
1794.741194,3797
1795.747942,3930
1796.754218,3934
1797.760023,3555
1798.765356,3810
1799.770217,3693
1800.774607,3865
1801.778526,3999
1802.781974,3949
1803.784952,3645
1804.787458,3936
1805.789495,3859
1806.791061,3519
1807.792156,3981
1808.792782,3887
1809.792938,3772
1810.792625,3742
1811.791842,3643
1812.79059,3416
1813.788868,3425
1814.786678,3404
1815.784019,3771
1816.780891,3346
1817.777295,3476
1818.77323,3334
1819.768697,3576
1820.763697,3536
1821.758228,3323
1822.752292,3636
1823.745888,3415
1824.739017,3570
1825.731679,3520
1826.723874,3471
1827.715602,3846
1828.706863,3340
1829.697658,3521
1830.687986,3214
1831.677848,3339
1832.667244,3469
1833.656175,3222
1834.644639,3380
1835.632638,3349
1836.620172,3027
1837.60724,3327
1838.593844,3383
1839.579982,3684
1840.565656,3393
1841.550865,3342
1842.53561,3236
1843.51989,3257
1844.503706,3280
1845.487059,3541
1846.469947,3399
1847.452372,3300
1848.434334,3470
1849.415832,3384
1850.396867,3152
1851.377439,3354
1852.357549,3456
1853.337195,3561
1854.31638,3006
1855.295101,3072
1856.273361,3291
1857.251159,3276
1858.228494,3439
1859.205369,3419
1860.181781,2904
1861.157732,3117
1862.133222,3526
1863.108251,3223
1864.082819,3180
1865.056926,3222
1866.030573,3186
1867.003759,2997
1867.976485,3080
1868.948751,3048
1869.920556,3437
1870.891902,3237
1871.862789,2908
1872.833216,3192
1873.803183,2868
1874.772691,3023
1875.741741,2948
1876.710331,2984
1877.678463,3180
1878.646136,2794
1879.613351,3111
1880.580108,3014
1881.546406,2728
1882.512247,2818
1883.47763,2741
1884.442555,3005
1885.407023,2867
1886.371033,2884
1887.334586,3291
1888.297683,2739
1889.260322,2710
1890.222505,2878
1891.184231,2730
1892.145501,3087
1893.106315,2888
1894.066673,3051
1895.026574,2793
1895.98602,2927
1896.945011,2768
1897.903546,2864
1898.861626,2717
1899.81925,3046
1900.77642,3397
1901.733135,2942
1902.689395,2794
1903.6452,2617
1904.600551,2929
1905.555448,2859
1906.509891,3001
1907.46388,2827
1908.417416,2934
1909.370498,2816
1910.323126,2986
1911.275301,2965
1912.227023,2939
1913.178292,2877
1914.129108,3130
1915.079471,2895
1916.029382,2964
1916.97884,3061
1917.927846,2739
1918.876401,2775
1919.824503,2916
1920.772153,2746
1921.719352,2803
1922.6661,2823
1923.612396,2708
1924.558241,2754
1925.503635,2899
1926.448578,2989
1927.39307,2830
1928.337112,2978
1929.280703,3117
1930.223844,2809
1931.166535,3067
1932.108776,3003
1933.050568,3003
1933.991909,3129
1934.932801,3193
1935.873244,3074
1936.813238,2971
1937.752782,2541
1938.691878,3170
1939.630525,2933
1940.568723,2991
1941.506473,3041
1942.443774,2990
1943.380627,3013
1944.317033,3146
1945.25299,3035
1946.1885,2726
1947.123562,3001
1948.058177,3216
1948.992344,3193
1949.926065,2660
1950.859338,2941
1951.792165,3057
1952.724545,2936
1953.656478,3004
1954.587965,3168
1955.519006,2852
1956.4496,2891
1957.379749,3042
1958.309452,2990
1959.238709,3140
1960.167521,2966
1961.095888,3394
1962.023809,3285
1962.951285,3033
1963.878317,2878
1964.804903,3135
1965.731045,2859
1966.656743,2805
1967.581996,3063
1968.506805,2979
1969.43117,3357
1970.355091,2869
1971.278568,2981
1972.201602,3134
1973.124192,3160
1974.046339,3135
1974.968043,3095
1975.889304,2864
1976.810122,2837
1977.730498,3030
1978.65043,2786
1979.569921,2719
1980.488969,3080
1981.407574,3016
1982.325738,3069
1983.24346,2951
1984.160741,3176
1985.077579,3060
1985.993977,2824
1986.909933,3071
1987.825448,3074
1988.740522,3266
1989.655155,2960
1990.569347,2870
1991.483099,2964
1992.396411,3117
1993.309282,3119
1994.221713,2912
1995.133704,2699
1996.045256,3196
1996.956367,2852
1997.867039,3011
1998.777272,3258
1999.687065,2912
2000.596419,3130
2001.505335,3086
2002.413811,3170
2003.321849,3231
2004.229448,3004
2005.136609,3267
2006.043331,2849
2006.949616,3039
2007.855462,3174
2008.760871,3226
2009.665841,3071
2010.570375,3544
2011.47447,3018
2012.378129,2981
2013.281351,3045
2014.184135,3292
2015.086483,3148
2015.988393,3273
2016.889868,3336
2017.790906,3092
2018.691507,3426
2019.591673,2988
2020.491402,3563
2021.390695,3092
2022.289553,3298
2023.187975,3535
2024.085962,3054
2024.983514,3169
2025.88063,3436
2026.777311,3329
2027.673557,3393
2028.569369,3279
2029.464746,3384
2030.359688,3182
2031.254197,3388
2032.148271,3068
2033.04191,3267
2033.935116,3246
2034.827889,3491
2035.720227,2998
2036.612132,3304
2037.503604,3004
2038.394642,3401
2039.285248,3200
2040.17542,3259
2041.06516,3394
2041.954466,3330
2042.843341,3216
2043.731783,3430
2044.619792,3165
2045.50737,3217
2046.394516,3191
2047.281229,3252
2048.167511,3021
2049.053362,3189
2049.938781,2789
2050.823768,3487
2051.708325,3356
2052.59245,3355
2053.476145,3254
2054.359409,3165
2055.242242,3135
2056.124645,2978
2057.006617,2897
2057.888159,3085
2058.769271,2996
2059.649953,2861
2060.530206,3251
2061.410028,3062
2062.289421,3047
2063.168385,3244
2064.046919,2929
2064.925025,2997
2065.802701,3163
2066.679949,3257
2067.556767,3388
2068.433157,3042
2069.309119,3301
2070.184652,3356
2071.059758,3507
2071.934435,2984
2072.808684,3193
2073.682505,3275
2074.555899,2864
2075.428865,3388
2076.301404,3196
2077.173516,3160
2078.0452,3338
2078.916458,3402
2079.787289,3248
2080.657693,3006
2081.52767,3180
2082.397221,3453
2083.266346,3245
2084.135044,3140
2085.003316,3257
2085.871163,3114
2086.738584,3009
2087.605579,3077
2088.472148,3316
2089.338292,3092
2090.204011,3061
2091.069305,3231
2091.934174,3335
2092.798618,2964
2093.662637,3388
2094.526231,3057
2095.389402,3143
2096.252147,2940
2097.114469,2954
2097.976366,3394
2098.83784,3276
2099.69889,2980
2100.559516,3266
2101.419719,3355
2102.279498,2885
2103.138854,3452
2103.997786,3174
2104.856296,2973
2105.714383,3115
2106.572047,3222
2107.429289,3126
2108.286108,2911
2109.142504,3136
2109.998479,2903
2110.854031,3069
2111.709161,3041
2112.56387,3425
2113.418156,3048
2114.272021,3059
2115.125465,3180
2115.978487,3135
2116.831089,2859
2117.683269,3228
2118.535028,3210
2119.386366,2912
2120.237284,3111
2121.087781,2987
2121.937857,2798
2122.787514,2987
2123.63675,3168
2124.485566,3131
2125.333962,2896
2126.181939,2961
2127.029496,2972
2127.876633,3126
2128.723351,2907
2129.569649,3234
2130.415529,2809
2131.260989,3044
2132.106031,2811
2132.950654,2578
2133.794858,3137
2134.638643,3017
2135.482011,2738
2136.32496,2840
2137.167491,3271
2138.009604,2733
2138.851299,2909
2139.692576,2795
2140.533436,2738
2141.373878,2750
2142.213903,2711
2143.05351,2733
2143.892701,2967
2144.731474,2509
2145.569831,2367
2146.407771,2526
2147.245294,2822
2148.082401,2634
2148.919091,2669
2149.755365,2869
2150.591224,2705
2151.426666,2583
2152.261692,2687
2153.096302,2582
2153.930497,2748
2154.764277,2519
2155.597641,2522
2156.43059,2833
2157.263124,2651
2158.095242,2186
2158.926946,2561
2159.758236,2653
2160.58911,2558
2161.41957,2289
2162.249616,2655
2163.079248,2498
2163.908465,2586
2164.737269,2759
2165.565658,2659
2166.393634,2509
2167.221196,2545
2168.048345,2543
2168.87508,2555
2169.701402,2268
2170.527311,2526
2171.352807,2271
2172.177891,2713
2173.002561,2768
2173.826819,1984
2174.650664,2411
2175.474097,2320
2176.297117,2548
2177.119726,2276
2177.941922,2466
2178.763707,2716
2179.58508,2194
2180.406041,2522
2181.22659,2304
2182.046729,2591
2182.866456,2136
2183.685771,2273
2184.504676,2219
2185.32317,2476
2186.141253,2194
2186.958925,2252
2187.776187,1987
2188.593038,2173
2189.409479,2260
2190.22551,2419
2191.041131,2162
2191.856342,2235
2192.671143,2224
2193.485534,2144
2194.299516,2328
2195.113088,2339
2195.926251,2150
2196.739005,1916
2197.551349,2170
2198.363285,2160
2199.174812,1968
2199.98593,2263
2200.796639,2054
2201.60694,2143
2202.416832,2170
2203.226317,2084
2204.035393,1985
2204.844061,2057
2205.652321,2017
2206.460173,1713
2207.267618,1992
2208.074655,2038
2208.881285,1939
2209.687507,2079
2210.493322,1985
2211.29873,2046
2212.103732,2013
2212.908326,1905
2213.712513,1886
2214.516294,1740
2215.319669,1755
2216.122637,1618
2216.925199,1688
2217.727355,2003
2218.529105,1694
2219.330449,1873
2220.131387,2119
2220.931919,1746
2221.732046,1682
2222.531768,1941
2223.331084,1771
2224.129995,1902
2224.928501,1979
2225.726602,1773
2226.524298,1684
2227.321589,1721
2228.118476,1793
2228.914959,1669
2229.711037,1736
2230.50671,1728
2231.30198,1680
2232.096846,1821
2232.891307,1622
2233.685365,1560
2234.479019,1552
2235.27227,1962
2236.065117,1652
2236.857561,1805
2237.649602,1672
2238.441239,1692
2239.232474,1887
2240.023306,1580
2240.813735,1747
2241.603761,1980
2242.393385,1642
2243.182607,1586
2243.971426,1686
2244.759843,1786
2245.547858,1650
2246.335471,1599
2247.122682,1579
2247.909492,1577
2248.6959,1609
2249.481906,1699
2250.267511,1386
2251.052715,1472
2251.837518,1617
2252.621919,1424
2253.40592,1592
2254.18952,1489
2254.972719,1490
2255.755518,1468
2256.537916,1346
2257.319914,1620
2258.101512,1497
2258.88271,1445
2259.663507,1446
2260.443905,1541
2261.223903,1430
2262.003501,1520
2262.7827,1400
2263.561499,1465
2264.339899,1437
2265.1179,1381
2265.895501,1396
2266.672704,928
2267.449508,1435
2268.225913,1441
2269.001919,1500
2269.777527,1158
2270.552737,1156
2271.327548,1734
2272.101961,1418
2272.875975,1336
2273.649592,1387
2274.422811,1246
2275.195632,1331
2275.968056,1203
2276.740082,1446
2277.511711,1186
2278.282942,1109
2279.053776,1258
2279.824213,1355
2280.594253,1253
2281.363897,1517
2282.133143,1203
2282.901993,1171
2283.670446,1149
2284.438503,1220
2285.206164,1095
2285.973428,1468
2286.740296,1347
2287.506769,1393
2288.272845,1302
2289.038526,1340
2289.803811,1028
2290.5687,1083
2291.333194,1448
2292.097293,1169
2292.860997,1218
2293.624305,1088
2294.387219,1203
2295.149737,1384
2295.911861,1172
2296.67359,1131
2297.434925,1450
2298.195865,969
2298.956411,1178
2299.716562,1102
2300.47632,1064
2301.235683,1437
2301.994653,1118
2302.753229,943
2303.511411,1165
2304.269199,1108
2305.026594,1238
2305.783596,1293
2306.540204,1107
2307.29642,1237
2308.052242,1224
2308.807671,1151
2309.562708,967
2310.317351,784
2311.071603,1122
2311.825461,1118
2312.578928,1016
2313.332002,1206
2314.084684,998
2314.836973,1183
2315.588871,1103
2316.340377,1004
2317.091491,1061
2317.842214,989
2318.592545,984
2319.342485,967
2320.092033,1006
2320.84119,826
2321.589956,1239
2322.338331,816
2323.086315,1109
2323.833908,969
2324.581111,1367
2325.327923,1048
2326.074345,1084
2326.820376,976
2327.566017,1133
2328.311268,969
2329.056129,1052
2329.800599,1124
2330.54468,1340
2331.288372,1225
2332.031673,623
2332.774585,1278
2333.517108,896
2334.259242,1152
2335.000986,1004
2335.742341,1050
2336.483307,685
2337.223884,974
2337.964073,1034
2338.703872,1078
2339.443283,879
2340.182306,1038
2340.92094,911
2341.659187,973
2342.397044,951
2343.134514,1157
2343.871596,565
2344.60829,795
2345.344597,884
2346.080515,971
2346.816046,765
2347.55119,1039
2348.285946,777
2349.020316,1158
2349.754298,555
2350.487893,629
2351.221101,1102
2351.953922,826
2352.686356,987
2353.418404,506
2354.150066,776
2354.881341,1097
2355.61223,519
2356.342732,952
2357.072849,663
2357.802579,1206
2358.531924,945
2359.260883,864
2359.989456,982
2360.717643,748
2361.445445,953
2362.172862,876
2362.899893,892
2363.626539,751
2364.352801,570
2365.078677,629
2365.804168,648
2366.529275,1012
2367.253996,664
2367.978334,915
2368.702286,840
2369.425855,1020
2370.149039,1102
2370.871839,550
2371.594255,903
2372.316287,900
2373.037935,886
2373.7592,481
2374.48008,771
2375.200578,933
2375.920691,512
2376.640422,725
2377.359769,847
2378.078733,782
2378.797314,824
2379.515511,706
2380.233327,614
2380.950759,635
2381.667808,919
2382.384476,526
2383.10076,433
2383.816663,739
2384.532183,668
2385.24732,776
2385.962076,445
2386.67645,318
2387.390442,815
2388.104052,634
2388.817281,600
2389.530128,528
2390.242593,667
2390.954677,571
2391.66638,663
2392.377702,636
2393.088643,582
2393.799202,630
2394.509381,675
2395.219179,549
2395.928596,320
2396.637633,681
2397.346289,517
2398.054565,444
2398.762461,540
2399.469976,426
2400.177111,510
2400.883867,805
2401.590242,518
2402.296238,318
2403.001854,427
2403.70709,259
2404.411947,470
2405.116424,305
2405.820522,313
2406.524241,407
2407.227581,517
2407.930542,413
2408.633123,389
2409.335326,499
2410.037151,397
