Frequent,Density
-31.722347,17193
-29.886687,19745
-28.051868,22438
-26.217889,25694
-24.384749,30503
-22.552448,34855
-20.720985,39071
-18.890361,44869
-17.060575,37412
-15.231626,48308
-13.403514,43068
-11.576239,47654
-9.749799,47701
-7.924195,45696
-6.099426,37482
-4.275492,37192
-2.452392,41259
-0.630127,36951
1.191306,34420
3.011906,33281
4.831672,38356
6.650607,41236
8.46871,43671
10.285982,35636
12.102423,34183
13.918034,31328
15.732815,28667
17.546766,28152
19.359888,26574
21.172181,22766
22.983647,17992
24.794284,16224
26.604094,15685
28.413077,15367
30.221233,13231
32.028563,10186
33.835068,8109
35.640747,7065
37.445602,6862
39.249632,6032
41.052838,5824
42.855221,5537
44.656781,5627
46.457517,5361
48.257432,5188
50.056525,4825
51.854796,5239
53.652246,4524
55.448876,4565
57.244685,4578
59.039675,4407
60.833846,4982
62.627197,4903
64.41973,4957
66.211446,5212
68.002343,5194
69.792423,5412
71.581687,5964
73.370134,6555
75.157765,6695
76.944581,7319
78.730581,7732
80.515767,8586
82.300139,9442
84.083697,10640
85.866441,11604
87.648372,12440
89.429491,14167
91.209797,16147
92.989292,17435
94.767976,20137
96.545848,23666
98.32291,27538
100.099162,33178
101.874604,28484
103.649237,32732
105.423061,32587
107.196077,37549
108.968284,36239
110.739684,35428
112.510277,33682
114.280063,33228
116.049042,32759
117.817216,36750
119.584584,43620
121.351147,38967
123.116905,37394
124.881859,38508
126.646009,29497
128.409356,42340
130.171899,41242
131.93364,38837
133.694578,28132
135.454715,35157
137.21405,34104
138.972584,30063
140.730317,43979
142.48725,37060
144.243384,26627
145.998718,35780
147.753252,30038
149.506989,35734
151.259927,37270
153.012067,43426
154.76341,33746
156.513956,40637
158.263705,36445
160.012659,37445
161.760816,31125
163.508178,37097
165.254745,34375
167.000518,37563
168.745496,38975
170.489681,36241
172.233072,36525
173.975671,43302
175.717476,28912
177.45849,37810
179.198712,30823
180.938142,36665
182.676782,31037
184.414631,37646
186.15169,34707
187.887959,29972
189.623439,40531
191.35813,31625
193.092032,35829
194.825147,34454
196.557473,33898
198.289012,35926
200.019764,33729
201.74973,32093
203.478909,36295
205.207303,36519
206.934911,38175
208.661735,39023
210.387773,33699
212.113028,31820
213.837499,31700
215.561186,34942
217.28409,35276
219.006212,33244
220.727552,33894
222.44811,38216
224.167886,37739
225.886881,33916
227.605096,35492
229.32253,32591
231.039185,32516
232.75506,30980
234.470156,24618
236.184473,33522
237.898012,29642
239.610773,29862
241.322757,37796
243.033964,36903
244.744393,29719
246.454047,34869
248.162924,32113
249.871026,32230
251.578353,34966
253.284905,31684
254.990683,40829
256.695686,32797
258.399916,35933
260.103373,37025
261.806057,36578
263.507968,39619
265.209107,33889
266.909475,32525
268.609071,33713
270.307897,29297
272.005952,34772
273.703236,35499
275.399751,34351
277.095497,33065
278.790473,38959
280.484681,31708
282.178121,34200
283.870793,39072
285.562697,31119
287.253835,40848
288.944205,39150
290.633809,31248
292.322648,32662
294.010721,36650
295.698028,38928
297.384571,40265
299.070349,38558
300.755364,39783
302.439614,35321
304.123102,35234
305.805826,37587
307.487788,36061
309.168988,35672
310.849426,40327
312.529103,33351
314.208018,33192
315.886173,23417
317.563568,36550
319.240203,37744
320.916079,40354
322.591195,36810
324.265552,38965
325.939151,35227
327.611993,35634
329.284076,35887
330.955402,36793
332.625972,42437
334.295785,37514
335.964841,34781
337.633142,32370
339.300688,38581
340.967479,30889
342.633515,38509
344.298796,36201
345.963324,36999
347.627098,35737
349.29012,40687
350.952388,36209
352.613904,37695
354.274668,34752
355.93468,34293
357.593941,38566
359.252451,38701
360.910211,31920
362.56722,37068
364.22348,33701
365.87899,31031
367.533751,41171
369.187763,35826
370.841027,34124
372.493543,37245
374.145311,42526
375.796332,38066
377.446607,23353
379.096134,42666
380.744916,34953
382.392952,31843
384.040242,38061
385.686787,47011
387.332588,37247
388.977645,40219
390.621957,36802
392.265526,42269
393.908351,31772
395.550434,40644
397.191775,38168
398.832373,29475
400.472229,39833
402.111344,43502
403.749718,43514
405.387351,39598
407.024244,30846
408.660397,38359
410.295811,40753
411.930485,41727
413.56442,40389
415.197617,48085
416.830076,26714
418.461796,41319
420.09278,40702
421.723026,37491
423.352536,30377
424.981309,32803
426.609346,38224
428.236648,36291
429.863214,41954
431.489046,44319
433.114143,30424
434.738505,40930
436.362134,33532
437.98503,32371
439.607192,36296
441.228621,33730
442.849318,39105
444.469283,31804
446.088516,38058
447.707018,33040
449.324789,28927
450.941829,36061
452.558139,32660
454.173719,39071
455.78857,7750
457.402691,37076
459.016083,38951
460.628747,38696
462.240682,39810
463.85189,39799
465.46237,36896
467.072124,39798
468.68115,32090
470.28945,40145
471.897024,34218
473.503872,34530
475.109995,40331
476.715393,35887
478.320066,40759
479.924015,34957
481.52724,37085
483.129741,36072
484.731519,33462
486.332575,39278
487.932907,27949
489.532517,37769
491.131406,31410
492.729573,31517
494.327019,37265
495.923744,37499
497.519748,29367
499.115033,35821
500.709597,39641
502.303442,38649
503.896568,37080
505.488976,35520
507.080665,38969
508.671635,38077
510.261889,29971
511.851424,36916
513.440243,33444
515.028345,38823
516.615731,39795
518.202401,37514
519.788355,35710
521.373593,42462
522.958117,36616
524.541926,29910
526.125021,36729
527.707402,30865
529.28907,37389
530.870024,25744
532.450265,31199
534.029794,35841
535.60861,35019
537.186715,42383
538.764108,32820
540.340789,30572
541.91676,39333
543.492021,39824
545.066571,33630
546.640411,35712
548.213542,32540
549.785964,31717
551.357676,40402
552.928681,35779
554.498977,44800
556.068565,32820
557.637446,41491
559.20562,44341
560.773087,40630
562.339847,36532
563.905901,33970
565.47125,32696
567.035893,31839
568.599831,32765
570.163064,37454
571.725593,36601
573.287417,38224
574.848538,41954
576.408955,35895
577.968669,34069
579.52768,36555
581.085989,31916
582.643596,39433
584.200501,37550
585.756704,32947
587.312207,42514
588.867008,39324
590.42111,39475
591.974511,34481
593.527212,35616
595.079214,31139
596.630516,39382
598.18112,39978
599.731025,25091
601.280232,36842
602.828742,39394
604.376554,37271
605.923668,39187
607.470086,33412
609.015808,41989
610.560833,36747
612.105162,39216
613.648796,36288
615.191735,35258
616.733979,33721
618.275528,42415
619.816383,33102
621.356544,31746
622.896012,37479
624.434787,38889
625.972868,33834
627.510257,34061
629.046954,39213
630.582959,33586
632.118272,33599
633.652894,41497
635.186825,37713
636.720066,38093
638.252616,33669
639.784476,40636
641.315647,31731
642.846128,30023
644.37592,33337
645.905024,33377
647.433439,28500
648.961166,39756
650.488206,39487
652.014558,31505
653.540223,32801
655.065201,35986
656.589493,37934
658.113099,35726
659.636019,36085
661.158253,35307
662.679803,37729
664.200668,36325
665.720848,37584
667.240344,37706
668.759156,35626
670.277284,34679
671.79473,36951
673.311492,35868
674.827572,36746
676.34297,36528
677.857686,34136
679.37172,36574
680.885072,28734
682.397744,34184
683.909735,35063
685.421046,34252
686.931677,35556
688.441628,31219
689.950899,35208
691.459492,35208
692.967406,35375
694.474641,34648
695.981198,35164
697.487078,17637
698.992279,35074
700.496804,34750
702.000652,34512
703.503823,29969
705.006318,30661
706.508137,34668
708.00928,32889
709.509748,34706
711.009541,34247
712.50866,34385
714.007104,31784
715.504874,30621
717.00197,33970
718.498393,33758
719.994142,34117
721.489219,33554
722.983624,33670
724.477356,33501
725.970416,30152
727.462805,33029
728.954522,32685
730.445569,26254
731.935944,33113
733.42565,32897
734.914685,32753
736.403051,32859
737.890748,33071
739.377775,32487
740.864133,28457
742.349823,32531
743.834845,32134
745.319199,32518
746.802886,32066
748.285905,32508
749.768257,32030
751.249943,32510
752.730962,32258
754.211315,32033
755.691003,32057
757.170025,31825
758.648382,29999
760.126075,31570
761.603102,31521
763.079466,31793
764.555166,31349
766.030202,31309
767.504575,31036
768.978285,31523
770.451332,31087
771.923717,31215
773.39544,31205
774.866501,31201
776.3369,31114
777.806639,30568
779.275716,30772
780.744134,30403
782.21189,30151
783.678987,29929
785.145425,29447
786.611203,29754
788.076322,29662
789.540782,29078
791.004583,28921
792.467727,28534
793.930213,28585
795.392041,27957
796.853212,28076
798.313726,27921
799.773584,27720
801.232785,27543
802.69133,27243
804.14922,27262
805.606454,27103
807.063032,27035
808.518956,26756
809.974226,26448
811.428841,26400
812.882802,26444
814.33611,26108
815.788764,26420
817.240766,26041
818.692114,25762
820.14281,25570
821.592854,25768
823.042246,25874
824.490986,25435
825.939075,25306
827.386514,25581
828.833301,25113
830.279438,25349
831.724925,24688
833.169762,25134
834.61395,24963
836.057488,25007
837.500378,25129
838.942619,25201
840.384212,25129
841.825156,25080
843.265453,25120
844.705102,17689
846.144105,25359
847.58246,25165
849.020169,25032
850.457231,24789
851.893648,24423
853.329418,24780
854.764544,24279
856.199024,24250
857.632859,24451
859.06605,23898
860.498597,24067
861.9305,24108
863.361759,23952
864.792374,23656
866.222347,23015
867.651677,22710
869.080364,23164
870.508409,22851
871.935812,22595
873.362574,22606
874.788694,22310
876.214173,22281
877.639011,22544
879.063209,21936
880.486766,22028
881.909684,22043
883.331962,21643
884.753601,21899
886.174601,22067
887.594961,21828
889.014684,22114
890.433768,22046
891.852214,22312
893.270023,22178
894.687194,22449
896.103729,22370
897.519626,22146
898.934887,22415
900.349512,22441
901.763501,22057
903.176854,21766
904.589572,21599
906.001655,21112
907.413103,21427
908.823917,21187
910.234096,20977
911.643642,21054
913.052554,21194
914.460832,21014
915.868477,21136
917.27549,21109
918.68187,20482
920.087618,20546
921.492734,20172
922.897218,19981
924.301071,20023
925.704292,19352
927.106883,18915
928.508844,18857
929.910174,18575
931.310874,18294
932.710944,18414
934.110385,17988
935.509197,17843
936.907379,17912
938.304934,17772
939.70186,17533
941.098158,17322
942.493828,17468
943.88887,17276
945.283286,17392
946.677075,17215
948.070236,17090
949.462772,16761
950.854681,16925
952.245965,16956
953.636623,16986
955.026656,16830
956.416064,16835
957.804847,16991
959.193006,16495
960.58054,16800
961.967451,16836
963.353738,16254
964.739402,16668
966.124442,16552
967.50886,16507
968.892656,16489
970.275829,16343
971.65838,16465
973.04031,16391
974.421618,16336
975.802305,16197
977.182371,16498
978.561816,16411
979.940641,16516
981.318846,16427
982.696432,16403
984.073398,16254
985.449744,16364
986.825472,16428
988.200581,16472
989.575072,16762
990.948944,16788
992.322199,16798
993.694836,16702
995.066855,16729
996.438258,16949
997.809044,16596
999.179213,17112
1000.548766,16530
1001.917703,16927
1003.286024,16643
1004.65373,16782
1006.020821,17225
1007.387297,17206
1008.753158,17710
1010.118405,17354
1011.483038,17922
1012.847057,17929
1014.210462,17773
1015.573254,17940
1016.935433,18150
1018.296999,17847
1019.657953,17807
1021.018295,17801
1022.378025,17795
1023.737143,17759
1025.095649,17744
1026.453544,17670
1027.810829,17573
1029.167503,17536
1030.523566,17566
1031.87902,17988
1033.233863,17812
1034.588097,17973
1035.941722,18231
1037.294738,17970
1038.647145,18237
1039.998943,18174
1041.350133,18041
1042.700716,18410
1044.05069,18188
1045.400057,17941
1046.748817,18222
1048.09697,18207
1049.444516,18278
1050.791456,18522
1052.13779,18705
1053.483518,18749
1054.82864,19024
1056.173157,19272
1057.517069,19607
1058.860376,19991
1060.203079,20161
1061.545177,20306
1062.886671,20563
1064.227562,20326
1065.567848,20036
1066.907532,20053
1068.246613,19581
1069.585091,19578
1070.922966,18974
1072.260239,19078
1073.596911,18709
1074.93298,18853
1076.268448,18635
1077.603315,18104
1078.937581,18552
1080.271247,18205
1081.604312,17847
1082.936776,17384
1084.268641,17299
1085.599907,16692
1086.930573,16607
1088.260639,16512
1089.590107,16664
1090.918977,16596
1092.247248,16833
1093.574921,16350
1094.901996,16987
1096.228474,16807
1097.554354,16770
1098.879637,17139
1100.204323,17360
1101.528413,17450
1102.851907,17676
1104.174804,17700
1105.497106,17966
1106.818812,18194
1108.139923,18046
1109.460439,18091
1110.78036,18388
1112.099687,18737
1113.41842,18463
1114.736558,19124
1116.054103,19200
1117.371054,19378
1118.687412,19845
1120.003177,19664
1121.318349,20080
1122.632929,20227
1123.946916,20226
1125.260312,20359
1126.573116,19833
1127.885328,19773
1129.196949,19478
1130.507979,19041
1131.818419,19042
1133.128268,18777
1134.437527,18667
1135.746195,17853
1137.054275,17409
1138.361764,16834
1139.668665,16579
1140.974976,16294
1142.280699,15845
1143.585833,15713
1144.890379,15616
1146.194337,15440
1147.497708,15288
1148.800491,15105
1150.102687,14895
1151.404295,14979
1152.705318,14837
1154.005753,15178
1155.305603,15207
1156.604866,14938
1157.903544,14704
1159.201636,14861
1160.499143,14310
1161.796065,14390
1163.092402,14423
1164.388155,14120
1165.683324,13873
1166.977908,13786
1168.271909,13535
1169.565326,13464
1170.85816,13852
1172.150411,13439
1173.44208,13191
1174.733165,13238
1176.023669,13464
1177.31359,13236
1178.60293,13298
1179.891688,13270
1181.179865,13101
1182.467461,13232
1183.754476,12909
1185.04091,13196
1186.326765,13097
1187.612039,13171
1188.896733,13027
1190.180848,13327
1191.464383,13231
1192.747339,13009
1194.029717,13128
1195.311515,13498
1196.592736,13220
1197.873378,13530
1199.153442,13423
1200.432929,13513
1201.711838,13734
1202.990171,13463
1204.267926,13306
1205.545105,13426
1206.821707,13675
1208.097733,13515
1209.373183,13558
1210.648057,13419
1211.922356,13354
1213.196079,13114
1214.469228,13370
1215.741802,13115
1217.013801,13168
1218.285226,13255
1219.556077,13097
1220.826355,13371
1222.096058,13266
1223.365189,12998
1224.633746,13118
1225.90173,12895
1227.169142,12844
1228.435982,13090
1229.702249,12951
1230.967945,13125
1232.233069,12840
1233.497621,13007
1234.761602,12837
1236.025013,13128
1237.287852,12731
1238.550121,12733
1239.81182,12836
1241.072949,12661
1242.333509,12912
1243.593498,12752
1244.852919,12739
1246.11177,12506
1247.370053,12963
1248.627767,12938
1249.884912,12862
1251.14149,12924
1252.397499,12724
1253.652942,12864
1254.907816,12901
1256.162124,12765
1257.415864,13009
1258.669038,13148
1259.921646,13185
1261.173687,12529
1262.425162,12613
1263.676071,13227
1264.926415,13497
1266.176194,13345
1267.425408,13617
1268.674056,13191
1269.92214,13382
1271.16966,13381
1272.416616,13147
1273.663008,13393
1274.908836,13092
1276.1541,12860
1277.398802,12731
1278.64294,12772
1279.886516,12759
1281.129529,12213
1282.37198,12534
1283.613869,12700
1284.855196,12534
1286.095962,12710
1287.336166,12817
1288.575809,12321
1289.814891,12346
1291.053413,12507
1292.291374,12189
1293.528775,12045
1294.765616,12123
1296.001897,12259
1297.237618,12358
1298.472781,12445
1299.707384,12325
1300.941428,12192
1302.174914,12348
1303.407842,12106
1304.640211,12419
1305.872022,12383
1307.103276,12378
1308.333972,12387
1309.564111,12543
1310.793693,12806
1312.022719,12772
1313.251187,12581
1314.4791,12998
1315.706456,13064
1316.933256,13021
1318.159501,12591
1319.38519,12921
1320.610324,13160
1321.834903,13029
1323.058928,13251
1324.282398,13300
1325.505313,13291
1326.727675,13295
1327.949482,13313
1329.170736,13488
1330.391437,13412
1331.611584,13322
1332.831179,13164
1334.050221,13221
1335.26871,13257
1336.486647,13249
1337.704032,13113
1338.920865,13402
1340.137147,12939
1341.352877,13195
1342.568056,12933
1343.782684,12669
1344.996761,12986
1346.210288,12794
1347.423265,13004
1348.635691,12971
1349.847568,12823
1351.058895,12747
1352.269673,13091
1353.479901,12841
1354.689581,13006
1355.898712,13052
1357.107294,13086
1358.315329,13216
1359.522815,13175
1360.729753,13384
1361.936144,13342
1363.141987,13286
1364.347283,13393
1365.552032,13342
1366.756235,13251
1367.959891,13339
1369.163,13286
1370.365564,13567
1371.567582,13010
1372.769054,13338
1373.96998,13116
1375.170362,13216
1376.370198,13104
1377.56949,12908
1378.768237,12849
1379.96644,12847
1381.164099,12530
1382.361214,12786
1383.557785,12608
1384.753813,12595
1385.949297,12460
1387.144239,12563
1388.338637,12421
1389.532493,12142
1390.725807,12096
1391.918579,11967
1393.110808,12030
1394.302496,12023
1395.493643,11961
1396.684248,11597
1397.874312,11490
1399.063835,11459
1400.252818,11518
1401.44126,11241
1402.629162,11099
1403.816524,10951
1405.003346,11192
1406.189629,10776
1407.375372,10999
1408.560576,10986
1409.745241,10892
1410.929368,11228
1412.112956,10845
1413.296006,10894
1414.478517,10735
1415.660491,10785
1416.841927,10654
1418.022826,10863
1419.203188,10869
1420.383012,10604
1421.5623,10643
1422.741051,10784
1423.919266,10638
1425.096945,10539
1426.274088,10728
1427.450695,10756
1428.626766,10873
1429.802302,10430
1430.977303,10654
1432.15177,10626
1433.325701,10373
1434.499098,10799
1435.671961,10645
1436.84429,10438
1438.016085,10700
1439.187347,10641
1440.358075,10704
1441.528269,10625
1442.697931,10603
1443.86706,10521
1445.035657,10597
1446.203721,10573
1447.371253,10489
1448.538253,10652
1449.704721,10725
1450.870658,10821
1452.036064,10763
1453.200938,10927
1454.365282,10703
1455.529094,11207
1456.692377,11063
1457.855129,11120
1459.017351,11168
1460.179043,10988
1461.340206,10986
1462.500839,11212
1463.660943,10890
1464.820517,10777
1465.979563,10465
1467.138081,-55
1468.29607,10363
1469.453531,10386
1470.610464,10257
1471.766869,9871
1472.922746,9829
1474.078096,9582
1475.232919,9545
1476.387215,9281
1477.540985,9856
1478.694227,9307
1479.846944,9551
1480.999134,9273
1482.150798,9465
1483.301937,8934
1484.45255,9110
1485.602637,9050
1486.7522,9093
1487.901238,9289
1489.049751,9263
1490.197739,9024
1491.345203,8998
1492.492144,8951
1493.63856,9047
1494.784452,9368
1495.929821,9410
1497.074667,9301
1498.21899,9510
1499.36279,9076
1500.506067,9211
1501.648821,8993
1502.791054,9095
1503.932764,9055
1505.073953,9311
1506.21462,9226
1507.354765,9135
1508.494389,9512
1509.633492,9388
1510.772074,9526
1511.910136,9180
1513.047677,9170
1514.184698,9228
1515.321198,9446
1516.457179,9222
1517.592641,9485
1518.727582,9340
1519.862005,9301
1520.995909,9596
1522.129293,9203
1523.262159,9685
1524.394507,9373
1525.526336,9275
1526.657647,9372
1527.788441,9466
1528.918717,9589
1530.048475,9711
1531.177716,9848
1532.30644,9801
1533.434647,9756
1534.562338,9697
1535.689512,9634
1536.816169,10091
1537.942311,9873
1539.067937,10087
1540.193047,10035
1541.317642,10003
1542.441721,10084
1543.565285,10127
1544.688335,10080
1545.81087,10100
1546.93289,10124
1548.054396,10089
1549.175388,10102
1550.295866,10273
1551.41583,10322
1552.535281,10360
1553.654218,10275
1554.772643,10410
1555.890554,10571
1557.007953,10369
1558.124839,10630
1559.241213,10774
1560.357075,11066
1561.472424,10572
1562.587262,10817
1563.701589,10832
1564.815404,10633
1565.928708,10863
1567.041501,10838
1568.153783,11205
1569.265555,10864
1570.376816,11019
1571.487567,10730
1572.597808,11024
1573.707539,11289
1574.816761,11202
1575.925473,11410
1577.033676,11605
1578.14137,11243
1579.248555,11523
1580.355231,11330
1581.461399,11779
1582.567059,11925
1583.672211,11760
1584.776854,12164
1585.88099,12417
1586.984619,12114
1588.08774,12379
1589.190354,12158
1590.292462,12455
1591.394062,12705
1592.495156,12493
1593.595744,12726
1594.695825,12954
1595.795401,12530
1596.89447,13315
1597.993034,12955
1599.091093,13155
1600.188647,13417
1601.285695,13525
1602.382239,13616
1603.478278,13790
1604.573812,14024
1605.668843,13837
1606.763369,14027
1607.857391,14295
1608.95091,14538
1610.043925,14717
1611.136437,14975
1612.228446,14550
1613.319952,15260
1614.410955,15148
1615.501455,15247
1616.591453,15368
1617.680949,15420
1618.769943,15640
1619.858435,15568
1620.946426,15698
1622.033915,15580
1623.120903,16158
1624.20739,16027
1625.293376,16211
1626.378861,16140
1627.463845,16456
1628.54833,16328
1629.632314,16372
1630.715799,16674
1631.798783,16454
1632.881268,16550
1633.963254,16443
1635.04474,16653
1636.125728,16617
1637.206216,16614
1638.286206,16534
1639.365698,16594
1640.444691,16385
1641.523187,16561
1642.601184,16232
1643.678683,16599
1644.755686,16449
1645.83219,16339
1646.908198,16035
1647.983708,16080
1649.058722,16226
1650.133239,16045
1651.20726,16126
1652.280785,16006
1653.353813,15723
1654.426346,15699
1655.498383,15695
1656.569924,15555
1657.64097,15592
1658.711521,15510
1659.781577,15282
1660.851139,14860
1661.920205,14938
1662.988777,14946
1664.056855,14730
1665.124439,14498
1666.191529,14479
1667.258126,14219
1668.324229,14065
1669.389838,13876
1670.454955,14025
1671.519578,13378
1672.583709,13510
1673.647347,13183
1674.710493,12757
1675.773147,12775
1676.835308,12287
1677.896978,12544
1678.958155,12268
1680.018842,12045
1681.079037,11862
1682.138741,11704
1683.197954,11308
1684.256676,11215
1685.314908,11035
1686.372649,11119
1687.4299,11023
1688.48666,10381
1689.542931,10188
1690.598713,10162
1691.654004,10284
1692.708807,10126
1693.76312,10123
1694.816944,9792
1695.870279,9535
1696.923126,9503
1697.975484,9572
1699.027354,9242
1700.078736,9157
1701.12963,9070
1702.180036,8808
1703.229955,8851
1704.279386,8687
1705.32833,8597
1706.376787,8170
1707.424757,8250
1708.47224,8416
1709.519237,8152
1710.565748,8073
1711.611772,7695
1712.65731,7820
1713.702363,7772
1714.74693,7628
1715.791011,7605
1716.834608,7420
1717.877719,7597
1718.920345,7340
1719.962486,7177
1721.004143,7081
1722.045316,6948
1723.086004,6939
1724.126208,6767
1725.165929,7035
1726.205165,6695
1727.243918,6404
1728.282188,6628
1729.319975,6374
1730.357278,6412
1731.394099,6588
1732.430437,6103
1733.466293,6020
1734.501666,5684
1735.536557,5807
1736.570967,6010
1737.604894,6108
1738.63834,5726
1739.671304,5869
1740.703787,5604
1741.735789,5490
1742.767311,5736
1743.798351,5949
1744.828911,5295
1745.85899,5315
1746.888589,5515
1747.917708,5294
1748.946348,5229
1749.974507,5186
1751.002187,5178
1752.029388,5264
1753.056109,5269
1754.082351,5145
1755.108115,4884
1756.1334,4911
1757.158206,5179
1758.182534,4889
1759.206384,4597
1760.229755,4607
1761.252649,4866
1762.275065,4814
1763.297004,4591
1764.318466,4673
1765.33945,4576
1766.359957,4580
1767.379988,4698
1768.399542,4496
1769.418619,4367
1770.43722,4406
1771.455345,4335
1772.472994,4440
1773.490167,4361
1774.506865,4166
1775.523087,3774
1776.538834,4182
1777.554106,3881
1778.568902,3943
1779.583224,4203
1780.597072,4346
1781.610444,3963
1782.623343,4157
1783.635768,3780
1784.647718,4008
1785.659195,4121
1786.670198,4054
1787.680728,3713
1788.690784,3952
1789.700368,3810
1790.709478,3879
1791.718116,3750
1792.726281,3825
1793.733973,3722
1794.741194,3874
1795.747942,3818
1796.754218,3728
1797.760023,3551
1798.765356,3798
1799.770217,3726
1800.774607,3690
1801.778526,3726
1802.781974,3538
1803.784952,3589
1804.787458,3519
1805.789495,3871
1806.791061,3582
1807.792156,3593
1808.792782,3725
1809.792938,3718
1810.792625,3764
1811.791842,3705
1812.79059,3511
1813.788868,3453
1814.786678,3566
1815.784019,3526
1816.780891,3545
1817.777295,3882
1818.77323,3557
1819.768697,3436
1820.763697,3395
1821.758228,3427
1822.752292,3476
1823.745888,3519
1824.739017,3349
1825.731679,3280
1826.723874,3418
1827.715602,3480
1828.706863,3576
1829.697658,3547
1830.687986,3607
1831.677848,3375
1832.667244,3404
1833.656175,3589
1834.644639,3636
1835.632638,3414
1836.620172,3286
1837.60724,3416
1838.593844,3581
1839.579982,3413
1840.565656,3416
1841.550865,3204
1842.53561,3442
1843.51989,3183
1844.503706,3555
1845.487059,3397
1846.469947,3155
1847.452372,3167
1848.434334,3530
1849.415832,3500
1850.396867,3293
1851.377439,3386
1852.357549,3412
1853.337195,3112
1854.31638,3416
1855.295101,3335
1856.273361,3368
1857.251159,3161
1858.228494,3244
1859.205369,3139
1860.181781,3192
1861.157732,3338
1862.133222,3287
1863.108251,3022
1864.082819,3010
1865.056926,2732
1866.030573,3208
1867.003759,3058
1867.976485,3129
1868.948751,3221
1869.920556,3026
1870.891902,3274
1871.862789,3259
1872.833216,3033
1873.803183,2927
1874.772691,3156
1875.741741,2947
1876.710331,3374
1877.678463,3185
1878.646136,3074
1879.613351,3046
1880.580108,2912
1881.546406,3074
1882.512247,3153
1883.47763,3217
1884.442555,2971
1885.407023,2823
1886.371033,3020
1887.334586,3099
1888.297683,2801
1889.260322,2858
1890.222505,3276
1891.184231,3035
1892.145501,2812
1893.106315,3091
1894.066673,2714
1895.026574,2634
1895.98602,2828
1896.945011,3215
1897.903546,2850
1898.861626,2956
1899.81925,3012
1900.77642,2951
1901.733135,2844
1902.689395,2871
1903.6452,3024
1904.600551,2728
1905.555448,3068
1906.509891,2915
1907.46388,2792
1908.417416,3029
1909.370498,2939
1910.323126,2871
1911.275301,2942
1912.227023,2855
1913.178292,3139
1914.129108,2840
1915.079471,2878
1916.029382,3091
1916.97884,3092
1917.927846,3172
1918.876401,3103
1919.824503,3039
1920.772153,2794
1921.719352,2830
1922.6661,2991
1923.612396,3084
1924.558241,3056
1925.503635,2889
1926.448578,2896
1927.39307,2822
1928.337112,3033
1929.280703,3196
1930.223844,2677
1931.166535,3082
1932.108776,2994
1933.050568,2993
1933.991909,3105
1934.932801,3105
1935.873244,2994
1936.813238,3201
1937.752782,2951
1938.691878,2917
1939.630525,3041
1940.568723,2776
1941.506473,3253
1942.443774,3126
1943.380627,3065
1944.317033,3017
1945.25299,3213
1946.1885,3195
1947.123562,2919
1948.058177,3281
1948.992344,3293
1949.926065,3039
1950.859338,2956
1951.792165,3118
1952.724545,2949
1953.656478,3113
1954.587965,2842
1955.519006,3160
1956.4496,2918
1957.379749,3149
1958.309452,3099
1959.238709,2912
1960.167521,2981
1961.095888,3092
1962.023809,3181
1962.951285,2960
1963.878317,3224
1964.804903,2905
1965.731045,3044
1966.656743,3287
1967.581996,2971
1968.506805,2933
1969.43117,3007
1970.355091,2877
1971.278568,3042
1972.201602,2986
1973.124192,3091
1974.046339,3050
1974.968043,3161
1975.889304,2866
1976.810122,3100
1977.730498,3390
1978.65043,2878
1979.569921,3029
1980.488969,3001
1981.407574,3090
1982.325738,3084
1983.24346,2794
1984.160741,3239
1985.077579,3113
1985.993977,3169
1986.909933,2992
1987.825448,3119
1988.740522,3184
1989.655155,3053
1990.569347,3087
1991.483099,3154
1992.396411,3162
1993.309282,2967
1994.221713,2989
1995.133704,3010
1996.045256,3028
1996.956367,3197
1997.867039,2854
1998.777272,2339
1999.687065,2998
2000.596419,3264
2001.505335,3175
2002.413811,3022
2003.321849,3104
2004.229448,3318
2005.136609,3228
2006.043331,3170
2006.949616,3624
2007.855462,2907
2008.760871,3040
2009.665841,3324
2010.570375,3169
2011.47447,3191
2012.378129,3314
2013.281351,3429
2014.184135,3126
2015.086483,3487
2015.988393,3278
2016.889868,3329
2017.790906,3025
2018.691507,3260
2019.591673,3472
2020.491402,3365
2021.390695,3125
2022.289553,3101
2023.187975,3227
2024.085962,3354
2024.983514,3221
2025.88063,3425
2026.777311,3551
2027.673557,3266
2028.569369,3177
2029.464746,3307
2030.359688,3239
2031.254197,2962
2032.148271,3311
2033.04191,3269
2033.935116,3140
2034.827889,3466
2035.720227,3438
2036.612132,3288
2037.503604,3287
2038.394642,3277
2039.285248,3318
2040.17542,3213
2041.06516,3028
2041.954466,3224
2042.843341,3275
2043.731783,3266
2044.619792,3129
2045.50737,3087
2046.394516,3560
2047.281229,3440
2048.167511,3577
2049.053362,2989
2049.938781,3364
2050.823768,3172
2051.708325,3277
2052.59245,3363
2053.476145,3195
2054.359409,3236
2055.242242,3362
2056.124645,3127
2057.006617,3238
2057.888159,3040
2058.769271,3433
2059.649953,3015
2060.530206,3222
2061.410028,3485
2062.289421,3443
2063.168385,3177
2064.046919,3038
2064.925025,3137
2065.802701,3067
2066.679949,3374
2067.556767,3407
2068.433157,3178
2069.309119,3451
2070.184652,3396
2071.059758,3321
2071.934435,3446
2072.808684,3026
2073.682505,3298
2074.555899,3044
2075.428865,3245
2076.301404,3457
2077.173516,3385
2078.0452,3259
2078.916458,3316
2079.787289,3249
2080.657693,3157
2081.52767,3369
2082.397221,3232
2083.266346,3428
2084.135044,3059
2085.003316,3215
2085.871163,3219
2086.738584,3335
2087.605579,3056
2088.472148,3154
2089.338292,3262
2090.204011,3162
2091.069305,3238
2091.934174,3391
2092.798618,3462
2093.662637,3183
2094.526231,3072
2095.389402,3176
2096.252147,3378
2097.114469,3387
2097.976366,3078
2098.83784,3485
2099.69889,3067
2100.559516,3298
2101.419719,3350
2102.279498,3124
2103.138854,3175
2103.997786,3272
2104.856296,3240
2105.714383,3161
2106.572047,3068
2107.429289,3242
2108.286108,3040
2109.142504,3211
2109.998479,3149
2110.854031,3152
2111.709161,3207
2112.56387,3356
2113.418156,3626
2114.272021,3285
2115.125465,2996
2115.978487,3060
2116.831089,3223
2117.683269,3090
2118.535028,3101
2119.386366,3353
2120.237284,3122
2121.087781,3322
2121.937857,3068
2122.787514,3267
2123.63675,3147
2124.485566,3071
2125.333962,2949
2126.181939,3089
2127.029496,2918
2127.876633,3186
2128.723351,2850
2129.569649,3193
2130.415529,2989
2131.260989,2816
2132.106031,3093
2132.950654,2991
2133.794858,2885
2134.638643,3037
2135.482011,2987
2136.32496,3031
2137.167491,2930
2138.009604,2907
2138.851299,2927
2139.692576,3000
2140.533436,2524
2141.373878,2644
2142.213903,2770
2143.05351,2908
2143.892701,2963
2144.731474,2907
2145.569831,2854
2146.407771,2834
2147.245294,2820
2148.082401,2630
2148.919091,2796
2149.755365,2897
2150.591224,2637
2151.426666,2807
2152.261692,2852
2153.096302,2817
2153.930497,2709
2154.764277,2599
2155.597641,2720
2156.43059,2497
2157.263124,3193
2158.095242,2759
2158.926946,2534
2159.758236,2256
2160.58911,2459
2161.41957,2699
2162.249616,2686
2163.079248,2792
2163.908465,2747
2164.737269,2904
2165.565658,2430
2166.393634,2647
2167.221196,2457
2168.048345,2654
2168.87508,2512
2169.701402,2576
2170.527311,2414
2171.352807,2465
2172.177891,2595
2173.002561,2494
2173.826819,2692
2174.650664,3037
2175.474097,2339
2176.297117,2582
2177.119726,2556
2177.941922,2834
2178.763707,2553
2179.58508,2330
2180.406041,2673
2181.22659,2562
2182.046729,2377
2182.866456,2651
2183.685771,2571
2184.504676,2601
2185.32317,2506
2186.141253,2483
2186.958925,2280
2187.776187,2362
2188.593038,2681
2189.409479,2442
2190.22551,2474
2191.041131,2479
2191.856342,2454
2192.671143,2315
2193.485534,2418
2194.299516,2511
2195.113088,2424
2195.926251,2578
2196.739005,2478
2197.551349,2183
2198.363285,2140
2199.174812,2306
2199.98593,2368
2200.796639,2359
2201.60694,2456
2202.416832,2241
2203.226317,2144
2204.035393,2017
2204.844061,2418
2205.652321,2381
2206.460173,2283
2207.267618,2135
2208.074655,2179
2208.881285,2327
2209.687507,2325
2210.493322,2140
2211.29873,2230
2212.103732,2132
2212.908326,1978
2213.712513,2247
2214.516294,2172
2215.319669,2154
2216.122637,1903
2216.925199,2007
2217.727355,2154
2218.529105,2268
2219.330449,2011
2220.131387,2060
2220.931919,2280
2221.732046,2038
2222.531768,2050
2223.331084,1808
2224.129995,2087
2224.928501,1888
2225.726602,1987
2226.524298,1817
2227.321589,1807
2228.118476,2272
2228.914959,1914
2229.711037,1592
2230.50671,1991
2231.30198,1802
2232.096846,1967
2232.891307,2077
2233.685365,1917
2234.479019,1916
2235.27227,2239
2236.065117,1906
2236.857561,1889
2237.649602,1987
2238.441239,1697
2239.232474,1936
2240.023306,1777
2240.813735,2083
2241.603761,1856
2242.393385,1751
2243.182607,1756
2243.971426,1943
2244.759843,1862
2245.547858,1868
2246.335471,1946
2247.122682,1902
2247.909492,1874
2248.6959,1701
2249.481906,1764
2250.267511,1559
2251.052715,1680
2251.837518,1684
2252.621919,1719
2253.40592,1744
2254.18952,1642
2254.972719,1805
2255.755518,1646
2256.537916,1570
2257.319914,1611
2258.101512,1595
2258.88271,1669
2259.663507,1499
2260.443905,1868
2261.223903,1830
2262.003501,1848
2262.7827,1673
2263.561499,1700
2264.339899,1407
2265.1179,1497
2265.895501,1766
2266.672704,1369
2267.449508,1632
2268.225913,1332
2269.001919,1593
2269.777527,1561
2270.552737,1573
2271.327548,1843
2272.101961,1351
2272.875975,1565
2273.649592,1523
2274.422811,1495
2275.195632,1658
2275.968056,1374
2276.740082,1521
2277.511711,1216
2278.282942,1282
2279.053776,1528
2279.824213,1636
2280.594253,1447
2281.363897,1556
2282.133143,1497
2282.901993,1539
2283.670446,1439
2284.438503,1314
2285.206164,1533
2285.973428,1201
2286.740296,1406
2287.506769,1484
2288.272845,1643
2289.038526,1247
2289.803811,1325
2290.5687,1169
2291.333194,1469
2292.097293,1376
2292.860997,1394
2293.624305,1659
2294.387219,1205
2295.149737,1759
2295.911861,1408
2296.67359,1163
2297.434925,1480
2298.195865,1133
2298.956411,1338
2299.716562,1493
2300.47632,1514
2301.235683,1236
2301.994653,1643
2302.753229,1067
2303.511411,1509
2304.269199,1238
2305.026594,1511
2305.783596,1318
2306.540204,1214
2307.29642,1411
2308.052242,1479
2308.807671,1118
2309.562708,1356
2310.317351,1327
2311.071603,1350
2311.825461,1226
2312.578928,1214
2313.332002,1287
2314.084684,1416
2314.836973,1220
2315.588871,1178
2316.340377,912
2317.091491,1222
2317.842214,1249
2318.592545,1379
2319.342485,1598
2320.092033,1092
2320.84119,1050
2321.589956,1189
2322.338331,1210
2323.086315,1153
2323.833908,1145
2324.581111,1270
2325.327923,1195
2326.074345,1216
2326.820376,1245
2327.566017,1361
2328.311268,963
2329.056129,1292
2329.800599,1404
2330.54468,1403
2331.288372,1275
2332.031673,1324
2332.774585,1455
2333.517108,1227
2334.259242,1244
2335.000986,1308
2335.742341,1111
2336.483307,1386
2337.223884,994
2337.964073,1334
2338.703872,875
2339.443283,1278
2340.182306,1257
2340.92094,1143
2341.659187,1107
2342.397044,1012
2343.134514,1300
2343.871596,1139
2344.60829,1002
2345.344597,958
2346.080515,1324
2346.816046,1229
2347.55119,1058
2348.285946,1077
2349.020316,1225
2349.754298,1213
2350.487893,1151
2351.221101,1060
2351.953922,981
2352.686356,1183
2353.418404,1089
2354.150066,898
2354.881341,1252
2355.61223,1307
2356.342732,926
2357.072849,1137
2357.802579,1314
2358.531924,564
2359.260883,948
2359.989456,1269
2360.717643,927
2361.445445,1041
2362.172862,912
2362.899893,1166
2363.626539,1303
2364.352801,944
2365.078677,957
2365.804168,1010
2366.529275,1115
2367.253996,1182
2367.978334,897
2368.702286,1229
2369.425855,1066
2370.149039,776
2370.871839,1154
2371.594255,1151
2372.316287,1243
2373.037935,1206
2373.7592,766
2374.48008,1175
2375.200578,934
2375.920691,1038
2376.640422,786
2377.359769,922
2378.078733,1100
2378.797314,840
2379.515511,859
2380.233327,891
2380.950759,684
2381.667808,1098
2382.384476,848
2383.10076,1044
2383.816663,856
2384.532183,951
2385.24732,873
2385.962076,838
2386.67645,912
2387.390442,796
2388.104052,776
2388.817281,967
2389.530128,876
2390.242593,861
2390.954677,953
2391.66638,639
2392.377702,748
2393.088643,693
2393.799202,715
2394.509381,735
2395.219179,848
2395.928596,860
2396.637633,579
2397.346289,660
2398.054565,648
2398.762461,543
2399.469976,683
2400.177111,566
2400.883867,800
2401.590242,857
2402.296238,618
2403.001854,868
2403.70709,311
2404.411947,452
2405.116424,561
2405.820522,526
2406.524241,647
2407.227581,880
2407.930542,750
2408.633123,609
2409.335326,605
2410.037151,558
