Frequent,Density
-31.722347,12083
-29.886687,13994
-28.051868,16611
-26.217889,18921
-24.384749,22834
-22.552448,26059
-20.720985,29962
-18.890361,34231
-17.060575,36602
-15.231626,44133
-13.403514,42304
-11.576239,47143
-9.749799,47349
-7.924195,45268
-6.099426,36810
-4.275492,36415
-2.452392,40939
-0.630127,36472
1.191306,33333
3.011906,32184
4.831672,37761
6.650607,40565
8.46871,32286
10.285982,26514
12.102423,23557
13.918034,21397
15.732815,20049
17.546766,20043
19.359888,18398
21.172181,16226
22.983647,13312
24.794284,11942
26.604094,11159
28.413077,10398
30.221233,8799
32.028563,7109
33.835068,5958
35.640747,5095
37.445602,4514
39.249632,4605
41.052838,4362
42.855221,4096
44.656781,4093
46.457517,3688
48.257432,3648
50.056525,3437
51.854796,3241
53.652246,3486
55.448876,3226
57.244685,3421
59.039675,3586
60.833846,3822
62.627197,3752
64.41973,3943
66.211446,4032
68.002343,4217
69.792423,4236
71.581687,4685
73.370134,4891
75.157765,5303
76.944581,5888
78.730581,6440
80.515767,7166
82.300139,7857
84.083697,9163
85.866441,10365
87.648372,11331
89.429491,13007
91.209797,14286
92.989292,16881
94.767976,19266
96.545848,22687
98.32291,26749
100.099162,32457
101.874604,27624
103.649237,31743
105.423061,31761
107.196077,36764
108.968284,35417
110.739684,34573
112.510277,32817
114.280063,32660
116.049042,32051
117.817216,35996
119.584584,43130
121.351147,38468
123.116905,36611
124.881859,37781
126.646009,28755
128.409356,41670
130.171899,40647
131.93364,38089
133.694578,27386
135.454715,34561
137.21405,33188
138.972584,29255
140.730317,43664
142.48725,36150
144.243384,25478
145.998718,34887
147.753252,29029
149.506989,35011
151.259927,36482
153.012067,42858
154.76341,33233
156.513956,40094
158.263705,35969
160.012659,36592
161.760816,30180
163.508178,36336
165.254745,33500
167.000518,37002
168.745496,38301
170.489681,35429
172.233072,35955
173.975671,42769
175.717476,28286
177.45849,37086
179.198712,29598
180.938142,35853
182.676782,29874
184.414631,37020
186.15169,33952
187.887959,28746
189.623439,39866
191.35813,30772
193.092032,34909
194.825147,33767
196.557473,33152
198.289012,34950
200.019764,33177
201.74973,31674
203.478909,35559
205.207303,35625
206.934911,37494
208.661735,38382
210.387773,31938
212.113028,31227
213.837499,30692
215.561186,34306
217.28409,34684
219.006212,32424
220.727552,32819
222.44811,37597
224.167886,37162
225.886881,33147
227.605096,34521
229.32253,31719
231.039185,31732
232.75506,30234
234.470156,23995
236.184473,32664
237.898012,28701
239.610773,29041
241.322757,37010
243.033964,36235
244.744393,28491
246.454047,34094
248.162924,31388
249.871026,31258
251.578353,34309
253.284905,30859
254.990683,40268
256.695686,31831
258.399916,35290
260.103373,36126
261.806057,35809
263.507968,38823
265.209107,32699
266.909475,31834
268.609071,32960
270.307897,28348
272.005952,33747
273.703236,34791
275.399751,33532
277.095497,31989
278.790473,38133
280.484681,30689
282.178121,33677
283.870793,38431
285.562697,30164
287.253835,40042
288.944205,38300
290.633809,30324
292.322648,31869
294.010721,35993
295.698028,38158
297.384571,39825
299.070349,37565
300.755364,39094
302.439614,34506
304.123102,34564
305.805826,36748
307.487788,34880
309.168988,34750
310.849426,39644
312.529103,32727
314.208018,32589
315.886173,21865
317.563568,35866
319.240203,36927
320.916079,39789
322.591195,36018
324.265552,38136
325.939151,34580
327.611993,34903
329.284076,35168
330.955402,36266
332.625972,41833
334.295785,36947
335.964841,34251
337.633142,31523
339.300688,38024
340.967479,29806
342.633515,37773
344.298796,35529
345.963324,36085
347.627098,35031
349.29012,40020
350.952388,35184
352.613904,36858
354.274668,33810
355.93468,33433
357.593941,37991
359.252451,38187
360.910211,30808
362.56722,36350
364.22348,33058
365.87899,30167
367.533751,40625
369.187763,34837
370.841027,33336
372.493543,36214
374.145311,42189
375.796332,37312
377.446607,22438
379.096134,42073
380.744916,34050
382.392952,31288
384.040242,37241
385.686787,46530
387.332588,36638
388.977645,39686
390.621957,35973
392.265526,41534
393.908351,31106
395.550434,39930
397.191775,37470
398.832373,28326
400.472229,39254
402.111344,43092
403.749718,42868
405.387351,39160
407.024244,29764
408.660397,37656
410.295811,40007
411.930485,41047
413.56442,39851
415.197617,47539
416.830076,25737
418.461796,40669
420.09278,40047
421.723026,36547
423.352536,29509
424.981309,31604
426.609346,37484
428.236648,35763
429.863214,41299
431.489046,43776
433.114143,29651
434.738505,39871
436.362134,32647
437.98503,31329
439.607192,35689
441.228621,32725
442.849318,38471
444.469283,30819
446.088516,37172
447.707018,32464
449.324789,27988
450.941829,35283
452.558139,31781
454.173719,38309
455.78857,6275
457.402691,36365
459.016083,38055
460.628747,37864
462.240682,39356
463.85189,38949
465.46237,36060
467.072124,39263
468.68115,31427
470.28945,39603
471.897024,33540
473.503872,33737
475.109995,39813
476.715393,34985
478.320066,40269
479.924015,34361
481.52724,36278
483.129741,35300
484.731519,32768
486.332575,38464
487.932907,26878
489.532517,37226
491.131406,30675
492.729573,30591
494.327019,36617
495.923744,36752
497.519748,28402
499.115033,35241
500.709597,39135
502.303442,37968
503.896568,36329
505.488976,34836
507.080665,38244
508.671635,37401
510.261889,28853
511.851424,36326
513.440243,32539
515.028345,38011
516.615731,38892
518.202401,36750
519.788355,34870
521.373593,41721
522.958117,35617
524.541926,28957
526.125021,36080
527.707402,29802
529.28907,36680
530.870024,24944
532.450265,30182
534.029794,35091
535.60861,34360
537.186715,41725
538.764108,32079
540.340789,29484
541.91676,38651
543.492021,39283
545.066571,33114
546.640411,34905
548.213542,31697
549.785964,30737
551.357676,39785
552.928681,34946
554.498977,44362
556.068565,31950
557.637446,40824
559.20562,43612
560.773087,39814
562.339847,35756
563.905901,33170
565.47125,31675
567.035893,30847
568.599831,31928
570.163064,36931
571.725593,35992
573.287417,37331
574.848538,41307
576.408955,35293
577.968669,33203
579.52768,35973
581.085989,31153
582.643596,39217
584.200501,36824
585.756704,31971
587.312207,41832
588.867008,38628
590.42111,38640
591.974511,34061
593.527212,35005
595.079214,30315
596.630516,38583
598.18112,39449
599.731025,24150
601.280232,35840
602.828742,38681
604.376554,36431
605.923668,38468
607.470086,32504
609.015808,41215
610.560833,36082
612.105162,38491
613.648796,35381
615.191735,34459
616.733979,32793
618.275528,43022
619.816383,32161
621.356544,30982
622.896012,36843
624.434787,38352
625.972868,32802
627.510257,33354
629.046954,38484
630.582959,32673
632.118272,32919
633.652894,40510
635.186825,36736
636.720066,37339
638.252616,32946
639.784476,39847
641.315647,30854
642.846128,29311
644.37592,32513
645.905024,32772
647.433439,27701
648.961166,40390
650.488206,40737
652.014558,30236
653.540223,32149
655.065201,35360
656.589493,37050
658.113099,34906
659.636019,35299
661.158253,34418
662.679803,38023
664.200668,35468
665.720848,38800
667.240344,37953
668.759156,34698
670.277284,33951
671.79473,37563
673.311492,35180
674.827572,37186
676.34297,37095
677.857686,33277
679.37172,36630
680.885072,27901
682.397744,35136
683.909735,36441
685.421046,33490
686.931677,35656
688.441628,30210
689.950899,36207
691.459492,35730
692.967406,35338
694.474641,35517
695.981198,35758
697.487078,16120
698.992279,35282
700.496804,35584
702.000652,35418
703.503823,28970
705.006318,29973
706.508137,35193
708.00928,32142
709.509748,35545
711.009541,34386
712.50866,34697
714.007104,31004
715.504874,29394
717.00197,34586
718.498393,34142
719.994142,34490
721.489219,34283
722.983624,33440
724.477356,34112
725.970416,29281
727.462805,33745
728.954522,31813
730.445569,25207
731.935944,33484
733.42565,32916
734.914685,33442
736.403051,33090
737.890748,33205
739.377775,33104
740.864133,27375
742.349823,32276
743.834845,32743
745.319199,33238
746.802886,32900
748.285905,33076
749.768257,32858
751.249943,32489
752.730962,32967
754.211315,32374
755.691003,32523
757.170025,32481
758.648382,29257
760.126075,31850
761.603102,31848
763.079466,32407
764.555166,32126
766.030202,32035
767.504575,30850
768.978285,32122
770.451332,32113
771.923717,32315
773.39544,32001
774.866501,31656
776.3369,31646
777.806639,31152
779.275716,31351
780.744134,30766
782.21189,29717
783.678987,30206
785.145425,29954
786.611203,30217
788.076322,29832
789.540782,29917
791.004583,27978
792.467727,29304
793.930213,28706
795.392041,28062
796.853212,28644
798.313726,28522
799.773584,28217
801.232785,28081
802.69133,27509
804.14922,27309
805.606454,27466
807.063032,27328
808.518956,27336
809.974226,27256
811.428841,26942
812.882802,26847
814.33611,26652
815.788764,26408
817.240766,26135
818.692114,26289
820.14281,24789
821.592854,26146
823.042246,26259
824.490986,25913
825.939075,25222
827.386514,25770
828.833301,25623
830.279438,25293
831.724925,25214
833.169762,25380
834.61395,25600
836.057488,25455
837.500378,25054
838.942619,25794
840.384212,25830
841.825156,26183
843.265453,25769
844.705102,16465
846.144105,25905
847.58246,26003
849.020169,25671
850.457231,25444
851.893648,25630
853.329418,25614
854.764544,25273
856.199024,24903
857.632859,24945
859.06605,24902
860.498597,24865
861.9305,24970
863.361759,24611
864.792374,24332
866.222347,24000
867.651677,23936
869.080364,23867
870.508409,23631
871.935812,23232
873.362574,23148
874.788694,22680
876.214173,22933
877.639011,22537
879.063209,22481
880.486766,22316
881.909684,22520
883.331962,22380
884.753601,22322
886.174601,22368
887.594961,22308
889.014684,22278
890.433768,22974
891.852214,22969
893.270023,22826
894.687194,23254
896.103729,23596
897.519626,23737
898.934887,23316
900.349512,23586
901.763501,23122
903.176854,23065
904.589572,22746
906.001655,22482
907.413103,22062
908.823917,22282
910.234096,22384
911.643642,21822
913.052554,22518
914.460832,22212
915.868477,22249
917.27549,21951
918.68187,21839
920.087618,21645
921.492734,21565
922.897218,20898
924.301071,20935
925.704292,19465
927.106883,19898
928.508844,19640
929.910174,19315
931.310874,19089
932.710944,18808
934.110385,18400
935.509197,18663
936.907379,18147
938.304934,18306
939.70186,17985
941.098158,17817
942.493828,18145
943.88887,18267
945.283286,17299
946.677075,17632
948.070236,17910
949.462772,17020
950.854681,17327
952.245965,17453
953.636623,17250
955.026656,17489
956.416064,17039
957.804847,17181
959.193006,17172
960.58054,16681
961.967451,16956
963.353738,17275
964.739402,16890
966.124442,17001
967.50886,16932
968.892656,16723
970.275829,16881
971.65838,16997
973.04031,17302
974.421618,16705
975.802305,16941
977.182371,16908
978.561816,17010
979.940641,16816
981.318846,17374
982.696432,16676
984.073398,16803
985.449744,17257
986.825472,17153
988.200581,17014
989.575072,17384
990.948944,17293
992.322199,17068
993.694836,17484
995.066855,17444
996.438258,17606
997.809044,17768
999.179213,17540
1000.548766,17251
1001.917703,17986
1003.286024,17756
1004.65373,17903
1006.020821,17999
1007.387297,18301
1008.753158,17902
1010.118405,15878
1011.483038,18685
1012.847057,19245
1014.210462,19098
1015.573254,19420
1016.935433,19468
1018.296999,19536
1019.657953,19658
1021.018295,19443
1022.378025,19175
1023.737143,19333
1025.095649,19408
1026.453544,19091
1027.810829,19219
1029.167503,19401
1030.523566,19240
1031.87902,19201
1033.233863,19477
1034.588097,19407
1035.941722,19486
1037.294738,19346
1038.647145,19626
1039.998943,19782
1041.350133,20115
1042.700716,19580
1044.05069,20101
1045.400057,20002
1046.748817,19794
1048.09697,20053
1049.444516,20319
1050.791456,20428
1052.13779,20614
1053.483518,20842
1054.82864,21320
1056.173157,21531
1057.517069,22157
1058.860376,21948
1060.203079,22530
1061.545177,22809
1062.886671,22491
1064.227562,22874
1065.567848,22652
1066.907532,22094
1068.246613,22124
1069.585091,21759
1070.922966,21478
1072.260239,21129
1073.596911,20962
1074.93298,20578
1076.268448,20617
1077.603315,20163
1078.937581,20304
1080.271247,20197
1081.604312,19860
1082.936776,19168
1084.268641,18983
1085.599907,18694
1086.930573,18366
1088.260639,18457
1089.590107,18062
1090.918977,17935
1092.247248,18020
1093.574921,17927
1094.901996,18350
1096.228474,18062
1097.554354,18759
1098.879637,18860
1100.204323,19129
1101.528413,19254
1102.851907,19334
1104.174804,19817
1105.497106,20191
1106.818812,20224
1108.139923,20375
1109.460439,20683
1110.78036,21042
1112.099687,21159
1113.41842,21149
1114.736558,21745
1116.054103,21753
1117.371054,22261
1118.687412,22479
1120.003177,22960
1121.318349,23040
1122.632929,22906
1123.946916,23012
1125.260312,23255
1126.573116,22795
1127.885328,22817
1129.196949,22514
1130.507979,22376
1131.818419,21807
1133.128268,21355
1134.437527,20730
1135.746195,20311
1137.054275,19501
1138.361764,19031
1139.668665,18579
1140.974976,18007
1142.280699,17849
1143.585833,17604
1144.890379,17429
1146.194337,16943
1147.497708,16701
1148.800491,16874
1150.102687,16620
1151.404295,16546
1152.705318,16525
1154.005753,16354
1155.305603,16028
1156.604866,16402
1157.903544,16024
1159.201636,15954
1160.499143,15249
1161.796065,15550
1163.092402,15275
1164.388155,15359
1165.683324,14793
1166.977908,14774
1168.271909,15015
1169.565326,14769
1170.85816,14753
1172.150411,14650
1173.44208,14373
1174.733165,14465
1176.023669,14334
1177.31359,14280
1178.60293,13874
1179.891688,13972
1181.179865,14070
1182.467461,14217
1183.754476,13899
1185.04091,14214
1186.326765,14111
1187.612039,14109
1188.896733,14174
1190.180848,14275
1191.464383,14204
1192.747339,14229
1194.029717,14236
1195.311515,14324
1196.592736,14267
1197.873378,14399
1199.153442,14612
1200.432929,14826
1201.711838,14695
1202.990171,14771
1204.267926,14617
1205.545105,14380
1206.821707,14634
1208.097733,14459
1209.373183,14647
1210.648057,14072
1211.922356,14478
1213.196079,14585
1214.469228,14333
1215.741802,14273
1217.013801,14203
1218.285226,14155
1219.556077,14342
1220.826355,14310
1222.096058,14238
1223.365189,14375
1224.633746,14277
1225.90173,14198
1227.169142,14405
1228.435982,14358
1229.702249,14243
1230.967945,14346
1232.233069,13942
1233.497621,14304
1234.761602,14080
1236.025013,14025
1237.287852,14118
1238.550121,14055
1239.81182,14120
1241.072949,14065
1242.333509,13924
1243.593498,13770
1244.852919,14085
1246.11177,14053
1247.370053,14214
1248.627767,13854
1249.884912,13950
1251.14149,14162
1252.397499,14358
1253.652942,14619
1254.907816,14525
1256.162124,14538
1257.415864,15116
1258.669038,14698
1259.921646,14965
1261.173687,15210
1262.425162,14949
1263.676071,14940
1264.926415,14927
1266.176194,15126
1267.425408,15154
1268.674056,14788
1269.92214,14918
1271.16966,14769
1272.416616,14743
1273.663008,14512
1274.908836,14701
1276.1541,14658
1277.398802,14646
1278.64294,14077
1279.886516,14257
1281.129529,14130
1282.37198,14218
1283.613869,13733
1284.855196,14148
1286.095962,13934
1287.336166,14022
1288.575809,14095
1289.814891,13896
1291.053413,14104
1292.291374,13884
1293.528775,13736
1294.765616,13755
1296.001897,13790
1297.237618,13621
1298.472781,13632
1299.707384,14078
1300.941428,13745
1302.174914,13895
1303.407842,13780
1304.640211,14147
1305.872022,14115
1307.103276,13758
1308.333972,14341
1309.564111,14386
1310.793693,14435
1312.022719,14455
1313.251187,14849
1314.4791,14458
1315.706456,14870
1316.933256,14923
1318.159501,15081
1319.38519,14838
1320.610324,15191
1321.834903,15014
1323.058928,14941
1324.282398,14912
1325.505313,15242
1326.727675,15355
1327.949482,15431
1329.170736,15346
1330.391437,15157
1331.611584,15089
1332.831179,15551
1334.050221,15305
1335.26871,15157
1336.486647,15222
1337.704032,15050
1338.920865,15505
1340.137147,15042
1341.352877,15050
1342.568056,15360
1343.782684,15209
1344.996761,15028
1346.210288,15503
1347.423265,15035
1348.635691,15220
1349.847568,15568
1351.058895,14904
1352.269673,14971
1353.479901,15193
1354.689581,15106
1355.898712,15079
1357.107294,15225
1358.315329,15281
1359.522815,15512
1360.729753,15303
1361.936144,15295
1363.141987,15556
1364.347283,15176
1365.552032,15627
1366.756235,15573
1367.959891,15567
1369.163,15422
1370.365564,15344
1371.567582,15513
1372.769054,15564
1373.96998,15325
1375.170362,15687
1376.370198,15036
1377.56949,14634
1378.768237,14364
1379.96644,14802
1381.164099,14619
1382.361214,14767
1383.557785,14411
1384.753813,14820
1385.949297,14172
1387.144239,14281
1388.338637,14581
1389.532493,14309
1390.725807,13784
1391.918579,13991
1393.110808,13812
1394.302496,13468
1395.493643,13362
1396.684248,13556
1397.874312,13205
1399.063835,13189
1400.252818,13168
1401.44126,12865
1402.629162,13057
1403.816524,12578
1405.003346,12728
1406.189629,12841
1407.375372,12752
1408.560576,12528
1409.745241,12706
1410.929368,12538
1412.112956,12672
1413.296006,12453
1414.478517,12324
1415.660491,12308
1416.841927,12478
1418.022826,12425
1419.203188,12076
1420.383012,12075
1421.5623,12388
1422.741051,12215
1423.919266,12206
1425.096945,12324
1426.274088,12319
1427.450695,12247
1428.626766,12039
1429.802302,12189
1430.977303,12042
1432.15177,12155
1433.325701,11917
1434.499098,12135
1435.671961,12296
1436.84429,12317
1438.016085,11949
1439.187347,11852
1440.358075,11809
1441.528269,12073
1442.697931,12084
1443.86706,11942
1445.035657,11643
1446.203721,11826
1447.371253,12134
1448.538253,11900
1449.704721,12078
1450.870658,12525
1452.036064,12167
1453.200938,11958
1454.365282,12466
1455.529094,12917
1456.692377,13038
1457.855129,12683
1459.017351,12923
1460.179043,12838
1461.340206,13018
1462.500839,12719
1463.660943,12525
1464.820517,12443
1465.979563,12227
1467.138081,27
1468.29607,11789
1469.453531,11864
1470.610464,11673
1471.766869,11217
1472.922746,11259
1474.078096,11076
1475.232919,10751
1476.387215,10954
1477.540985,10840
1478.694227,10511
1479.846944,10698
1480.999134,10613
1482.150798,10151
1483.301937,10302
1484.45255,10329
1485.602637,10315
1486.7522,10338
1487.901238,10143
1489.049751,10046
1490.197739,10078
1491.345203,10127
1492.492144,10109
1493.63856,10081
1494.784452,9932
1495.929821,9937
1497.074667,10275
1498.21899,10220
1499.36279,10116
1500.506067,9773
1501.648821,10198
1502.791054,10323
1503.932764,9991
1505.073953,9859
1506.21462,10034
1507.354765,9991
1508.494389,9953
1509.633492,10079
1510.772074,10187
1511.910136,10177
1513.047677,10149
1514.184698,10262
1515.321198,10111
1516.457179,10223
1517.592641,10190
1518.727582,10250
1519.862005,9816
1520.995909,10039
1522.129293,10653
1523.262159,10183
1524.394507,10332
1525.526336,10461
1526.657647,10495
1527.788441,10268
1528.918717,10345
1530.048475,10286
1531.177716,10222
1532.30644,10531
1533.434647,10189
1534.562338,10530
1535.689512,10575
1536.816169,10679
1537.942311,10781
1539.067937,10770
1540.193047,10697
1541.317642,10585
1542.441721,10945
1543.565285,10742
1544.688335,10724
1545.81087,10630
1546.93289,10900
1548.054396,11076
1549.175388,10976
1550.295866,10811
1551.41583,11027
1552.535281,11057
1553.654218,11187
1554.772643,11420
1555.890554,10907
1557.007953,11309
1558.124839,11230
1559.241213,11339
1560.357075,11435
1561.472424,11105
1562.587262,11676
1563.701589,11610
1564.815404,11677
1565.928708,11707
1567.041501,11458
1568.153783,11710
1569.265555,11750
1570.376816,11534
1571.487567,11277
1572.597808,11831
1573.707539,11817
1574.816761,11650
1575.925473,12074
1577.033676,12076
1578.14137,11991
1579.248555,11926
1580.355231,12257
1581.461399,12013
1582.567059,12285
1583.672211,12247
1584.776854,12333
1585.88099,12634
1586.984619,12812
1588.08774,12026
1589.190354,12011
1590.292462,13124
1591.394062,13225
1592.495156,13118
1593.595744,13054
1594.695825,13697
1595.795401,13264
1596.89447,13502
1597.993034,13304
1599.091093,13676
1600.188647,14054
1601.285695,13966
1602.382239,14074
1603.478278,14487
1604.573812,14410
1605.668843,14829
1606.763369,14448
1607.857391,14837
1608.95091,14819
1610.043925,15044
1611.136437,15182
1612.228446,15224
1613.319952,15710
1614.410955,15579
1615.501455,15850
1616.591453,15726
1617.680949,15879
1618.769943,15815
1619.858435,16051
1620.946426,16387
1622.033915,16444
1623.120903,16399
1624.20739,16825
1625.293376,16789
1626.378861,16805
1627.463845,16622
1628.54833,16671
1629.632314,16902
1630.715799,16896
1631.798783,16790
1632.881268,16961
1633.963254,16911
1635.04474,16714
1636.125728,17254
1637.206216,16977
1638.286206,16754
1639.365698,16931
1640.444691,16737
1641.523187,16975
1642.601184,16486
1643.678683,16632
1644.755686,16783
1645.83219,16492
1646.908198,16839
1647.983708,16549
1649.058722,16190
1650.133239,16289
1651.20726,16406
1652.280785,16185
1653.353813,16112
1654.426346,15981
1655.498383,15942
1656.569924,15652
1657.64097,15832
1658.711521,15659
1659.781577,15472
1660.851139,15397
1661.920205,14969
1662.988777,15376
1664.056855,14767
1665.124439,14792
1666.191529,14696
1667.258126,14620
1668.324229,14307
1669.389838,14085
1670.454955,14162
1671.519578,13709
1672.583709,13693
1673.647347,13565
1674.710493,13138
1675.773147,12752
1676.835308,12818
1677.896978,12372
1678.958155,12428
1680.018842,12323
1681.079037,12066
1682.138741,11878
1683.197954,11641
1684.256676,11574
1685.314908,11261
1686.372649,10901
1687.4299,10929
1688.48666,11012
1689.542931,10579
1690.598713,10390
1691.654004,10156
1692.708807,10086
1693.76312,10069
1694.816944,9981
1695.870279,9751
1696.923126,9722
1697.975484,9636
1699.027354,9434
1700.078736,9194
1701.12963,9411
1702.180036,9103
1703.229955,9262
1704.279386,8975
1705.32833,8737
1706.376787,8637
1707.424757,8567
1708.47224,8762
1709.519237,8191
1710.565748,8238
1711.611772,8148
1712.65731,7985
1713.702363,7986
1714.74693,7933
1715.791011,7370
1716.834608,7548
1717.877719,7638
1718.920345,7278
1719.962486,7168
1721.004143,7250
1722.045316,7050
1723.086004,7003
1724.126208,6902
1725.165929,6914
1726.205165,6469
1727.243918,6743
1728.282188,6537
1729.319975,6714
1730.357278,6495
1731.394099,6396
1732.430437,6445
1733.466293,6410
1734.501666,6247
1735.536557,6321
1736.570967,6215
1737.604894,5912
1738.63834,5894
1739.671304,5919
1740.703787,5810
1741.735789,5647
1742.767311,5603
1743.798351,5779
1744.828911,5637
1745.85899,5552
1746.888589,5597
1747.917708,5171
1748.946348,5377
1749.974507,5518
1751.002187,5304
1752.029388,5158
1753.056109,5167
1754.082351,5390
1755.108115,5262
1756.1334,5040
1757.158206,5222
1758.182534,4935
1759.206384,4774
1760.229755,4998
1761.252649,4606
1762.275065,4579
1763.297004,4897
1764.318466,4634
1765.33945,4651
1766.359957,4426
1767.379988,4705
1768.399542,4496
1769.418619,4577
1770.43722,4197
1771.455345,4368
1772.472994,4222
1773.490167,3968
1774.506865,4350
1775.523087,4080
1776.538834,4023
1777.554106,3987
1778.568902,4130
1779.583224,4097
1780.597072,3922
1781.610444,4151
1782.623343,3795
1783.635768,4046
1784.647718,3956
1785.659195,3864
1786.670198,3873
1787.680728,3767
1788.690784,3768
1789.700368,3786
1790.709478,3914
1791.718116,3922
1792.726281,3815
1793.733973,3765
1794.741194,3746
1795.747942,3632
1796.754218,3503
1797.760023,3701
1798.765356,3762
1799.770217,3898
1800.774607,3823
1801.778526,3757
1802.781974,3838
1803.784952,3768
1804.787458,3641
1805.789495,3467
1806.791061,3542
1807.792156,3596
1808.792782,3294
1809.792938,3524
1810.792625,3361
1811.791842,3618
1812.79059,3694
1813.788868,3475
1814.786678,3646
1815.784019,3338
1816.780891,3685
1817.777295,3676
1818.77323,3377
1819.768697,3488
1820.763697,3421
1821.758228,3436
1822.752292,3553
1823.745888,3580
1824.739017,3389
1825.731679,3250
1826.723874,3523
1827.715602,3326
1828.706863,3227
1829.697658,3296
1830.687986,3454
1831.677848,3323
1832.667244,3392
1833.656175,3399
1834.644639,3539
1835.632638,3157
1836.620172,3305
1837.60724,2865
1838.593844,3537
1839.579982,3221
1840.565656,3184
1841.550865,3480
1842.53561,3322
1843.51989,3258
1844.503706,3416
1845.487059,3190
1846.469947,3232
1847.452372,3202
1848.434334,3326
1849.415832,3050
1850.396867,3236
1851.377439,3290
1852.357549,3149
1853.337195,3239
1854.31638,2975
1855.295101,3110
1856.273361,3263
1857.251159,3178
1858.228494,3349
1859.205369,3173
1860.181781,3071
1861.157732,3063
1862.133222,2992
1863.108251,2990
1864.082819,3056
1865.056926,3007
1866.030573,2899
1867.003759,3139
1867.976485,2871
1868.948751,2941
1869.920556,3229
1870.891902,3069
1871.862789,2705
1872.833216,3263
1873.803183,3102
1874.772691,2912
1875.741741,2794
1876.710331,2834
1877.678463,2867
1878.646136,2726
1879.613351,2974
1880.580108,2761
1881.546406,2758
1882.512247,2925
1883.47763,2974
1884.442555,2870
1885.407023,3018
1886.371033,2850
1887.334586,2814
1888.297683,2740
1889.260322,2639
1890.222505,2897
1891.184231,2741
1892.145501,2709
1893.106315,2895
1894.066673,3113
1895.026574,2744
1895.98602,2622
1896.945011,2598
1897.903546,2655
1898.861626,2788
1899.81925,2713
1900.77642,2723
1901.733135,2825
1902.689395,2723
1903.6452,2792
1904.600551,2728
1905.555448,2693
1906.509891,2728
1907.46388,2917
1908.417416,2595
1909.370498,2907
1910.323126,2746
1911.275301,2760
1912.227023,2760
1913.178292,2413
1914.129108,2909
1915.079471,2767
1916.029382,2940
1916.97884,2558
1917.927846,2702
1918.876401,2728
1919.824503,2841
1920.772153,2866
1921.719352,2511
1922.6661,2630
1923.612396,2169
1924.558241,2804
1925.503635,2726
1926.448578,2581
1927.39307,2797
1928.337112,2776
1929.280703,2853
1930.223844,2654
1931.166535,2762
1932.108776,3044
1933.050568,2666
1933.991909,2598
1934.932801,2698
1935.873244,2928
1936.813238,2732
1937.752782,2964
1938.691878,2718
1939.630525,3001
1940.568723,2956
1941.506473,2827
1942.443774,2860
1943.380627,2728
1944.317033,3082
1945.25299,3024
1946.1885,3093
1947.123562,2899
1948.058177,2856
1948.992344,2887
1949.926065,2891
1950.859338,2898
1951.792165,2851
1952.724545,3136
1953.656478,2979
1954.587965,2919
1955.519006,2753
1956.4496,3063
1957.379749,2925
1958.309452,3013
1959.238709,2847
1960.167521,2848
1961.095888,2559
1962.023809,2710
1962.951285,2880
1963.878317,2967
1964.804903,2666
1965.731045,2707
1966.656743,2708
1967.581996,2742
1968.506805,2913
1969.43117,2629
1970.355091,2955
1971.278568,2769
1972.201602,2795
1973.124192,2972
1974.046339,3006
1974.968043,2799
1975.889304,2946
1976.810122,2967
1977.730498,2769
1978.65043,3071
1979.569921,2455
1980.488969,2798
1981.407574,2977
1982.325738,2868
1983.24346,2711
1984.160741,2839
1985.077579,2589
1985.993977,2552
1986.909933,3040
1987.825448,2915
1988.740522,2789
1989.655155,2950
1990.569347,2974
1991.483099,2891
1992.396411,2673
1993.309282,3004
1994.221713,2432
1995.133704,2971
1996.045256,2913
1996.956367,2900
1997.867039,2873
1998.777272,2814
1999.687065,3019
2000.596419,2924
2001.505335,2865
2002.413811,2892
2003.321849,3018
2004.229448,2965
2005.136609,2896
2006.043331,2896
2006.949616,2936
2007.855462,3105
2008.760871,3120
2009.665841,2941
2010.570375,2722
2011.47447,3113
2012.378129,3016
2013.281351,2867
2014.184135,2962
2015.086483,2849
2015.988393,2838
2016.889868,2997
2017.790906,3169
2018.691507,3008
2019.591673,2906
2020.491402,3084
2021.390695,2980
2022.289553,2898
2023.187975,2953
2024.085962,2891
2024.983514,3189
2025.88063,3117
2026.777311,2942
2027.673557,3236
2028.569369,2785
2029.464746,3038
2030.359688,3130
2031.254197,3054
2032.148271,3150
2033.04191,2816
2033.935116,3016
2034.827889,3132
2035.720227,2872
2036.612132,2778
2037.503604,3175
2038.394642,2965
2039.285248,3210
2040.17542,2966
2041.06516,3003
2041.954466,3193
2042.843341,3002
2043.731783,3020
2044.619792,2894
2045.50737,2919
2046.394516,2806
2047.281229,2964
2048.167511,2915
2049.053362,3087
2049.938781,2943
2050.823768,3006
2051.708325,2883
2052.59245,3073
2053.476145,2957
2054.359409,2895
2055.242242,2761
2056.124645,3043
2057.006617,2858
2057.888159,3010
2058.769271,3005
2059.649953,3132
2060.530206,2765
2061.410028,2854
2062.289421,2719
2063.168385,3108
2064.046919,2910
2064.925025,2954
2065.802701,3021
2066.679949,3023
2067.556767,2979
2068.433157,2870
2069.309119,2834
2070.184652,2884
2071.059758,2711
2071.934435,2769
2072.808684,3128
2073.682505,3015
2074.555899,2911
2075.428865,2749
2076.301404,2820
2077.173516,2782
2078.0452,2697
2078.916458,2871
2079.787289,2888
2080.657693,2754
2081.52767,2916
2082.397221,2830
2083.266346,2953
2084.135044,3010
2085.003316,3026
2085.871163,2964
2086.738584,2944
2087.605579,3112
2088.472148,3092
2089.338292,3150
2090.204011,2978
2091.069305,3022
2091.934174,2969
2092.798618,2971
2093.662637,2949
2094.526231,2892
2095.389402,2838
2096.252147,3144
2097.114469,2963
2097.976366,2870
2098.83784,2791
2099.69889,2996
2100.559516,2878
2101.419719,2839
2102.279498,3042
2103.138854,2807
2103.997786,2879
2104.856296,2940
2105.714383,2755
2106.572047,2969
2107.429289,3029
2108.286108,2861
2109.142504,2853
2109.998479,2813
2110.854031,2806
2111.709161,3016
2112.56387,2716
2113.418156,2756
2114.272021,2584
2115.125465,2674
2115.978487,2922
2116.831089,2775
2117.683269,2870
2118.535028,2762
2119.386366,2739
2120.237284,2867
2121.087781,2659
2121.937857,2696
2122.787514,2799
2123.63675,2791
2124.485566,2735
2125.333962,2697
2126.181939,2644
2127.029496,2861
2127.876633,2679
2128.723351,2679
2129.569649,2688
2130.415529,2614
2131.260989,2450
2132.106031,2651
2132.950654,2567
2133.794858,2399
2134.638643,2717
2135.482011,2632
2136.32496,2537
2137.167491,2603
2138.009604,2559
2138.851299,2346
2139.692576,2788
2140.533436,2312
2141.373878,2563
2142.213903,2523
2143.05351,2600
2143.892701,2629
2144.731474,2434
2145.569831,2373
2146.407771,2289
2147.245294,2666
2148.082401,2548
2148.919091,2358
2149.755365,2252
2150.591224,2430
2151.426666,2654
2152.261692,2376
2153.096302,2261
2153.930497,2360
2154.764277,2317
2155.597641,2461
2156.43059,2436
2157.263124,2374
2158.095242,2468
2158.926946,2396
2159.758236,2140
2160.58911,2248
2161.41957,2491
2162.249616,2333
2163.079248,2206
2163.908465,2196
2164.737269,2283
2165.565658,2519
2166.393634,2068
2167.221196,2108
2168.048345,2203
2168.87508,2381
2169.701402,2295
2170.527311,1975
2171.352807,2330
2172.177891,2213
2173.002561,2006
2173.826819,2183
2174.650664,2551
2175.474097,2288
2176.297117,2474
2177.119726,2099
2177.941922,2129
2178.763707,2179
2179.58508,2388
2180.406041,2378
2181.22659,1989
2182.046729,2284
2182.866456,2121
2183.685771,2266
2184.504676,2195
2185.32317,2050
2186.141253,2175
2186.958925,2354
2187.776187,2216
2188.593038,2087
2189.409479,2020
2190.22551,1933
2191.041131,2094
2191.856342,2104
2192.671143,1977
2193.485534,1841
2194.299516,2068
2195.113088,1927
2195.926251,1990
2196.739005,2002
2197.551349,2204
2198.363285,1824
2199.174812,2157
2199.98593,2001
2200.796639,2130
2201.60694,1764
2202.416832,2040
2203.226317,1922
2204.035393,1740
2204.844061,1950
2205.652321,1795
2206.460173,1815
2207.267618,1749
2208.074655,2006
2208.881285,1792
2209.687507,1813
2210.493322,1779
2211.29873,1900
2212.103732,1827
2212.908326,1833
2213.712513,1832
2214.516294,1963
2215.319669,1540
2216.122637,1593
2216.925199,1548
2217.727355,1516
2218.529105,1491
2219.330449,1742
2220.131387,1892
2220.931919,1649
2221.732046,1377
2222.531768,1689
2223.331084,1780
2224.129995,1272
2224.928501,1672
2225.726602,1568
2226.524298,1484
2227.321589,1523
2228.118476,1802
2228.914959,1525
2229.711037,1437
2230.50671,1765
2231.30198,1351
2232.096846,1479
2232.891307,1658
2233.685365,1518
2234.479019,1798
2235.27227,1305
2236.065117,1609
2236.857561,1517
2237.649602,1457
2238.441239,1513
2239.232474,1554
2240.023306,1554
2240.813735,1728
2241.603761,1348
2242.393385,1670
2243.182607,1675
2243.971426,1481
2244.759843,1322
2245.547858,1235
2246.335471,1524
2247.122682,1333
2247.909492,1520
2248.6959,1409
2249.481906,1481
2250.267511,1412
2251.052715,1418
2251.837518,1424
2252.621919,1178
2253.40592,1402
2254.18952,1600
2254.972719,1319
2255.755518,1331
2256.537916,1236
2257.319914,1374
2258.101512,1338
2258.88271,1359
2259.663507,1205
2260.443905,1248
2261.223903,1288
2262.003501,1369
2262.7827,1343
2263.561499,1056
2264.339899,1328
2265.1179,1242
2265.895501,988
2266.672704,1147
2267.449508,1187
2268.225913,1122
2269.001919,1050
2269.777527,1199
2270.552737,1137
2271.327548,1213
2272.101961,1194
2272.875975,1328
2273.649592,1023
2274.422811,998
2275.195632,1452
2275.968056,1114
2276.740082,1074
2277.511711,1057
2278.282942,1158
2279.053776,1239
2279.824213,1218
2280.594253,957
2281.363897,1124
2282.133143,1212
2282.901993,883
2283.670446,1140
2284.438503,1054
2285.206164,1073
2285.973428,1082
2286.740296,947
2287.506769,766
2288.272845,1006
2289.038526,1300
2289.803811,1044
2290.5687,1105
2291.333194,983
2292.097293,1017
2292.860997,834
2293.624305,1041
2294.387219,994
2295.149737,903
2295.911861,974
2296.67359,884
2297.434925,1038
2298.195865,952
2298.956411,1047
2299.716562,1153
2300.47632,865
2301.235683,1059
2301.994653,969
2302.753229,1095
2303.511411,968
2304.269199,840
2305.026594,989
2305.783596,950
2306.540204,1147
2307.29642,958
2308.052242,884
2308.807671,952
2309.562708,1038
2310.317351,909
2311.071603,1082
2311.825461,922
2312.578928,938
2313.332002,1061
2314.084684,938
2314.836973,679
2315.588871,1026
2316.340377,798
2317.091491,828
2317.842214,763
2318.592545,915
2319.342485,973
2320.092033,950
2320.84119,830
2321.589956,1049
2322.338331,1135
2323.086315,958
2323.833908,838
2324.581111,823
2325.327923,806
2326.074345,701
2326.820376,860
2327.566017,1005
2328.311268,1001
2329.056129,910
2329.800599,996
2330.54468,881
2331.288372,956
2332.031673,728
2332.774585,661
2333.517108,626
2334.259242,922
2335.000986,748
2335.742341,750
2336.483307,654
2337.223884,828
2337.964073,751
2338.703872,656
2339.443283,777
2340.182306,764
2340.92094,915
2341.659187,695
2342.397044,746
2343.134514,662
2343.871596,780
2344.60829,795
2345.344597,759
2346.080515,490
2346.816046,835
2347.55119,301
2348.285946,807
2349.020316,439
2349.754298,727
2350.487893,725
2351.221101,676
2351.953922,589
2352.686356,589
2353.418404,473
2354.150066,562
2354.881341,775
2355.61223,472
2356.342732,724
2357.072849,684
2357.802579,413
2358.531924,915
2359.260883,906
2359.989456,612
2360.717643,706
2361.445445,568
2362.172862,699
2362.899893,639
2363.626539,541
2364.352801,782
2365.078677,591
2365.804168,453
2366.529275,489
2367.253996,840
2367.978334,573
2368.702286,695
2369.425855,736
2370.149039,582
2370.871839,549
2371.594255,588
2372.316287,673
2373.037935,434
2373.7592,724
2374.48008,666
2375.200578,421
2375.920691,564
2376.640422,656
2377.359769,479
2378.078733,658
2378.797314,750
2379.515511,528
2380.233327,284
2380.950759,563
2381.667808,747
2382.384476,616
2383.10076,396
2383.816663,631
2384.532183,505
2385.24732,521
2385.962076,380
2386.67645,529
2387.390442,537
2388.104052,364
2388.817281,376
2389.530128,367
2390.242593,532
2390.954677,400
2391.66638,349
2392.377702,419
2393.088643,661
2393.799202,473
2394.509381,251
2395.219179,418
2395.928596,315
2396.637633,270
2397.346289,320
2398.054565,385
2398.762461,184
2399.469976,411
2400.177111,560
2400.883867,88
2401.590242,482
2402.296238,315
2403.001854,291
2403.70709,323
2404.411947,440
2405.116424,545
2405.820522,307
2406.524241,415
2407.227581,205
2407.930542,310
2408.633123,308
2409.335326,319
2410.037151,315
