Frequent,Density
-31.722347,12011
-29.886687,13985
-28.051868,16344
-26.217889,18732
-24.384749,22403
-22.552448,25597
-20.720985,29034
-18.890361,33466
-17.060575,36570
-15.231626,43689
-13.403514,42272
-11.576239,47111
-9.749799,47317
-7.924195,45236
-6.099426,36778
-4.275492,36383
-2.452392,40907
-0.630127,36440
1.191306,33301
3.011906,32152
4.831672,37729
6.650607,40533
8.46871,31745
10.285982,25807
12.102423,22721
13.918034,20388
15.732815,19189
17.546766,19202
19.359888,18099
21.172181,15402
22.983647,12657
24.794284,10950
26.604094,10863
28.413077,9721
30.221233,8799
32.028563,7042
33.835068,5718
35.640747,4925
37.445602,4396
39.249632,4443
41.052838,4311
42.855221,4232
44.656781,4010
46.457517,3875
48.257432,3649
50.056525,3541
51.854796,3337
53.652246,3290
55.448876,3337
57.244685,3440
59.039675,3658
60.833846,3662
62.627197,3670
64.41973,4068
66.211446,4300
68.002343,4175
69.792423,4332
71.581687,4840
73.370134,4902
75.157765,5297
76.944581,5843
78.730581,6486
80.515767,7357
82.300139,7995
84.083697,9282
85.866441,10515
87.648372,11148
89.429491,13038
91.209797,14633
92.989292,17050
94.767976,19559
96.545848,22786
98.32291,26713
100.099162,32544
101.874604,27592
103.649237,31711
105.423061,31729
107.196077,36732
108.968284,35385
110.739684,34541
112.510277,32785
114.280063,32628
116.049042,32019
117.817216,35964
119.584584,43098
121.351147,38436
123.116905,36579
124.881859,37749
126.646009,28723
128.409356,41638
130.171899,40615
131.93364,38057
133.694578,27354
135.454715,34529
137.21405,33156
138.972584,29223
140.730317,43632
142.48725,36118
144.243384,25446
145.998718,34855
147.753252,28997
149.506989,34979
151.259927,36450
153.012067,42826
154.76341,33201
156.513956,40062
158.263705,35937
160.012659,36560
161.760816,30148
163.508178,36304
165.254745,33468
167.000518,36970
168.745496,38269
170.489681,35397
172.233072,35923
173.975671,42737
175.717476,28254
177.45849,37054
179.198712,29566
180.938142,35821
182.676782,29842
184.414631,36988
186.15169,33920
187.887959,28714
189.623439,39834
191.35813,30740
193.092032,34877
194.825147,33735
196.557473,33120
198.289012,34918
200.019764,33145
201.74973,31642
203.478909,35527
205.207303,35593
206.934911,37462
208.661735,38350
210.387773,31906
212.113028,31195
213.837499,30660
215.561186,34274
217.28409,34652
219.006212,32392
220.727552,32787
222.44811,37565
224.167886,37130
225.886881,33115
227.605096,34489
229.32253,31687
231.039185,31700
232.75506,30202
234.470156,23963
236.184473,32632
237.898012,28669
239.610773,29009
241.322757,36978
243.033964,36203
244.744393,28459
246.454047,34062
248.162924,31356
249.871026,31226
251.578353,34277
253.284905,30827
254.990683,40236
256.695686,31799
258.399916,35258
260.103373,36094
261.806057,35777
263.507968,38791
265.209107,32667
266.909475,31802
268.609071,32928
270.307897,28316
272.005952,33715
273.703236,34759
275.399751,33500
277.095497,31957
278.790473,38101
280.484681,30657
282.178121,33645
283.870793,38399
285.562697,30132
287.253835,40010
288.944205,38268
290.633809,30292
292.322648,31837
294.010721,35961
295.698028,38126
297.384571,39793
299.070349,37533
300.755364,39062
302.439614,34474
304.123102,34532
305.805826,36716
307.487788,34848
309.168988,34718
310.849426,39612
312.529103,32695
314.208018,32557
315.886173,21833
317.563568,35834
319.240203,36895
320.916079,39757
322.591195,35986
324.265552,38104
325.939151,34548
327.611993,34871
329.284076,35136
330.955402,36234
332.625972,41801
334.295785,36915
335.964841,34219
337.633142,31491
339.300688,37992
340.967479,29774
342.633515,37741
344.298796,35497
345.963324,36053
347.627098,34999
349.29012,39988
350.952388,35152
352.613904,36826
354.274668,33778
355.93468,33401
357.593941,37959
359.252451,38155
360.910211,30776
362.56722,36318
364.22348,33026
365.87899,30135
367.533751,40593
369.187763,34805
370.841027,33304
372.493543,36182
374.145311,42157
375.796332,37280
377.446607,22406
379.096134,42041
380.744916,34018
382.392952,31256
384.040242,37209
385.686787,46498
387.332588,36606
388.977645,39654
390.621957,35941
392.265526,41502
393.908351,31074
395.550434,39898
397.191775,37438
398.832373,28294
400.472229,39222
402.111344,43060
403.749718,42836
405.387351,39128
407.024244,29732
408.660397,37624
410.295811,39975
411.930485,41015
413.56442,39819
415.197617,47507
416.830076,25705
418.461796,40637
420.09278,40015
421.723026,36515
423.352536,29477
424.981309,31572
426.609346,37452
428.236648,35731
429.863214,41267
431.489046,43744
433.114143,29619
434.738505,39839
436.362134,32615
437.98503,31297
439.607192,35657
441.228621,32693
442.849318,38439
444.469283,30787
446.088516,37140
447.707018,32432
449.324789,27956
450.941829,35251
452.558139,31749
454.173719,38277
455.78857,6243
457.402691,36333
459.016083,38023
460.628747,37832
462.240682,39324
463.85189,38917
465.46237,36028
467.072124,39231
468.68115,31395
470.28945,39571
471.897024,33508
473.503872,33705
475.109995,39781
476.715393,34953
478.320066,40237
479.924015,34329
481.52724,36246
483.129741,35268
484.731519,32736
486.332575,38432
487.932907,26846
489.532517,37194
491.131406,30643
492.729573,30559
494.327019,36585
495.923744,36720
497.519748,28370
499.115033,35209
500.709597,39103
502.303442,37936
503.896568,36297
505.488976,34804
507.080665,38212
508.671635,37369
510.261889,28821
511.851424,36294
513.440243,32507
515.028345,37979
516.615731,38860
518.202401,36718
519.788355,34838
521.373593,41689
522.958117,35585
524.541926,28925
526.125021,36048
527.707402,29770
529.28907,36648
530.870024,24912
532.450265,30150
534.029794,35059
535.60861,34328
537.186715,41693
538.764108,32047
540.340789,29452
541.91676,38619
543.492021,39251
545.066571,33082
546.640411,34873
548.213542,31665
549.785964,30705
551.357676,39753
552.928681,34914
554.498977,44330
556.068565,31918
557.637446,40792
559.20562,43580
560.773087,39782
562.339847,35724
563.905901,33138
565.47125,31643
567.035893,30815
568.599831,31896
570.163064,36899
571.725593,35960
573.287417,37299
574.848538,41275
576.408955,35261
577.968669,33171
579.52768,35941
581.085989,31121
582.643596,39185
584.200501,36792
585.756704,31939
587.312207,41800
588.867008,38596
590.42111,38608
591.974511,34029
593.527212,34973
595.079214,30283
596.630516,38551
598.18112,39417
599.731025,24118
601.280232,35808
602.828742,38649
604.376554,36399
605.923668,38436
607.470086,32472
609.015808,41183
610.560833,36050
612.105162,38459
613.648796,35349
615.191735,34427
616.733979,32761
618.275528,42990
619.816383,32129
621.356544,30950
622.896012,36811
624.434787,38320
625.972868,32770
627.510257,33322
629.046954,38452
630.582959,32641
632.118272,32887
633.652894,40478
635.186825,36704
636.720066,37307
638.252616,32914
639.784476,39815
641.315647,30822
642.846128,29279
644.37592,32481
645.905024,32740
647.433439,27669
648.961166,40358
650.488206,40965
652.014558,30204
653.540223,32117
655.065201,35328
656.589493,37018
658.113099,34874
659.636019,35267
661.158253,34386
662.679803,37991
664.200668,35436
665.720848,38668
667.240344,37921
668.759156,34666
670.277284,33919
671.79473,37531
673.311492,35148
674.827572,37168
676.34297,37403
677.857686,33245
679.37172,36853
680.885072,27869
682.397744,35104
683.909735,36253
685.421046,33458
686.931677,35624
688.441628,30178
689.950899,36268
691.459492,35492
692.967406,35570
694.474641,35668
695.981198,35417
697.487078,16088
698.992279,35361
700.496804,35224
702.000652,35188
703.503823,28938
705.006318,29941
706.508137,35208
708.00928,32110
709.509748,35096
711.009541,34354
712.50866,34642
714.007104,30972
715.504874,29362
717.00197,34215
718.498393,33968
719.994142,34526
721.489219,34412
722.983624,33408
724.477356,34045
725.970416,29249
727.462805,33595
728.954522,31781
730.445569,25175
731.935944,33402
733.42565,32884
734.914685,33489
736.403051,33058
737.890748,33298
739.377775,33103
740.864133,27343
742.349823,32244
743.834845,32664
745.319199,32949
746.802886,32905
748.285905,33315
749.768257,32928
751.249943,32605
752.730962,32910
754.211315,32254
755.691003,32491
757.170025,32744
758.648382,29225
760.126075,31818
761.603102,32082
763.079466,32363
764.555166,32054
766.030202,32277
767.504575,30818
768.978285,32165
770.451332,32051
771.923717,32009
773.39544,31750
774.866501,31889
776.3369,31548
777.806639,31325
779.275716,31108
780.744134,30940
782.21189,29685
783.678987,30163
785.145425,29734
786.611203,30119
788.076322,29593
789.540782,29483
791.004583,27946
792.467727,29132
793.930213,28777
795.392041,28086
796.853212,28579
798.313726,28130
799.773584,28131
801.232785,27762
802.69133,28073
804.14922,27301
805.606454,27334
807.063032,27257
808.518956,27188
809.974226,27300
811.428841,26848
812.882802,26775
814.33611,26440
815.788764,26328
817.240766,26177
818.692114,25932
820.14281,24757
821.592854,26296
823.042246,25941
824.490986,25686
825.939075,25153
827.386514,25890
828.833301,25586
830.279438,25432
831.724925,25284
833.169762,25732
834.61395,25700
836.057488,25397
837.500378,25157
838.942619,25979
840.384212,25550
841.825156,26163
843.265453,25670
844.705102,16433
846.144105,25773
847.58246,25889
849.020169,25617
850.457231,25433
851.893648,25334
853.329418,25058
854.764544,25238
856.199024,24944
857.632859,24860
859.06605,25040
860.498597,24613
861.9305,24900
863.361759,24549
864.792374,24157
866.222347,24063
867.651677,23748
869.080364,23584
870.508409,23488
871.935812,23222
873.362574,22957
874.788694,22498
876.214173,22789
877.639011,22813
879.063209,22282
880.486766,22182
881.909684,22083
883.331962,22210
884.753601,22408
886.174601,22370
887.594961,22049
889.014684,22359
890.433768,23109
891.852214,22840
893.270023,22933
894.687194,23170
896.103729,23239
897.519626,23624
898.934887,23330
900.349512,23110
901.763501,23008
903.176854,23075
904.589572,22782
906.001655,22439
907.413103,22292
908.823917,22311
910.234096,22177
911.643642,21932
913.052554,22193
914.460832,21929
915.868477,21949
917.27549,21842
918.68187,21832
920.087618,21558
921.492734,21272
922.897218,21122
924.301071,20637
925.704292,19564
927.106883,19938
928.508844,19640
929.910174,19461
931.310874,19024
932.710944,18897
934.110385,18332
935.509197,18663
936.907379,18282
938.304934,18102
939.70186,17670
941.098158,17693
942.493828,17641
943.88887,17957
945.283286,17323
946.677075,17742
948.070236,17804
949.462772,16812
950.854681,17260
952.245965,17609
953.636623,17389
955.026656,17252
956.416064,17069
957.804847,17021
959.193006,16954
960.58054,16804
961.967451,17039
963.353738,16896
964.739402,16828
966.124442,16756
967.50886,16862
968.892656,16615
970.275829,16966
971.65838,16892
973.04031,17074
974.421618,16504
975.802305,17097
977.182371,17114
978.561816,17194
979.940641,16928
981.318846,17087
982.696432,16850
984.073398,16706
985.449744,17015
986.825472,16987
988.200581,16983
989.575072,17313
990.948944,17476
992.322199,17201
993.694836,17383
995.066855,17371
996.438258,17698
997.809044,17751
999.179213,17846
1000.548766,17367
1001.917703,17735
1003.286024,17840
1004.65373,17953
1006.020821,17926
1007.387297,18315
1008.753158,17727
1010.118405,15890
1011.483038,18572
1012.847057,19147
1014.210462,19069
1015.573254,19531
1016.935433,19448
1018.296999,19436
1019.657953,19441
1021.018295,19446
1022.378025,19033
1023.737143,19241
1025.095649,19472
1026.453544,18972
1027.810829,19135
1029.167503,19350
1030.523566,19232
1031.87902,19183
1033.233863,19367
1034.588097,19317
1035.941722,19384
1037.294738,19516
1038.647145,19745
1039.998943,19781
1041.350133,19884
1042.700716,19599
1044.05069,19944
1045.400057,19814
1046.748817,19824
1048.09697,20118
1049.444516,20321
1050.791456,20219
1052.13779,20416
1053.483518,20855
1054.82864,21711
1056.173157,21272
1057.517069,22209
1058.860376,21837
1060.203079,22389
1061.545177,22687
1062.886671,22392
1064.227562,22756
1065.567848,22448
1066.907532,22018
1068.246613,22011
1069.585091,21832
1070.922966,21623
1072.260239,21185
1073.596911,20992
1074.93298,20403
1076.268448,20846
1077.603315,20087
1078.937581,20234
1080.271247,20054
1081.604312,19387
1082.936776,19173
1084.268641,19091
1085.599907,18793
1086.930573,18429
1088.260639,18501
1089.590107,18060
1090.918977,17933
1092.247248,17902
1093.574921,17840
1094.901996,18292
1096.228474,18219
1097.554354,18464
1098.879637,18877
1100.204323,19054
1101.528413,19313
1102.851907,19355
1104.174804,19787
1105.497106,19828
1106.818812,20194
1108.139923,20132
1109.460439,20651
1110.78036,21015
1112.099687,21128
1113.41842,21258
1114.736558,21829
1116.054103,21723
1117.371054,22197
1118.687412,22416
1120.003177,22779
1121.318349,22842
1122.632929,22817
1123.946916,23140
1125.260312,23016
1126.573116,22941
1127.885328,22708
1129.196949,22456
1130.507979,22338
1131.818419,21545
1133.128268,21508
1134.437527,20798
1135.746195,20210
1137.054275,19546
1138.361764,18712
1139.668665,18430
1140.974976,17861
1142.280699,17610
1143.585833,17449
1144.890379,17440
1146.194337,17058
1147.497708,16542
1148.800491,16715
1150.102687,16426
1151.404295,16128
1152.705318,16598
1154.005753,16261
1155.305603,16051
1156.604866,16091
1157.903544,16073
1159.201636,15838
1160.499143,15584
1161.796065,15479
1163.092402,15317
1164.388155,15494
1165.683324,14849
1166.977908,14937
1168.271909,14875
1169.565326,14770
1170.85816,14509
1172.150411,14760
1173.44208,14516
1174.733165,14033
1176.023669,14188
1177.31359,14314
1178.60293,14009
1179.891688,13907
1181.179865,14164
1182.467461,14104
1183.754476,14000
1185.04091,14282
1186.326765,14195
1187.612039,14070
1188.896733,14048
1190.180848,14241
1191.464383,14246
1192.747339,14175
1194.029717,14417
1195.311515,14371
1196.592736,14574
1197.873378,14528
1199.153442,14751
1200.432929,14344
1201.711838,14637
1202.990171,14767
1204.267926,14565
1205.545105,14661
1206.821707,14691
1208.097733,14506
1209.373183,14707
1210.648057,14048
1211.922356,14486
1213.196079,14311
1214.469228,14362
1215.741802,14555
1217.013801,14397
1218.285226,14173
1219.556077,14457
1220.826355,14190
1222.096058,14315
1223.365189,14372
1224.633746,14220
1225.90173,14234
1227.169142,14451
1228.435982,14459
1229.702249,13990
1230.967945,14363
1232.233069,14004
1233.497621,14155
1234.761602,14211
1236.025013,14082
1237.287852,14045
1238.550121,14268
1239.81182,14109
1241.072949,14175
1242.333509,14125
1243.593498,14080
1244.852919,14241
1246.11177,14004
1247.370053,14237
1248.627767,14120
1249.884912,14069
1251.14149,14216
1252.397499,14403
1253.652942,14600
1254.907816,14738
1256.162124,14586
1257.415864,14867
1258.669038,14631
1259.921646,14850
1261.173687,14990
1262.425162,14767
1263.676071,15177
1264.926415,15105
1266.176194,15414
1267.425408,14870
1268.674056,14909
1269.92214,15050
1271.16966,15048
1272.416616,14477
1273.663008,14646
1274.908836,14530
1276.1541,14596
1277.398802,14744
1278.64294,14162
1279.886516,14318
1281.129529,13980
1282.37198,14369
1283.613869,13968
1284.855196,14240
1286.095962,13914
1287.336166,13809
1288.575809,13674
1289.814891,13879
1291.053413,13884
1292.291374,13902
1293.528775,13754
1294.765616,13860
1296.001897,13819
1297.237618,13745
1298.472781,13775
1299.707384,13935
1300.941428,13759
1302.174914,13887
1303.407842,13832
1304.640211,13995
1305.872022,14095
1307.103276,14093
1308.333972,14261
1309.564111,14312
1310.793693,14509
1312.022719,14273
1313.251187,14636
1314.4791,14540
1315.706456,14771
1316.933256,15046
1318.159501,15200
1319.38519,15025
1320.610324,15250
1321.834903,15195
1323.058928,15354
1324.282398,15114
1325.505313,15286
1326.727675,15519
1327.949482,15557
1329.170736,15395
1330.391437,15084
1331.611584,15535
1332.831179,15703
1334.050221,15586
1335.26871,15225
1336.486647,15416
1337.704032,15035
1338.920865,15415
1340.137147,15251
1341.352877,15178
1342.568056,15341
1343.782684,15409
1344.996761,15135
1346.210288,15193
1347.423265,14921
1348.635691,15376
1349.847568,15678
1351.058895,15265
1352.269673,15082
1353.479901,15406
1354.689581,15126
1355.898712,15346
1357.107294,15312
1358.315329,15469
1359.522815,15447
1360.729753,15273
1361.936144,15465
1363.141987,15770
1364.347283,15410
1365.552032,15637
1366.756235,15552
1367.959891,15706
1369.163,15485
1370.365564,15305
1371.567582,15898
1372.769054,15655
1373.96998,15539
1375.170362,15748
1376.370198,15520
1377.56949,14891
1378.768237,14657
1379.96644,14749
1381.164099,14562
1382.361214,14851
1383.557785,14817
1384.753813,14856
1385.949297,14452
1387.144239,14286
1388.338637,14487
1389.532493,14444
1390.725807,14120
1391.918579,13987
1393.110808,13675
1394.302496,13547
1395.493643,13395
1396.684248,13666
1397.874312,13155
1399.063835,13209
1400.252818,13193
1401.44126,13037
1402.629162,13164
1403.816524,12655
1405.003346,12926
1406.189629,13004
1407.375372,12826
1408.560576,12853
1409.745241,12647
1410.929368,12583
1412.112956,12804
1413.296006,12420
1414.478517,12670
1415.660491,12215
1416.841927,12581
1418.022826,12331
1419.203188,12206
1420.383012,12116
1421.5623,12643
1422.741051,12244
1423.919266,12291
1425.096945,12349
1426.274088,12202
1427.450695,12297
1428.626766,12022
1429.802302,12329
1430.977303,12272
1432.15177,12469
1433.325701,12136
1434.499098,12096
1435.671961,12018
1436.84429,12232
1438.016085,12218
1439.187347,11998
1440.358075,12000
1441.528269,12020
1442.697931,12250
1443.86706,12026
1445.035657,12150
1446.203721,12002
1447.371253,12251
1448.538253,11905
1449.704721,12024
1450.870658,12513
1452.036064,12209
1453.200938,12225
1454.365282,12344
1455.529094,12808
1456.692377,12902
1457.855129,12570
1459.017351,13142
1460.179043,12863
1461.340206,12894
1462.500839,12739
1463.660943,12735
1464.820517,12311
1465.979563,12251
1467.138081,-5
1468.29607,11893
1469.453531,11795
1470.610464,11503
1471.766869,11467
1472.922746,11208
1474.078096,11032
1475.232919,11013
1476.387215,10733
1477.540985,10639
1478.694227,10534
1479.846944,10632
1480.999134,10610
1482.150798,10240
1483.301937,10227
1484.45255,10217
1485.602637,10302
1486.7522,10443
1487.901238,10346
1489.049751,10087
1490.197739,10218
1491.345203,10387
1492.492144,10169
1493.63856,10293
1494.784452,10059
1495.929821,10069
1497.074667,10285
1498.21899,10046
1499.36279,10174
1500.506067,10045
1501.648821,10274
1502.791054,10404
1503.932764,10304
1505.073953,10014
1506.21462,10206
1507.354765,10073
1508.494389,9962
1509.633492,10128
1510.772074,10153
1511.910136,9991
1513.047677,10184
1514.184698,10340
1515.321198,10162
1516.457179,10270
1517.592641,10053
1518.727582,10254
1519.862005,10139
1520.995909,10179
1522.129293,10763
1523.262159,10384
1524.394507,10494
1525.526336,10443
1526.657647,10653
1527.788441,10255
1528.918717,10510
1530.048475,10199
1531.177716,10101
1532.30644,10530
1533.434647,10589
1534.562338,10797
1535.689512,10667
1536.816169,10888
1537.942311,10907
1539.067937,10954
1540.193047,11012
1541.317642,10593
1542.441721,10866
1543.565285,10765
1544.688335,10572
1545.81087,10869
1546.93289,11070
1548.054396,11082
1549.175388,11154
1550.295866,10983
1551.41583,11080
1552.535281,10956
1553.654218,11204
1554.772643,11205
1555.890554,11069
1557.007953,11399
1558.124839,11285
1559.241213,11355
1560.357075,11478
1561.472424,11056
1562.587262,11421
1563.701589,11498
1564.815404,11501
1565.928708,12029
1567.041501,11571
1568.153783,11584
1569.265555,11914
1570.376816,11660
1571.487567,11466
1572.597808,11829
1573.707539,11360
1574.816761,11824
1575.925473,11833
1577.033676,12115
1578.14137,12210
1579.248555,12056
1580.355231,12296
1581.461399,12044
1582.567059,12107
1583.672211,12481
1584.776854,12330
1585.88099,12860
1586.984619,12761
1588.08774,12269
1589.190354,12256
1590.292462,13351
1591.394062,13118
1592.495156,13292
1593.595744,13156
1594.695825,13840
1595.795401,13469
1596.89447,13496
1597.993034,13945
1599.091093,13465
1600.188647,14067
1601.285695,14114
1602.382239,14013
1603.478278,14350
1604.573812,14350
1605.668843,14683
1606.763369,14640
1607.857391,14784
1608.95091,15159
1610.043925,15228
1611.136437,15467
1612.228446,15534
1613.319952,15931
1614.410955,16041
1615.501455,16118
1616.591453,15609
1617.680949,16056
1618.769943,15977
1619.858435,16298
1620.946426,16479
1622.033915,16496
1623.120903,16475
1624.20739,16852
1625.293376,16778
1626.378861,16655
1627.463845,17030
1628.54833,16767
1629.632314,17073
1630.715799,17081
1631.798783,16801
1632.881268,17211
1633.963254,17091
1635.04474,16762
1636.125728,17412
1637.206216,17188
1638.286206,17153
1639.365698,17065
1640.444691,16901
1641.523187,16954
1642.601184,16660
1643.678683,16726
1644.755686,17040
1645.83219,16750
1646.908198,16674
1647.983708,16724
1649.058722,16401
1650.133239,16403
1651.20726,16399
1652.280785,16306
1653.353813,16325
1654.426346,16176
1655.498383,16113
1656.569924,15609
1657.64097,15885
1658.711521,15764
1659.781577,15252
1660.851139,15244
1661.920205,15174
1662.988777,15296
1664.056855,15044
1665.124439,14650
1666.191529,14744
1667.258126,14726
1668.324229,14405
1669.389838,14265
1670.454955,14065
1671.519578,13931
1672.583709,13908
1673.647347,13450
1674.710493,13258
1675.773147,12876
1676.835308,12897
1677.896978,12522
1678.958155,12448
1680.018842,12095
1681.079037,12022
1682.138741,12106
1683.197954,11944
1684.256676,11614
1685.314908,11423
1686.372649,11149
1687.4299,11085
1688.48666,10749
1689.542931,10519
1690.598713,10201
1691.654004,10184
1692.708807,10226
1693.76312,10082
1694.816944,9869
1695.870279,9678
1696.923126,9822
1697.975484,9626
1699.027354,9403
1700.078736,9414
1701.12963,9141
1702.180036,9139
1703.229955,9365
1704.279386,8821
1705.32833,9057
1706.376787,8724
1707.424757,8531
1708.47224,8780
1709.519237,8332
1710.565748,8314
1711.611772,8077
1712.65731,8049
1713.702363,8087
1714.74693,8016
1715.791011,7506
1716.834608,7588
1717.877719,7582
1718.920345,7333
1719.962486,7327
1721.004143,7272
1722.045316,7062
1723.086004,7047
1724.126208,6878
1725.165929,7051
1726.205165,6414
1727.243918,6603
1728.282188,6585
1729.319975,6932
1730.357278,6445
1731.394099,6494
1732.430437,6401
1733.466293,6278
1734.501666,6014
1735.536557,6120
1736.570967,6308
1737.604894,5510
1738.63834,5886
1739.671304,5938
1740.703787,5731
1741.735789,5766
1742.767311,5732
1743.798351,5489
1744.828911,5454
1745.85899,5563
1746.888589,5507
1747.917708,5318
1748.946348,5274
1749.974507,5454
1751.002187,5169
1752.029388,5407
1753.056109,5061
1754.082351,5140
1755.108115,5160
1756.1334,5110
1757.158206,5067
1758.182534,4900
1759.206384,4619
1760.229755,5031
1761.252649,4591
1762.275065,4559
1763.297004,4948
1764.318466,4603
1765.33945,4683
1766.359957,4481
1767.379988,4629
1768.399542,4512
1769.418619,4501
1770.43722,4197
1771.455345,4454
1772.472994,4072
1773.490167,3984
1774.506865,4044
1775.523087,4150
1776.538834,3942
1777.554106,3994
1778.568902,4034
1779.583224,3844
1780.597072,3765
1781.610444,4132
1782.623343,3911
1783.635768,4046
1784.647718,3987
1785.659195,3720
1786.670198,3679
1787.680728,3987
1788.690784,3832
1789.700368,3765
1790.709478,3802
1791.718116,3855
1792.726281,3935
1793.733973,3707
1794.741194,3680
1795.747942,3676
1796.754218,3547
1797.760023,3697
1798.765356,3527
1799.770217,3781
1800.774607,3717
1801.778526,3761
1802.781974,3598
1803.784952,3773
1804.787458,3620
1805.789495,3622
1806.791061,3380
1807.792156,3788
1808.792782,3428
1809.792938,3607
1810.792625,3369
1811.791842,3517
1812.79059,3362
1813.788868,3616
1814.786678,3625
1815.784019,3376
1816.780891,3520
1817.777295,3644
1818.77323,3455
1819.768697,3154
1820.763697,3386
1821.758228,3289
1822.752292,3383
1823.745888,3217
1824.739017,3468
1825.731679,3359
1826.723874,3510
1827.715602,3389
1828.706863,3454
1829.697658,3301
1830.687986,3481
1831.677848,3252
1832.667244,3272
1833.656175,3238
1834.644639,3294
1835.632638,3280
1836.620172,3363
1837.60724,2995
1838.593844,3615
1839.579982,3216
1840.565656,3268
1841.550865,3305
1842.53561,3275
1843.51989,3129
1844.503706,3252
1845.487059,3222
1846.469947,3148
1847.452372,3243
1848.434334,3302
1849.415832,2912
1850.396867,2920
1851.377439,3306
1852.357549,2991
1853.337195,3337
1854.31638,2692
1855.295101,3220
1856.273361,3237
1857.251159,3061
1858.228494,3364
1859.205369,3148
1860.181781,3136
1861.157732,2826
1862.133222,3002
1863.108251,2961
1864.082819,3034
1865.056926,2840
1866.030573,2886
1867.003759,3164
1867.976485,2816
1868.948751,2900
1869.920556,2933
1870.891902,3015
1871.862789,2832
1872.833216,3059
1873.803183,2702
1874.772691,2890
1875.741741,2821
1876.710331,2678
1877.678463,2623
1878.646136,2804
1879.613351,2833
1880.580108,2810
1881.546406,2540
1882.512247,2721
1883.47763,2811
1884.442555,2902
1885.407023,2871
1886.371033,2849
1887.334586,2684
1888.297683,2547
1889.260322,2619
1890.222505,2633
1891.184231,2580
1892.145501,2536
1893.106315,2727
1894.066673,2805
1895.026574,2630
1895.98602,2669
1896.945011,2781
1897.903546,2747
1898.861626,2534
1899.81925,2910
1900.77642,2866
1901.733135,2618
1902.689395,2695
1903.6452,2443
1904.600551,2560
1905.555448,2619
1906.509891,2825
1907.46388,2645
1908.417416,2501
1909.370498,2759
1910.323126,2485
1911.275301,2514
1912.227023,2746
1913.178292,2676
1914.129108,2753
1915.079471,2580
1916.029382,2685
1916.97884,2773
1917.927846,2675
1918.876401,2594
1919.824503,2776
1920.772153,2860
1921.719352,2534
1922.6661,2591
1923.612396,2158
1924.558241,2852
1925.503635,2723
1926.448578,2535
1927.39307,2789
1928.337112,2852
1929.280703,2657
1930.223844,2793
1931.166535,2667
1932.108776,2888
1933.050568,2528
1933.991909,2866
1934.932801,2760
1935.873244,2805
1936.813238,2746
1937.752782,3043
1938.691878,2618
1939.630525,3020
1940.568723,2922
1941.506473,2734
1942.443774,2885
1943.380627,2784
1944.317033,3005
1945.25299,3011
1946.1885,3059
1947.123562,2920
1948.058177,2884
1948.992344,2830
1949.926065,2825
1950.859338,2779
1951.792165,2754
1952.724545,3100
1953.656478,3016
1954.587965,2748
1955.519006,2719
1956.4496,2826
1957.379749,3043
1958.309452,3000
1959.238709,2828
1960.167521,2837
1961.095888,2494
1962.023809,2857
1962.951285,3080
1963.878317,2941
1964.804903,2652
1965.731045,2545
1966.656743,2654
1967.581996,2986
1968.506805,2682
1969.43117,2564
1970.355091,2658
1971.278568,2668
1972.201602,2779
1973.124192,2730
1974.046339,2928
1974.968043,2811
1975.889304,2756
1976.810122,2723
1977.730498,2744
1978.65043,2944
1979.569921,2825
1980.488969,2825
1981.407574,2797
1982.325738,2632
1983.24346,2858
1984.160741,2752
1985.077579,2420
1985.993977,2446
1986.909933,2720
1987.825448,2933
1988.740522,2652
1989.655155,2747
1990.569347,2963
1991.483099,2995
1992.396411,2780
1993.309282,2925
1994.221713,2611
1995.133704,2927
1996.045256,2889
1996.956367,2842
1997.867039,2690
1998.777272,2925
1999.687065,3061
2000.596419,2950
2001.505335,2842
2002.413811,2926
2003.321849,3000
2004.229448,2858
2005.136609,2829
2006.043331,2727
2006.949616,2877
2007.855462,3006
2008.760871,3035
2009.665841,2702
2010.570375,2741
2011.47447,3038
2012.378129,2942
2013.281351,3037
2014.184135,2959
2015.086483,2666
2015.988393,2947
2016.889868,2946
2017.790906,3044
2018.691507,2883
2019.591673,2958
2020.491402,3109
2021.390695,3082
2022.289553,3082
2023.187975,2849
2024.085962,3003
2024.983514,3074
2025.88063,3012
2026.777311,2930
2027.673557,3118
2028.569369,2799
2029.464746,3222
2030.359688,3128
2031.254197,2840
2032.148271,3061
2033.04191,2871
2033.935116,3000
2034.827889,2915
2035.720227,2901
2036.612132,2776
2037.503604,3063
2038.394642,3095
2039.285248,2969
2040.17542,2884
2041.06516,2892
2041.954466,3149
2042.843341,3059
2043.731783,2878
2044.619792,3015
2045.50737,3022
2046.394516,2934
2047.281229,2801
2048.167511,2894
2049.053362,2935
2049.938781,2907
2050.823768,2902
2051.708325,2718
2052.59245,3082
2053.476145,2923
2054.359409,2665
2055.242242,2881
2056.124645,2937
2057.006617,2927
2057.888159,2849
2058.769271,2744
2059.649953,3230
2060.530206,2852
2061.410028,2727
2062.289421,2842
2063.168385,3027
2064.046919,3117
2064.925025,2956
2065.802701,2967
2066.679949,2877
2067.556767,2561
2068.433157,2830
2069.309119,3117
2070.184652,2793
2071.059758,2922
2071.934435,2900
2072.808684,2994
2073.682505,2966
2074.555899,3018
2075.428865,2961
2076.301404,2781
2077.173516,2743
2078.0452,2776
2078.916458,2828
2079.787289,2698
2080.657693,2940
2081.52767,2975
2082.397221,2658
2083.266346,2809
2084.135044,3091
2085.003316,3315
2085.871163,2911
2086.738584,2952
2087.605579,2986
2088.472148,2971
2089.338292,3063
2090.204011,2861
2091.069305,2986
2091.934174,2822
2092.798618,2841
2093.662637,2873
2094.526231,2850
2095.389402,2892
2096.252147,2944
2097.114469,2808
2097.976366,2914
2098.83784,2716
2099.69889,2897
2100.559516,2856
2101.419719,3041
2102.279498,2932
2103.138854,2827
2103.997786,2596
2104.856296,2877
2105.714383,2870
2106.572047,2944
2107.429289,2883
2108.286108,2908
2109.142504,2814
2109.998479,2620
2110.854031,2950
2111.709161,2907
2112.56387,2788
2113.418156,2771
2114.272021,2516
2115.125465,2874
2115.978487,2697
2116.831089,2917
2117.683269,2765
2118.535028,2636
2119.386366,2493
2120.237284,2756
2121.087781,2608
2121.937857,2930
2122.787514,2820
2123.63675,2844
2124.485566,2516
2125.333962,2707
2126.181939,2537
2127.029496,2791
2127.876633,2669
2128.723351,2554
2129.569649,2503
2130.415529,2782
2131.260989,2513
2132.106031,2442
2132.950654,2500
2133.794858,2319
2134.638643,2745
2135.482011,2710
2136.32496,2402
2137.167491,2466
2138.009604,2459
2138.851299,2488
2139.692576,2505
2140.533436,2384
2141.373878,2505
2142.213903,2599
2143.05351,2473
2143.892701,2544
2144.731474,2650
2145.569831,2374
2146.407771,2565
2147.245294,2556
2148.082401,2355
2148.919091,2348
2149.755365,2342
2150.591224,2384
2151.426666,2465
2152.261692,2257
2153.096302,2268
2153.930497,2305
2154.764277,2168
2155.597641,2392
2156.43059,2242
2157.263124,2257
2158.095242,2394
2158.926946,2408
2159.758236,2352
2160.58911,2205
2161.41957,2270
2162.249616,2260
2163.079248,2034
2163.908465,2248
2164.737269,2458
2165.565658,2345
2166.393634,1842
2167.221196,2466
2168.048345,2215
2168.87508,2308
2169.701402,2350
2170.527311,1956
2171.352807,2045
2172.177891,2243
2173.002561,2210
2173.826819,2213
2174.650664,2116
2175.474097,2118
2176.297117,2343
2177.119726,2033
2177.941922,2286
2178.763707,2130
2179.58508,2185
2180.406041,2231
2181.22659,1942
2182.046729,2339
2182.866456,2003
2183.685771,2224
2184.504676,2205
2185.32317,2045
2186.141253,2065
2186.958925,2311
2187.776187,2227
2188.593038,1898
2189.409479,1784
2190.22551,1930
2191.041131,2061
2191.856342,2059
2192.671143,1872
2193.485534,1919
2194.299516,1997
2195.113088,2030
2195.926251,2007
2196.739005,1944
2197.551349,2067
2198.363285,2226
2199.174812,2199
2199.98593,1885
2200.796639,2131
2201.60694,1779
2202.416832,1841
2203.226317,1913
2204.035393,1544
2204.844061,1837
2205.652321,1553
2206.460173,1690
2207.267618,1622
2208.074655,2022
2208.881285,1864
2209.687507,1832
2210.493322,1741
2211.29873,1913
2212.103732,1873
2212.908326,1805
2213.712513,1839
2214.516294,1974
2215.319669,1546
2216.122637,1618
2216.925199,1528
2217.727355,1309
2218.529105,1696
2219.330449,1515
2220.131387,1679
2220.931919,1573
2221.732046,1586
2222.531768,1795
2223.331084,1835
2224.129995,1385
2224.928501,1534
2225.726602,1574
2226.524298,1663
2227.321589,1507
2228.118476,1636
2228.914959,1238
2229.711037,1726
2230.50671,1803
2231.30198,1449
2232.096846,1412
2232.891307,1636
2233.685365,1466
2234.479019,1485
2235.27227,1294
2236.065117,1751
2236.857561,1638
2237.649602,1409
2238.441239,1352
2239.232474,1576
2240.023306,1463
2240.813735,1417
2241.603761,1356
2242.393385,1598
2243.182607,1612
2243.971426,1425
2244.759843,1380
2245.547858,1331
2246.335471,1488
2247.122682,1464
2247.909492,1532
2248.6959,1232
2249.481906,1401
2250.267511,1404
2251.052715,1368
2251.837518,1410
2252.621919,1091
2253.40592,1160
2254.18952,1500
2254.972719,1254
2255.755518,1358
2256.537916,1177
2257.319914,1293
2258.101512,1226
2258.88271,1329
2259.663507,1022
2260.443905,1278
2261.223903,1396
2262.003501,1335
2262.7827,1274
2263.561499,1100
2264.339899,1171
2265.1179,1258
2265.895501,917
2266.672704,1114
2267.449508,1035
2268.225913,1189
2269.001919,928
2269.777527,1154
2270.552737,1029
2271.327548,1095
2272.101961,1028
2272.875975,1189
2273.649592,1078
2274.422811,974
2275.195632,1093
2275.968056,1475
2276.740082,1194
2277.511711,1087
2278.282942,1216
2279.053776,1024
2279.824213,1201
2280.594253,1041
2281.363897,1095
2282.133143,1055
2282.901993,832
2283.670446,738
2284.438503,954
2285.206164,943
2285.973428,1035
2286.740296,938
2287.506769,759
2288.272845,734
2289.038526,989
2289.803811,1063
2290.5687,1100
2291.333194,997
2292.097293,1035
2292.860997,1036
2293.624305,1073
2294.387219,1013
2295.149737,914
2295.911861,1041
2296.67359,733
2297.434925,1048
2298.195865,1194
2298.956411,909
2299.716562,1096
2300.47632,788
2301.235683,982
2301.994653,780
2302.753229,860
2303.511411,715
2304.269199,819
2305.026594,1068
2305.783596,868
2306.540204,1051
2307.29642,1043
2308.052242,755
2308.807671,923
2309.562708,863
2310.317351,1159
2311.071603,849
2311.825461,883
2312.578928,1039
2313.332002,899
2314.084684,769
2314.836973,912
2315.588871,1039
2316.340377,845
2317.091491,681
2317.842214,774
2318.592545,805
2319.342485,835
2320.092033,942
2320.84119,776
2321.589956,875
2322.338331,924
2323.086315,895
2323.833908,958
2324.581111,740
2325.327923,911
2326.074345,967
2326.820376,751
2327.566017,841
2328.311268,1139
2329.056129,827
2329.800599,869
2330.54468,889
2331.288372,1058
2332.031673,615
2332.774585,691
2333.517108,634
2334.259242,906
2335.000986,715
2335.742341,721
2336.483307,741
2337.223884,664
2337.964073,879
2338.703872,649
2339.443283,706
2340.182306,786
2340.92094,743
2341.659187,791
2342.397044,924
2343.134514,474
2343.871596,665
2344.60829,627
2345.344597,711
2346.080515,491
2346.816046,841
2347.55119,438
2348.285946,637
2349.020316,509
2349.754298,757
2350.487893,470
2351.221101,575
2351.953922,460
2352.686356,374
2353.418404,640
2354.150066,697
2354.881341,767
2355.61223,621
2356.342732,694
2357.072849,613
2357.802579,374
2358.531924,895
2359.260883,686
2359.989456,485
2360.717643,676
2361.445445,576
2362.172862,593
2362.899893,545
2363.626539,488
2364.352801,753
2365.078677,559
2365.804168,358
2366.529275,360
2367.253996,685
2367.978334,540
2368.702286,701
2369.425855,694
2370.149039,650
2370.871839,680
2371.594255,482
2372.316287,672
2373.037935,329
2373.7592,672
2374.48008,792
2375.200578,348
2375.920691,418
2376.640422,478
2377.359769,523
2378.078733,343
2378.797314,638
2379.515511,379
2380.233327,467
2380.950759,353
2381.667808,585
2382.384476,502
2383.10076,405
2383.816663,659
2384.532183,504
2385.24732,418
2385.962076,523
2386.67645,380
2387.390442,469
2388.104052,263
2388.817281,352
2389.530128,493
2390.242593,577
2390.954677,380
2391.66638,359
2392.377702,327
2393.088643,486
2393.799202,446
2394.509381,277
2395.219179,247
2395.928596,499
2396.637633,432
2397.346289,397
2398.054565,132
2398.762461,231
2399.469976,381
2400.177111,307
2400.883867,202
2401.590242,323
2402.296238,247
2403.001854,426
2403.70709,303
2404.411947,323
2405.116424,291
2405.820522,373
2406.524241,355
2407.227581,197
2407.930542,149
2408.633123,401
2409.335326,144
2410.037151,313
