Wave shift,Intensity
-31.722347,8720
-29.886687,9282
-28.051868,10875
-26.217889,12558
-24.384749,14296
-22.552448,17037
-20.720985,18796
-18.890361,21494
-17.060575,24117
-15.231626,27190
-13.403514,31637
-11.576239,36200
-9.749799,43998
-7.924195,45543
-6.099426,37032
-4.275492,36988
-2.452392,41406
-0.630127,37102
1.191306,33862
3.011906,32604
4.831672,38264
6.650607,41111
8.46871,27325
10.285982,22605
12.102423,19734
13.918034,18001
15.732815,16677
17.546766,16899
19.359888,16051
21.172181,14917
22.983647,12453
24.794284,10947
26.604094,10542
28.413077,10868
30.221233,8849
32.028563,8159
33.835068,6944
35.640747,6480
37.445602,5614
39.249632,6227
41.052838,5424
42.855221,5753
44.656781,5605
46.457517,5797
48.257432,4912
50.056525,5453
51.854796,6645
53.652246,5957
55.448876,6141
57.244685,5864
59.039675,6263
60.833846,6629
62.627197,6751
64.41973,6665
66.211446,6792
68.002343,7564
69.792423,7635
71.581687,7088
73.370134,9015
75.157765,8480
76.944581,9688
78.730581,10294
80.515767,10873
82.300139,12490
84.083697,13175
85.866441,13610
87.648372,14876
89.429491,15973
91.209797,19369
92.989292,20302
94.767976,22473
96.545848,25146
98.32291,30875
100.099162,35105
101.874604,34016
103.649237,37594
105.423061,37858
107.196077,42684
108.968284,41663
110.739684,41170
112.510277,39769
114.280063,39897
116.049042,40028
117.817216,43486
119.584584,49351
121.351147,46055
123.116905,45159
124.881859,46136
126.646009,39477
128.409356,50018
130.171899,49392
131.93364,47884
133.694578,40360
135.454715,46201
137.21405,45737
138.972584,43272
140.730317,53422
142.48725,49076
144.243384,42405
145.998718,49221
147.753252,45716
149.506989,50017
151.259927,51348
153.012067,55231
154.76341,50307
156.513956,54426
158.263705,52687
160.012659,53586
161.760816,50688
163.508178,54210
165.254745,53491
167.000518,55044
168.745496,56061
170.489681,55164
172.233072,55743
173.975671,58556
175.717476,53312
177.45849,57073
179.198712,54694
180.938142,57164
182.676782,55420
184.414631,58070
186.15169,57377
187.887959,55981
189.623439,59536
191.35813,57182
193.092032,58575
194.825147,58415
196.557473,58493
198.289012,59176
200.019764,58819
201.74973,58684
203.478909,59800
205.207303,60069
206.934911,60562
208.661735,60822
210.387773,58978
212.113028,59680
213.837499,59769
215.561186,60603
217.28409,60731
219.006212,60557
220.727552,60752
222.44811,61653
224.167886,61624
225.886881,61112
227.605096,61387
229.32253,61062
231.039185,61179
232.75506,61070
234.470156,60206
236.184473,61654
237.898012,61193
239.610773,61316
241.322757,62461
243.033964,62387
244.744393,61487
246.454047,62243
248.162924,62034
249.871026,62067
251.578353,62450
253.284905,62148
254.990683,63182
256.695686,62385
258.399916,62806
260.103373,62911
261.806057,62964
263.507968,63249
265.209107,62763
266.909475,62671
268.609071,62922
270.307897,62468
272.005952,63041
273.703236,63156
275.399751,63082
277.095497,62999
278.790473,63530
280.484681,63003
282.178121,63242
283.870793,63591
285.562697,40888
287.253835,40505
288.944205,38880
290.633809,30839
292.322648,32316
294.010721,36466
295.698028,38563
297.384571,40196
299.070349,38308
300.755364,39686
302.439614,34849
304.123102,35038
305.805826,37262
307.487788,35422
309.168988,35447
310.849426,40287
312.529103,33399
314.208018,33199
315.886173,23271
317.563568,37080
319.240203,38096
320.916079,40160
322.591195,36134
324.265552,38634
325.939151,34882
327.611993,35130
329.284076,35684
330.955402,36603
332.625972,42413
334.295785,37257
335.964841,34307
337.633142,31540
339.300688,38416
340.967479,30059
342.633515,37801
344.298796,35934
345.963324,36716
347.627098,35232
349.29012,40368
350.952388,35673
352.613904,37305
354.274668,34086
355.93468,33858
357.593941,38234
359.252451,38483
360.910211,31555
362.56722,36795
364.22348,33181
365.87899,30803
367.533751,41104
369.187763,35138
370.841027,33780
372.493543,36981
374.145311,42584
375.796332,37856
377.446607,23169
379.096134,42420
380.744916,34651
382.392952,31674
384.040242,37836
385.686787,47067
387.332588,37028
388.977645,39700
390.621957,36427
392.265526,41914
393.908351,31222
395.550434,39980
397.191775,37864
398.832373,28632
400.472229,39583
402.111344,43337
403.749718,43034
405.387351,39186
407.024244,30054
408.660397,37804
410.295811,40231
411.930485,41209
413.56442,40077
415.197617,47793
416.830076,25798
418.461796,40690
420.09278,40593
421.723026,36781
423.352536,29791
424.981309,32429
426.609346,37753
428.236648,35727
429.863214,41619
431.489046,44114
433.114143,29623
434.738505,39919
436.362134,32902
437.98503,31472
439.607192,35883
441.228621,33060
442.849318,38474
444.469283,31183
446.088516,37432
447.707018,32750
449.324789,28420
450.941829,35467
452.558139,31858
454.173719,38298
455.78857,6601
457.402691,36550
459.016083,38380
460.628747,38205
462.240682,39385
463.85189,39285
465.46237,36263
467.072124,39414
468.68115,31473
470.28945,39657
471.897024,33697
473.503872,34002
475.109995,39877
476.715393,35183
478.320066,40499
479.924015,34633
481.52724,36437
483.129741,35633
484.731519,33086
486.332575,38670
487.932907,27069
489.532517,37595
491.131406,30815
492.729573,30921
494.327019,36959
495.923744,37105
497.519748,28802
499.115033,35660
500.709597,39503
502.303442,38142
503.896568,36613
505.488976,34931
507.080665,38538
508.671635,37682
510.261889,28961
511.851424,36555
513.440243,32964
515.028345,38193
516.615731,39271
518.202401,36983
519.788355,35150
521.373593,42230
522.958117,35753
524.541926,29396
526.125021,36640
527.707402,29881
529.28907,37037
530.870024,25287
532.450265,30486
534.029794,35442
535.60861,34463
537.186715,42161
538.764108,32492
540.340789,29613
541.91676,38773
543.492021,39522
545.066571,33115
546.640411,35156
548.213542,32063
549.785964,31105
551.357676,40133
552.928681,35430
554.498977,44414
556.068565,32388
557.637446,41387
559.20562,44031
560.773087,40259
562.339847,35805
563.905901,33456
565.47125,32038
567.035893,30898
568.599831,32314
570.163064,36769
571.725593,36298
573.287417,37631
574.848538,41763
576.408955,35897
577.968669,33539
579.52768,36051
581.085989,31620
582.643596,39368
584.200501,36963
585.756704,32068
587.312207,40729
588.867008,38746
590.42111,38876
591.974511,34056
593.527212,35176
595.079214,30538
596.630516,38863
598.18112,39190
599.731025,24432
601.280232,36058
602.828742,38823
604.376554,36762
605.923668,38737
607.470086,32908
609.015808,39397
610.560833,36102
612.105162,38837
613.648796,35777
615.191735,34828
616.733979,33170
618.275528,37927
619.816383,32449
621.356544,31213
622.896012,37216
624.434787,37947
625.972868,33069
627.510257,33243
629.046954,37738
630.582959,32910
632.118272,33323
633.652894,37364
635.186825,36822
636.720066,37068
638.252616,33171
639.784476,36374
641.315647,31038
642.846128,29388
644.37592,32634
645.905024,33076
647.433439,27851
648.961166,35821
650.488206,35993
652.014558,30845
653.540223,32308
655.065201,35578
656.589493,35303
658.113099,34937
659.636019,35032
661.158253,34706
662.679803,34960
664.200668,35050
665.720848,34392
667.240344,34339
668.759156,34618
670.277284,34418
671.79473,34279
673.311492,34005
674.827572,34014
676.34297,33324
677.857686,33537
679.37172,33444
680.885072,28254
682.397744,33294
683.909735,33020
685.421046,32995
686.931677,32793
688.441628,30685
689.950899,32353
691.459492,32699
692.967406,32672
694.474641,32169
695.981198,32162
697.487078,16550
698.992279,32480
700.496804,31854
702.000652,31651
703.503823,29258
705.006318,30017
706.508137,31550
708.00928,31640
709.509748,31462
711.009541,31181
712.50866,31431
714.007104,30981
715.504874,29612
717.00197,31117
718.498393,31251
719.994142,30744
721.489219,30766
722.983624,31159
724.477356,30763
725.970416,29182
727.462805,30609
728.954522,30750
730.445569,25393
731.935944,30364
733.42565,30725
734.914685,30355
736.403051,30715
737.890748,30174
739.377775,30038
740.864133,27663
742.349823,30430
743.834845,29786
745.319199,30334
746.802886,29971
748.285905,30194
749.768257,30227
751.249943,29922
752.730962,29845
754.211315,29846
755.691003,29413
757.170025,29478
758.648382,29260
760.126075,29547
761.603102,29260
763.079466,29343
764.555166,29078
766.030202,28954
767.504575,28908
768.978285,29078
770.451332,28658
771.923717,29004
773.39544,28829
774.866501,28427
776.3369,28567
777.806639,28276
779.275716,28638
780.744134,28351
782.21189,28048
783.678987,27914
785.145425,27588
786.611203,27960
788.076322,27546
789.540782,27368
791.004583,27190
792.467727,26835
793.930213,26577
795.392041,26473
796.853212,26328
798.313726,26651
799.773584,26112
801.232785,25995
802.69133,26063
804.14922,25543
805.606454,25698
807.063032,25754
808.518956,25280
809.974226,24988
811.428841,25134
812.882802,25293
814.33611,24881
815.788764,25029
817.240766,24716
818.692114,24195
820.14281,24716
821.592854,24315
823.042246,24153
824.490986,23684
825.939075,23790
827.386514,23930
828.833301,23390
830.279438,23287
831.724925,23280
833.169762,23460
834.61395,23001
836.057488,22900
837.500378,23190
838.942619,22922
840.384212,22520
841.825156,22763
843.265453,22649
844.705102,16595
846.144105,22588
847.58246,22290
849.020169,22152
850.457231,21555
851.893648,22135
853.329418,21824
854.764544,21919
856.199024,21488
857.632859,21714
859.06605,21752
860.498597,21181
861.9305,21438
863.361759,21103
864.792374,21473
866.222347,20723
867.651677,20815
869.080364,21541
870.508409,20352
871.935812,20899
873.362574,20412
874.788694,20506
876.214173,20071
877.639011,20590
879.063209,20258
880.486766,20235
881.909684,20032
883.331962,19762
884.753601,19971
886.174601,19777
887.594961,19768
889.014684,19189
890.433768,19586
891.852214,19530
893.270023,19185
894.687194,19106
896.103729,18917
897.519626,18724
898.934887,18845
900.349512,18849
901.763501,18470
903.176854,18617
904.589572,17998
906.001655,18073
907.413103,17781
908.823917,18101
910.234096,17983
911.643642,18149
913.052554,17933
914.460832,17811
915.868477,17917
917.27549,17742
918.68187,17565
920.087618,17391
921.492734,17596
922.897218,17607
924.301071,17353
925.704292,17273
927.106883,17158
928.508844,16984
929.910174,16968
931.310874,16941
932.710944,16575
934.110385,16537
935.509197,16654
936.907379,16992
938.304934,16577
939.70186,16564
941.098158,15883
942.493828,16609
943.88887,16213
945.283286,16057
946.677075,16677
948.070236,16320
949.462772,16515
950.854681,16063
952.245965,16399
953.636623,16095
955.026656,15763
956.416064,16184
957.804847,15944
959.193006,15890
960.58054,16952
961.967451,16030
963.353738,16078
964.739402,16698
966.124442,15746
967.50886,15954
968.892656,16061
970.275829,15809
971.65838,16034
973.04031,15729
974.421618,15872
975.802305,15699
977.182371,15641
978.561816,15836
979.940641,15383
981.318846,15979
982.696432,15446
984.073398,15833
985.449744,15477
986.825472,15306
988.200581,15444
989.575072,15766
990.948944,15557
992.322199,15623
993.694836,15331
995.066855,15309
996.438258,15749
997.809044,15187
999.179213,15832
1000.548766,15416
1001.917703,15385
1003.286024,15357
1004.65373,14798
1006.020821,15268
1007.387297,15009
1008.753158,15577
1010.118405,15133
1011.483038,14935
1012.847057,15175
1014.210462,14927
1015.573254,15035
1016.935433,14767
1018.296999,14694
1019.657953,14848
1021.018295,15158
1022.378025,15226
1023.737143,14742
1025.095649,14701
1026.453544,14775
1027.810829,14857
1029.167503,14922
1030.523566,14764
1031.87902,14591
1033.233863,14442
1034.588097,14405
1035.941722,14620
1037.294738,14717
1038.647145,14350
1039.998943,14412
1041.350133,14283
1042.700716,14703
1044.05069,14299
1045.400057,14085
1046.748817,14649
1048.09697,14262
1049.444516,14668
1050.791456,14750
1052.13779,14571
1053.483518,14431
1054.82864,14712
1056.173157,14616
1057.517069,14758
1058.860376,14620
1060.203079,14870
1061.545177,14591
1062.886671,14941
1064.227562,14458
1065.567848,14820
1066.907532,14932
1068.246613,14708
1069.585091,15021
1070.922966,14495
1072.260239,14616
1073.596911,14192
1074.93298,14367
1076.268448,14227
1077.603315,13858
1078.937581,14138
1080.271247,14124
1081.604312,14158
1082.936776,13826
1084.268641,14203
1085.599907,14288
1086.930573,13684
1088.260639,14083
1089.590107,13787
1090.918977,13458
1092.247248,14024
1093.574921,13783
1094.901996,13808
1096.228474,13988
1097.554354,13777
1098.879637,13916
1100.204323,14180
1101.528413,13743
1102.851907,14140
1104.174804,13773
1105.497106,14000
1106.818812,13915
1108.139923,13738
1109.460439,13892
1110.78036,13801
1112.099687,13847
1113.41842,13522
1114.736558,13851
1116.054103,14081
1117.371054,13869
1118.687412,13322
1120.003177,13569
1121.318349,13700
1122.632929,13385
1123.946916,13341
1125.260312,13601
1126.573116,13407
1127.885328,13511
1129.196949,13539
1130.507979,13195
1131.818419,13505
1133.128268,13288
1134.437527,13516
1135.746195,13434
1137.054275,13334
1138.361764,13045
1139.668665,12643
1140.974976,12586
1142.280699,12921
1143.585833,12755
1144.890379,12531
1146.194337,12592
1147.497708,12576
1148.800491,12621
1150.102687,12198
1151.404295,12820
1152.705318,12245
1154.005753,12672
1155.305603,12835
1156.604866,12475
1157.903544,12719
1159.201636,12909
1160.499143,12487
1161.796065,12636
1163.092402,12566
1164.388155,12390
1165.683324,12469
1166.977908,12616
1168.271909,12604
1169.565326,12847
1170.85816,12677
1172.150411,12649
1173.44208,12580
1174.733165,12870
1176.023669,12394
1177.31359,12663
1178.60293,12885
1179.891688,12999
1181.179865,12513
1182.467461,12493
1183.754476,12240
1185.04091,12583
1186.326765,12260
1187.612039,12451
1188.896733,12365
1190.180848,12552
1191.464383,12606
1192.747339,12494
1194.029717,12770
1195.311515,12179
1196.592736,12823
1197.873378,12407
1199.153442,12430
1200.432929,12468
1201.711838,12580
1202.990171,12428
1204.267926,12454
1205.545105,12494
1206.821707,12848
1208.097733,12582
1209.373183,12451
1210.648057,13025
1211.922356,12904
1213.196079,12491
1214.469228,12514
1215.741802,12400
1217.013801,12783
1218.285226,12615
1219.556077,12646
1220.826355,12720
1222.096058,12619
1223.365189,12792
1224.633746,12356
1225.90173,12588
1227.169142,12496
1228.435982,12418
1229.702249,12654
1230.967945,12183
1232.233069,12447
1233.497621,12589
1234.761602,11945
1236.025013,11979
1237.287852,12132
1238.550121,12140
1239.81182,11927
1241.072949,11773
1242.333509,11862
1243.593498,12213
1244.852919,12093
1246.11177,11866
1247.370053,12047
1248.627767,12084
1249.884912,12497
1251.14149,11961
1252.397499,12307
1253.652942,11726
1254.907816,11995
1256.162124,12049
1257.415864,11997
1258.669038,11834
1259.921646,11892
1261.173687,11832
1262.425162,11999
1263.676071,12177
1264.926415,12202
1266.176194,11976
1267.425408,12053
1268.674056,11884
1269.92214,12099
1271.16966,12287
1272.416616,12165
1273.663008,12307
1274.908836,12155
1276.1541,12094
1277.398802,11956
1278.64294,11843
1279.886516,11724
1281.129529,11916
1282.37198,11883
1283.613869,11935
1284.855196,11644
1286.095962,11766
1287.336166,11702
1288.575809,11758
1289.814891,11604
1291.053413,11670
1292.291374,11385
1293.528775,11718
1294.765616,11677
1296.001897,11837
1297.237618,11494
1298.472781,11755
1299.707384,11714
1300.941428,11949
1302.174914,11869
1303.407842,11832
1304.640211,11448
1305.872022,11525
1307.103276,11367
1308.333972,11595
1309.564111,11229
1310.793693,11110
1312.022719,11621
1313.251187,11928
1314.4791,11876
1315.706456,11599
1316.933256,11433
1318.159501,11613
1319.38519,11460
1320.610324,11543
1321.834903,11138
1323.058928,11293
1324.282398,11825
1325.505313,11459
1326.727675,11448
1327.949482,11432
1329.170736,11243
1330.391437,11605
1331.611584,11526
1332.831179,11501
1334.050221,11486
1335.26871,11548
1336.486647,11365
1337.704032,11948
1338.920865,11355
1340.137147,11330
1341.352877,11605
1342.568056,11379
1343.782684,11086
1344.996761,11556
1346.210288,11414
1347.423265,11087
1348.635691,11066
1349.847568,11072
1351.058895,11007
1352.269673,10970
1353.479901,10760
1354.689581,10792
1355.898712,11165
1357.107294,10846
1358.315329,11169
1359.522815,11003
1360.729753,11028
1361.936144,10963
1363.141987,11005
1364.347283,10837
1365.552032,11124
1366.756235,10950
1367.959891,10606
1369.163,10833
1370.365564,10869
1371.567582,10942
1372.769054,11004
1373.96998,10498
1375.170362,10571
1376.370198,11015
1377.56949,11165
1378.768237,11175
1379.96644,10757
1381.164099,10754
1382.361214,10722
1383.557785,10829
1384.753813,10934
1385.949297,10775
1387.144239,11031
1388.338637,10631
1389.532493,10595
1390.725807,10478
1391.918579,10862
1393.110808,11008
1394.302496,10580
1395.493643,10910
1396.684248,10162
1397.874312,10467
1399.063835,10398
1400.252818,10474
1401.44126,10484
1402.629162,10278
1403.816524,10272
1405.003346,10401
1406.189629,10559
1407.375372,10296
1408.560576,10078
1409.745241,10237
1410.929368,10199
1412.112956,9896
1413.296006,10395
1414.478517,10210
1415.660491,10149
1416.841927,10264
1418.022826,10190
1419.203188,10260
1420.383012,10397
1421.5623,10419
1422.741051,10421
1423.919266,10076
1425.096945,10471
1426.274088,10191
1427.450695,10024
1428.626766,10283
1429.802302,10145
1430.977303,10306
1432.15177,10076
1433.325701,10293
1434.499098,10420
1435.671961,10463
1436.84429,10540
1438.016085,10413
1439.187347,10287
1440.358075,10370
1441.528269,10382
1442.697931,10036
1443.86706,10379
1445.035657,10086
1446.203721,10602
1447.371253,10374
1448.538253,10138
1449.704721,10618
1450.870658,10109
1452.036064,10119
1453.200938,10153
1454.365282,10105
1455.529094,9747
1456.692377,10015
1457.855129,9824
1459.017351,10065
1460.179043,9637
1461.340206,9960
1462.500839,9928
1463.660943,9602
1464.820517,9997
1465.979563,9589
1467.138081,253
1468.29607,10042
1469.453531,9890
1470.610464,9351
1471.766869,9499
1472.922746,9782
1474.078096,9445
1475.232919,9617
1476.387215,9654
1477.540985,9716
1478.694227,9538
1479.846944,9789
1480.999134,9517
1482.150798,9735
1483.301937,9440
1484.45255,9679
1485.602637,9687
1486.7522,9541
1487.901238,9362
1489.049751,10060
1490.197739,9730
1491.345203,9438
1492.492144,9897
1493.63856,9532
1494.784452,9740
1495.929821,9808
1497.074667,9832
1498.21899,10023
1499.36279,9723
1500.506067,9899
1501.648821,9679
1502.791054,9412
1503.932764,9822
1505.073953,9986
1506.21462,9828
1507.354765,9660
1508.494389,10000
1509.633492,9871
1510.772074,9749
1511.910136,9768
1513.047677,9698
1514.184698,9660
1515.321198,9766
1516.457179,9961
1517.592641,10022
1518.727582,10091
1519.862005,9795
1520.995909,9666
1522.129293,9671
1523.262159,9736
1524.394507,10224
1525.526336,9626
1526.657647,10301
1527.788441,10108
1528.918717,9956
1530.048475,10206
1531.177716,10217
1532.30644,10211
1533.434647,10263
1534.562338,10224
1535.689512,10322
1536.816169,10221
1537.942311,10370
1539.067937,10666
1540.193047,10309
1541.317642,11030
1542.441721,10623
1543.565285,10600
1544.688335,10303
1545.81087,10603
1546.93289,10533
1548.054396,10606
1549.175388,10639
1550.295866,10618
1551.41583,10720
1552.535281,10871
1553.654218,11015
1554.772643,11018
1555.890554,10884
1557.007953,10778
1558.124839,11056
1559.241213,11148
1560.357075,11076
1561.472424,11047
1562.587262,11019
1563.701589,11151
1564.815404,11125
1565.928708,11639
1567.041501,11428
1568.153783,11398
1569.265555,11332
1570.376816,11549
1571.487567,11586
1572.597808,11436
1573.707539,11561
1574.816761,11724
1575.925473,11955
1577.033676,11637
1578.14137,11796
1579.248555,11877
1580.355231,11640
1581.461399,11888
1582.567059,11979
1583.672211,11437
1584.776854,12117
1585.88099,12474
1586.984619,12066
1588.08774,12504
1589.190354,12223
1590.292462,12285
1591.394062,12584
1592.495156,12816
1593.595744,12664
1594.695825,13182
1595.795401,12765
1596.89447,13041
1597.993034,12949
1599.091093,13491
1600.188647,13226
1601.285695,13425
1602.382239,13567
1603.478278,13707
1604.573812,13894
1605.668843,14035
1606.763369,13935
1607.857391,14108
1608.95091,14050
1610.043925,14332
1611.136437,14774
1612.228446,14738
1613.319952,14722
1614.410955,14648
1615.501455,14915
1616.591453,15248
1617.680949,15522
1618.769943,15515
1619.858435,15676
1620.946426,15600
1622.033915,15630
1623.120903,15711
1624.20739,15778
1625.293376,14761
1626.378861,16145
1627.463845,16002
1628.54833,15726
1629.632314,15773
1630.715799,15657
1631.798783,16177
1632.881268,16214
1633.963254,15824
1635.04474,16249
1636.125728,16437
1637.206216,15925
1638.286206,15941
1639.365698,15986
1640.444691,16151
1641.523187,16183
1642.601184,15765
1643.678683,15899
1644.755686,16197
1645.83219,16052
1646.908198,15914
1647.983708,15577
1649.058722,16078
1650.133239,15679
1651.20726,15123
1652.280785,15174
1653.353813,15085
1654.426346,15362
1655.498383,14928
1656.569924,14922
1657.64097,14988
1658.711521,15349
1659.781577,14714
1660.851139,14794
1661.920205,14737
1662.988777,14746
1664.056855,14723
1665.124439,14391
1666.191529,14076
1667.258126,13737
1668.324229,14147
1669.389838,13638
1670.454955,13714
1671.519578,13289
1672.583709,13547
1673.647347,13314
1674.710493,12571
1675.773147,12621
1676.835308,12347
1677.896978,12674
1678.958155,12289
1680.018842,11888
1681.079037,11889
1682.138741,11904
1683.197954,11109
1684.256676,11033
1685.314908,10917
1686.372649,10889
1687.4299,10946
1688.48666,11031
1689.542931,10217
1690.598713,10331
1691.654004,10377
1692.708807,9881
1693.76312,10412
1694.816944,9867
1695.870279,9924
1696.923126,9729
1697.975484,9567
1699.027354,9419
1700.078736,9164
1701.12963,9512
1702.180036,8829
1703.229955,9026
1704.279386,8816
1705.32833,8690
1706.376787,8404
1707.424757,8445
1708.47224,8512
1709.519237,8137
1710.565748,8552
1711.611772,8039
1712.65731,7829
1713.702363,7924
1714.74693,7883
1715.791011,7769
1716.834608,7950
1717.877719,7795
1718.920345,7834
1719.962486,7448
1721.004143,7257
1722.045316,7470
1723.086004,7288
1724.126208,7074
1725.165929,7087
1726.205165,7313
1727.243918,7055
1728.282188,6896
1729.319975,6811
1730.357278,6760
1731.394099,7009
1732.430437,6624
1733.466293,6516
1734.501666,6448
1735.536557,6321
1736.570967,6855
1737.604894,6385
1738.63834,6097
1739.671304,6353
1740.703787,5937
1741.735789,6234
1742.767311,6327
1743.798351,6303
1744.828911,5991
1745.85899,5631
1746.888589,5928
1747.917708,5778
1748.946348,5686
1749.974507,5762
1751.002187,5928
1752.029388,6047
1753.056109,5868
1754.082351,5390
1755.108115,5346
1756.1334,5289
1757.158206,5414
1758.182534,5326
1759.206384,5616
1760.229755,5492
1761.252649,5165
1762.275065,5547
1763.297004,5457
1764.318466,5132
1765.33945,4983
1766.359957,5011
1767.379988,5118
1768.399542,4733
1769.418619,4978
1770.43722,4894
1771.455345,4958
1772.472994,4911
1773.490167,4767
1774.506865,4898
1775.523087,4461
1776.538834,4571
1777.554106,4602
1778.568902,4924
1779.583224,4899
1780.597072,4659
1781.610444,4520
1782.623343,4913
1783.635768,4158
1784.647718,4638
1785.659195,4284
1786.670198,4208
1787.680728,4453
1788.690784,4343
1789.700368,4423
1790.709478,4523
1791.718116,4388
1792.726281,4425
1793.733973,4312
1794.741194,4500
1795.747942,4160
1796.754218,4445
1797.760023,4527
1798.765356,4613
1799.770217,4481
1800.774607,4402
1801.778526,4733
1802.781974,3934
1803.784952,4377
1804.787458,4019
1805.789495,4318
1806.791061,4299
1807.792156,4030
1808.792782,4231
1809.792938,4192
1810.792625,4202
1811.791842,4034
1812.79059,3987
1813.788868,4018
1814.786678,4055
1815.784019,4354
1816.780891,4065
1817.777295,4052
1818.77323,4072
1819.768697,4192
1820.763697,4240
1821.758228,4313
1822.752292,4186
1823.745888,4305
1824.739017,4062
1825.731679,3882
1826.723874,3879
1827.715602,4093
1828.706863,3951
1829.697658,4120
1830.687986,3900
1831.677848,3918
1832.667244,4259
1833.656175,3696
1834.644639,4112
1835.632638,4085
1836.620172,4116
1837.60724,3798
1838.593844,4038
1839.579982,3862
1840.565656,3815
1841.550865,3900
1842.53561,3997
1843.51989,4056
1844.503706,3907
1845.487059,3762
1846.469947,4086
1847.452372,4235
1848.434334,3891
1849.415832,3894
1850.396867,3716
1851.377439,4176
1852.357549,3852
1853.337195,3780
1854.31638,3528
1855.295101,4211
1856.273361,3801
1857.251159,3811
1858.228494,3873
1859.205369,3615
1860.181781,3562
1861.157732,3831
1862.133222,3596
1863.108251,3621
1864.082819,3866
1865.056926,3794
1866.030573,3750
1867.003759,3470
1867.976485,3767
1868.948751,3829
1869.920556,3448
1870.891902,3993
1871.862789,3404
1872.833216,3418
1873.803183,3903
1874.772691,3509
1875.741741,3705
1876.710331,3724
1877.678463,3538
1878.646136,3620
1879.613351,3447
1880.580108,3303
1881.546406,3702
1882.512247,3655
1883.47763,3398
1884.442555,3592
1885.407023,3392
1886.371033,3401
1887.334586,3900
1888.297683,3675
1889.260322,3740
1890.222505,3380
1891.184231,3439
1892.145501,3303
1893.106315,3414
1894.066673,3619
1895.026574,3459
1895.98602,3412
1896.945011,3682
1897.903546,3186
1898.861626,3430
1899.81925,3556
1900.77642,3536
1901.733135,3202
1902.689395,3383
1903.6452,3361
1904.600551,3638
1905.555448,3827
1906.509891,3318
1907.46388,3420
1908.417416,3555
1909.370498,3720
1910.323126,3194
1911.275301,3365
1912.227023,3673
1913.178292,3626
1914.129108,3391
1915.079471,3401
1916.029382,3613
1916.97884,3653
1917.927846,3304
1918.876401,3620
1919.824503,3539
1920.772153,3677
1921.719352,3413
1922.6661,3635
1923.612396,3866
1924.558241,3582
1925.503635,3485
1926.448578,3013
1927.39307,3740
1928.337112,3599
1929.280703,3449
1930.223844,3305
1931.166535,3621
1932.108776,3339
1933.050568,3170
1933.991909,3811
1934.932801,3875
1935.873244,3377
1936.813238,3630
1937.752782,3267
1938.691878,3616
1939.630525,3424
1940.568723,3583
1941.506473,3366
1942.443774,3538
1943.380627,3293
1944.317033,3952
1945.25299,3524
1946.1885,3843
1947.123562,3382
1948.058177,3805
1948.992344,3595
1949.926065,3797
1950.859338,3482
1951.792165,3591
1952.724545,3523
1953.656478,3792
1954.587965,3495
1955.519006,3569
1956.4496,3660
1957.379749,3666
1958.309452,3489
1959.238709,3418
1960.167521,3233
1961.095888,3833
1962.023809,3717
1962.951285,3549
1963.878317,3775
1964.804903,3525
1965.731045,3427
1966.656743,3783
1967.581996,3477
1968.506805,3474
1969.43117,4117
1970.355091,3456
1971.278568,3448
1972.201602,3305
1973.124192,3803
1974.046339,3545
1974.968043,3633
1975.889304,3235
1976.810122,3581
1977.730498,3732
1978.65043,3541
1979.569921,3501
1980.488969,3772
1981.407574,3621
1982.325738,3876
1983.24346,3237
1984.160741,3563
1985.077579,3889
1985.993977,3739
1986.909933,3873
1987.825448,3469
1988.740522,3260
1989.655155,3611
1990.569347,3554
1991.483099,3553
1992.396411,3625
1993.309282,3440
1994.221713,3898
1995.133704,3377
1996.045256,3729
1996.956367,3737
1997.867039,3554
1998.777272,3539
1999.687065,3765
2000.596419,3627
2001.505335,3437
2002.413811,3538
2003.321849,4072
2004.229448,3495
2005.136609,3644
2006.043331,3835
2006.949616,3779
2007.855462,3537
2008.760871,3672
2009.665841,3659
2010.570375,3946
2011.47447,3830
2012.378129,3823
2013.281351,3855
2014.184135,3508
2015.086483,3805
2015.988393,3772
2016.889868,3656
2017.790906,3642
2018.691507,3335
2019.591673,3609
2020.491402,3674
2021.390695,3843
2022.289553,3700
2023.187975,3736
2024.085962,3715
2024.983514,3649
2025.88063,3652
2026.777311,3965
2027.673557,3708
2028.569369,3668
2029.464746,3801
2030.359688,3630
2031.254197,3843
2032.148271,3881
2033.04191,4024
2033.935116,3799
2034.827889,3935
2035.720227,3982
2036.612132,3433
2037.503604,3362
2038.394642,3948
2039.285248,3604
2040.17542,3835
2041.06516,3781
2041.954466,3504
2042.843341,3787
2043.731783,3881
2044.619792,3730
2045.50737,3693
2046.394516,3799
2047.281229,3686
2048.167511,4041
2049.053362,3733
2049.938781,3709
2050.823768,3826
2051.708325,3525
2052.59245,3691
2053.476145,4177
2054.359409,3723
2055.242242,3635
2056.124645,3511
2057.006617,3806
2057.888159,3741
2058.769271,3500
2059.649953,3706
2060.530206,3426
2061.410028,3797
2062.289421,3637
2063.168385,3565
2064.046919,3341
2064.925025,3591
2065.802701,3735
2066.679949,3657
2067.556767,3853
2068.433157,3727
2069.309119,3772
2070.184652,3770
2071.059758,3817
2071.934435,3935
2072.808684,3446
2073.682505,3615
2074.555899,3761
2075.428865,3751
2076.301404,3874
2077.173516,3947
2078.0452,3874
2078.916458,3681
2079.787289,3608
2080.657693,3904
2081.52767,3548
2082.397221,3704
2083.266346,3865
2084.135044,3775
2085.003316,3679
2085.871163,3629
2086.738584,3839
2087.605579,3841
2088.472148,3552
2089.338292,3574
2090.204011,3531
2091.069305,3724
2091.934174,3769
2092.798618,3399
2093.662637,3703
2094.526231,3556
2095.389402,3720
2096.252147,3399
2097.114469,3816
2097.976366,3626
2098.83784,3396
2099.69889,3559
2100.559516,3740
2101.419719,3989
2102.279498,3686
2103.138854,3808
2103.997786,3578
2104.856296,3545
2105.714383,4269
2106.572047,3619
2107.429289,3626
2108.286108,3624
2109.142504,3623
2109.998479,3675
2110.854031,3586
2111.709161,3261
2112.56387,3440
2113.418156,3736
2114.272021,3244
2115.125465,3529
2115.978487,3839
2116.831089,3347
2117.683269,3624
2118.535028,3566
2119.386366,3663
2120.237284,3380
2121.087781,3552
2121.937857,3207
2122.787514,3850
2123.63675,3582
2124.485566,3238
2125.333962,3524
2126.181939,3494
2127.029496,3250
2127.876633,3761
2128.723351,3178
2129.569649,3587
2130.415529,3211
2131.260989,3308
2132.106031,3667
2132.950654,3206
2133.794858,3680
2134.638643,3488
2135.482011,3302
2136.32496,3612
2137.167491,3234
2138.009604,3261
2138.851299,3311
2139.692576,3429
2140.533436,3433
2141.373878,3049
2142.213903,3283
2143.05351,3326
2143.892701,3243
2144.731474,3429
2145.569831,3053
2146.407771,3024
2147.245294,3323
2148.082401,3428
2148.919091,3183
2149.755365,3261
2150.591224,3053
2151.426666,3102
2152.261692,3103
2153.096302,3258
2153.930497,3199
2154.764277,2773
2155.597641,2913
2156.43059,3006
2157.263124,3576
2158.095242,3324
2158.926946,3009
2159.758236,3163
2160.58911,3091
2161.41957,3372
2162.249616,3135
2163.079248,3003
2163.908465,2810
2164.737269,3102
2165.565658,3127
2166.393634,3000
2167.221196,3040
2168.048345,3091
2168.87508,3008
2169.701402,3102
2170.527311,2959
2171.352807,3042
2172.177891,2778
2173.002561,3091
2173.826819,2880
2174.650664,2886
2175.474097,2972
2176.297117,3130
2177.119726,2764
2177.941922,3062
2178.763707,3076
2179.58508,2918
2180.406041,2805
2181.22659,3345
2182.046729,2725
2182.866456,3046
2183.685771,3073
2184.504676,2853
2185.32317,3245
2186.141253,3113
2186.958925,2673
2187.776187,3081
2188.593038,2833
2189.409479,3063
2190.22551,2889
2191.041131,2845
2191.856342,2833
2192.671143,3013
2193.485534,3112
2194.299516,2707
2195.113088,2963
2195.926251,2875
2196.739005,3079
2197.551349,2949
2198.363285,2684
2199.174812,2642
2199.98593,2492
2200.796639,3456
2201.60694,2925
2202.416832,2669
2203.226317,2968
2204.035393,2805
2204.844061,2701
2205.652321,2857
2206.460173,2709
2207.267618,2647
2208.074655,2457
2208.881285,2797
2209.687507,2647
2210.493322,2657
2211.29873,2850
2212.103732,2607
2212.908326,2579
2213.712513,2638
2214.516294,2341
2215.319669,2479
2216.122637,2594
2216.925199,2512
2217.727355,2558
2218.529105,2949
2219.330449,2650
2220.131387,2736
2220.931919,2229
2221.732046,2473
2222.531768,2661
2223.331084,2492
2224.129995,2361
2224.928501,2391
2225.726602,2665
2226.524298,2265
2227.321589,2333
2228.118476,2553
2228.914959,2552
2229.711037,2573
2230.50671,2355
2231.30198,2279
2232.096846,2415
2232.891307,2237
2233.685365,2573
2234.479019,2364
2235.27227,2186
2236.065117,2606
2236.857561,2647
2237.649602,2053
2238.441239,2461
2239.232474,2202
2240.023306,2374
2240.813735,2564
2241.603761,2917
2242.393385,2347
2243.182607,2058
2243.971426,2265
2244.759843,2143
2245.547858,2437
2246.335471,2244
2247.122682,2249
2247.909492,2235
2248.6959,2120
2249.481906,2235
2250.267511,2179
2251.052715,2067
2251.837518,2336
2252.621919,2024
2253.40592,2642
2254.18952,2266
2254.972719,2512
2255.755518,2074
2256.537916,1800
2257.319914,2432
2258.101512,2272
2258.88271,2212
2259.663507,2428
2260.443905,2389
2261.223903,2285
2262.003501,2365
2262.7827,2118
2263.561499,2234
2264.339899,1955
2265.1179,1951
2265.895501,2439
2266.672704,2107
2267.449508,2269
2268.225913,1900
2269.001919,2244
2269.777527,1964
2270.552737,2314
2271.327548,2037
2272.101961,1929
2272.875975,2021
2273.649592,1827
2274.422811,2223
2275.195632,2231
2275.968056,2347
2276.740082,1739
2277.511711,2166
2278.282942,2228
2279.053776,1852
2279.824213,2056
2280.594253,1982
2281.363897,2463
2282.133143,1702
2282.901993,2190
2283.670446,1761
2284.438503,1795
2285.206164,2076
2285.973428,1834
2286.740296,1832
2287.506769,1953
2288.272845,1810
2289.038526,1956
2289.803811,1934
2290.5687,1955
2291.333194,2399
2292.097293,1871
2292.860997,2001
2293.624305,2217
2294.387219,2028
2295.149737,1884
2295.911861,1780
2296.67359,1789
2297.434925,1747
2298.195865,2172
2298.956411,2123
2299.716562,1803
2300.47632,2167
2301.235683,1922
2301.994653,1969
2302.753229,1872
2303.511411,2092
2304.269199,1786
2305.026594,1971
2305.783596,1809
2306.540204,1948
2307.29642,1710
2308.052242,1928
2308.807671,1892
2309.562708,1763
2310.317351,1803
2311.071603,1926
2311.825461,2022
2312.578928,1944
2313.332002,1634
2314.084684,1838
2314.836973,1817
2315.588871,1811
2316.340377,1645
2317.091491,1766
2317.842214,1832
2318.592545,1963
2319.342485,1838
2320.092033,1807
2320.84119,1748
2321.589956,1960
2322.338331,1956
2323.086315,1883
2323.833908,1586
2324.581111,2352
2325.327923,1779
2326.074345,1964
2326.820376,1916
2327.566017,1703
2328.311268,1816
2329.056129,1948
2329.800599,1519
2330.54468,1867
2331.288372,1884
2332.031673,1838
2332.774585,1732
2333.517108,1902
2334.259242,1968
2335.000986,1843
2335.742341,1887
2336.483307,1770
2337.223884,1858
2337.964073,1877
2338.703872,1654
2339.443283,1850
2340.182306,1841
2340.92094,1389
2341.659187,1589
2342.397044,1605
2343.134514,2283
2343.871596,1513
2344.60829,1411
2345.344597,1523
2346.080515,2137
2346.816046,1668
2347.55119,1979
2348.285946,1526
2349.020316,1736
2349.754298,1267
2350.487893,1425
2351.221101,1596
2351.953922,1602
2352.686356,1801
2353.418404,1426
2354.150066,1579
2354.881341,1553
2355.61223,1821
2356.342732,1661
2357.072849,1662
2357.802579,1288
2358.531924,1513
2359.260883,1819
2359.989456,1577
2360.717643,1515
2361.445445,1625
2362.172862,1669
2362.899893,1596
2363.626539,1625
2364.352801,1696
2365.078677,1509
2365.804168,1989
2366.529275,1608
2367.253996,1653
2367.978334,1536
2368.702286,1645
2369.425855,1439
2370.149039,1856
2370.871839,1781
2371.594255,1618
2372.316287,1699
2373.037935,1410
2373.7592,1464
2374.48008,1321
2375.200578,1402
2375.920691,1276
2376.640422,1603
2377.359769,1847
2378.078733,1589
2378.797314,1590
2379.515511,1469
2380.233327,1484
2380.950759,1728
2381.667808,1513
2382.384476,1317
2383.10076,1485
2383.816663,1446
2384.532183,1452
2385.24732,1535
2385.962076,1513
2386.67645,1433
2387.390442,1256
2388.104052,1458
2388.817281,1376
2389.530128,1195
2390.242593,1651
2390.954677,1427
2391.66638,1673
2392.377702,1367
2393.088643,1514
2393.799202,1400
2394.509381,1268
2395.219179,1427
2395.928596,1300
2396.637633,1159
2397.346289,1189
2398.054565,1268
2398.762461,1124
2399.469976,1316
2400.177111,1088
2400.883867,1619
2401.590242,1282
2402.296238,1254
2403.001854,1198
2403.70709,1118
2404.411947,874
2405.116424,1062
2405.820522,992
2406.524241,760
2407.227581,955
2407.930542,997
2408.633123,978
2409.335326,928
2410.037151,1050
