Wave shift,Intensity
-31.722347,9129
-29.886687,9878
-28.051868,11424
-26.217889,12965
-24.384749,15017
-22.552448,17371
-20.720985,19511
-18.890361,22050
-17.060575,25024
-15.231626,28140
-13.403514,32756
-11.576239,37907
-9.749799,45777
-7.924195,45546
-6.099426,37035
-4.275492,36991
-2.452392,41409
-0.630127,37105
1.191306,33865
3.011906,32607
4.831672,38267
6.650607,41114
8.46871,28206
10.285982,23540
12.102423,20710
13.918034,19582
15.732815,18211
17.546766,17447
19.359888,16450
21.172181,15799
22.983647,13339
24.794284,11553
26.604094,10862
28.413077,10871
30.221233,9351
32.028563,8460
33.835068,7267
35.640747,6825
37.445602,5981
39.249632,6270
41.052838,5790
42.855221,6212
44.656781,5799
46.457517,5818
48.257432,5291
50.056525,5373
51.854796,6844
53.652246,5784
55.448876,6219
57.244685,5963
59.039675,6096
60.833846,6936
62.627197,6608
64.41973,6747
66.211446,6893
68.002343,7370
69.792423,7822
71.581687,7114
73.370134,9034
75.157765,8742
76.944581,9725
78.730581,10293
80.515767,10703
82.300139,12417
84.083697,13265
85.866441,13852
87.648372,15135
89.429491,16044
91.209797,19334
92.989292,20321
94.767976,22346
96.545848,24961
98.32291,30832
100.099162,35035
101.874604,34019
103.649237,37597
105.423061,37861
107.196077,42687
108.968284,41666
110.739684,41173
112.510277,39772
114.280063,39900
116.049042,40031
117.817216,43489
119.584584,49354
121.351147,46058
123.116905,45162
124.881859,46139
126.646009,39480
128.409356,50021
130.171899,49395
131.93364,47887
133.694578,40363
135.454715,46204
137.21405,45740
138.972584,43275
140.730317,53425
142.48725,49079
144.243384,42408
145.998718,49224
147.753252,45719
149.506989,50020
151.259927,51351
153.012067,55234
154.76341,50310
156.513956,54429
158.263705,52690
160.012659,53589
161.760816,50691
163.508178,54213
165.254745,53494
167.000518,55047
168.745496,56064
170.489681,55167
172.233072,55746
173.975671,58559
175.717476,53315
177.45849,57076
179.198712,54697
180.938142,57167
182.676782,55423
184.414631,58073
186.15169,57380
187.887959,55984
189.623439,59539
191.35813,57185
193.092032,58578
194.825147,58418
196.557473,58496
198.289012,59179
200.019764,58822
201.74973,58687
203.478909,59803
205.207303,60072
206.934911,60565
208.661735,60825
210.387773,58981
212.113028,59683
213.837499,59772
215.561186,60606
217.28409,60734
219.006212,60560
220.727552,60755
222.44811,61656
224.167886,61627
225.886881,61115
227.605096,61390
229.32253,61065
231.039185,61182
232.75506,61073
234.470156,60209
236.184473,61657
237.898012,61196
239.610773,61319
241.322757,62464
243.033964,62390
244.744393,61490
246.454047,62246
248.162924,62037
249.871026,62070
251.578353,62453
253.284905,62151
254.990683,63185
256.695686,62388
258.399916,62809
260.103373,62914
261.806057,62967
263.507968,63252
265.209107,62766
266.909475,62674
268.609071,62925
270.307897,62471
272.005952,63044
273.703236,63159
275.399751,63085
277.095497,63002
278.790473,63533
280.484681,63006
282.178121,63245
283.870793,63594
285.562697,40891
287.253835,40508
288.944205,38883
290.633809,30842
292.322648,32319
294.010721,36469
295.698028,38566
297.384571,40199
299.070349,38311
300.755364,39689
302.439614,34852
304.123102,35041
305.805826,37265
307.487788,35425
309.168988,35450
310.849426,40290
312.529103,33402
314.208018,33202
315.886173,23274
317.563568,37083
319.240203,38099
320.916079,40163
322.591195,36137
324.265552,38637
325.939151,34885
327.611993,35133
329.284076,35687
330.955402,36606
332.625972,42416
334.295785,37260
335.964841,34310
337.633142,31543
339.300688,38419
340.967479,30062
342.633515,37804
344.298796,35937
345.963324,36719
347.627098,35235
349.29012,40371
350.952388,35676
352.613904,37308
354.274668,34089
355.93468,33861
357.593941,38237
359.252451,38486
360.910211,31558
362.56722,36798
364.22348,33184
365.87899,30806
367.533751,41107
369.187763,35141
370.841027,33783
372.493543,36984
374.145311,42587
375.796332,37859
377.446607,23172
379.096134,42423
380.744916,34654
382.392952,31677
384.040242,37839
385.686787,47070
387.332588,37031
388.977645,39703
390.621957,36430
392.265526,41917
393.908351,31225
395.550434,39983
397.191775,37867
398.832373,28635
400.472229,39586
402.111344,43340
403.749718,43037
405.387351,39189
407.024244,30057
408.660397,37807
410.295811,40234
411.930485,41212
413.56442,40080
415.197617,47796
416.830076,25801
418.461796,40693
420.09278,40596
421.723026,36784
423.352536,29794
424.981309,32432
426.609346,37756
428.236648,35730
429.863214,41622
431.489046,44117
433.114143,29626
434.738505,39922
436.362134,32905
437.98503,31475
439.607192,35886
441.228621,33063
442.849318,38477
444.469283,31186
446.088516,37435
447.707018,32753
449.324789,28423
450.941829,35470
452.558139,31861
454.173719,38301
455.78857,6604
457.402691,36553
459.016083,38383
460.628747,38208
462.240682,39388
463.85189,39288
465.46237,36266
467.072124,39417
468.68115,31476
470.28945,39660
471.897024,33700
473.503872,34005
475.109995,39880
476.715393,35186
478.320066,40502
479.924015,34636
481.52724,36440
483.129741,35636
484.731519,33089
486.332575,38673
487.932907,27072
489.532517,37598
491.131406,30818
492.729573,30924
494.327019,36962
495.923744,37108
497.519748,28805
499.115033,35663
500.709597,39506
502.303442,38145
503.896568,36616
505.488976,34934
507.080665,38541
508.671635,37685
510.261889,28964
511.851424,36558
513.440243,32967
515.028345,38196
516.615731,39274
518.202401,36986
519.788355,35153
521.373593,42233
522.958117,35756
524.541926,29399
526.125021,36643
527.707402,29884
529.28907,37040
530.870024,25290
532.450265,30489
534.029794,35445
535.60861,34466
537.186715,42164
538.764108,32495
540.340789,29616
541.91676,38776
543.492021,39525
545.066571,33118
546.640411,35159
548.213542,32066
549.785964,31108
551.357676,40136
552.928681,35433
554.498977,44521
556.068565,32391
557.637446,41390
559.20562,44034
560.773087,40262
562.339847,35808
563.905901,33459
565.47125,32041
567.035893,30901
568.599831,32317
570.163064,36772
571.725593,36301
573.287417,37634
574.848538,41766
576.408955,35900
577.968669,33542
579.52768,36054
581.085989,31623
582.643596,39371
584.200501,36966
585.756704,32071
587.312207,40976
588.867008,38749
590.42111,38879
591.974511,34059
593.527212,35179
595.079214,30541
596.630516,38866
598.18112,39193
599.731025,24435
601.280232,36061
602.828742,38826
604.376554,36765
605.923668,38740
607.470086,32911
609.015808,39439
610.560833,36105
612.105162,38840
613.648796,35780
615.191735,34831
616.733979,33173
618.275528,38401
619.816383,32452
621.356544,31216
622.896012,37219
624.434787,37889
625.972868,33072
627.510257,33246
629.046954,37708
630.582959,32913
632.118272,33326
633.652894,37477
635.186825,37016
636.720066,37178
638.252616,33174
639.784476,36864
641.315647,31041
642.846128,29391
644.37592,32637
645.905024,33079
647.433439,27854
648.961166,36182
650.488206,36112
652.014558,30848
653.540223,32311
655.065201,35581
656.589493,35297
658.113099,34940
659.636019,35276
661.158253,34709
662.679803,34881
664.200668,34818
665.720848,34640
667.240344,34693
668.759156,34411
670.277284,34421
671.79473,34179
673.311492,34032
674.827572,34005
676.34297,33750
677.857686,33787
679.37172,33456
680.885072,28257
682.397744,33519
683.909735,33075
685.421046,33366
686.931677,33008
688.441628,30688
689.950899,32543
691.459492,32542
692.967406,32897
694.474641,32466
695.981198,32369
697.487078,16553
698.992279,32623
700.496804,32124
702.000652,31971
703.503823,29261
705.006318,30020
706.508137,31791
708.00928,31736
709.509748,31823
711.009541,31327
712.50866,31321
714.007104,30984
715.504874,29615
717.00197,31275
718.498393,31354
719.994142,30925
721.489219,31161
722.983624,31233
724.477356,31126
725.970416,29185
727.462805,30641
728.954522,30977
730.445569,25396
731.935944,30465
733.42565,30681
734.914685,30278
736.403051,30788
737.890748,30446
739.377775,30286
740.864133,27666
742.349823,30313
743.834845,30340
745.319199,30099
746.802886,30165
748.285905,30183
749.768257,30230
751.249943,30268
752.730962,29877
754.211315,29974
755.691003,29809
757.170025,29535
758.648382,29263
760.126075,29776
761.603102,29783
763.079466,29339
764.555166,29248
766.030202,29514
767.504575,29114
768.978285,29109
770.451332,28807
771.923717,29024
773.39544,29161
774.866501,28871
776.3369,28874
777.806639,28440
779.275716,28660
780.744134,28535
782.21189,28273
783.678987,28039
785.145425,27750
786.611203,28120
788.076322,27551
789.540782,27536
791.004583,27354
792.467727,26901
793.930213,26882
795.392041,26593
796.853212,26408
798.313726,26619
799.773584,26485
801.232785,26133
802.69133,26019
804.14922,25702
805.606454,25842
807.063032,25790
808.518956,25438
809.974226,25503
811.428841,25183
812.882802,25219
814.33611,25019
815.788764,25115
817.240766,24857
818.692114,24081
820.14281,24494
821.592854,24570
823.042246,24402
824.490986,24228
825.939075,23838
827.386514,24049
828.833301,23457
830.279438,23235
831.724925,23378
833.169762,23417
834.61395,23114
836.057488,23137
837.500378,23125
838.942619,23343
840.384212,22884
841.825156,22787
843.265453,22507
844.705102,16598
846.144105,22698
847.58246,22322
849.020169,22144
850.457231,21984
851.893648,21939
853.329418,21825
854.764544,21841
856.199024,22022
857.632859,21580
859.06605,21641
860.498597,21499
861.9305,21137
863.361759,21457
864.792374,21254
866.222347,20835
867.651677,21129
869.080364,21254
870.508409,20647
871.935812,20927
873.362574,20530
874.788694,20484
876.214173,20415
877.639011,20575
879.063209,20195
880.486766,20171
881.909684,20090
883.331962,19855
884.753601,20143
886.174601,19867
887.594961,19829
889.014684,19171
890.433768,19564
891.852214,19709
893.270023,19547
894.687194,19440
896.103729,19035
897.519626,18928
898.934887,19314
900.349512,19096
901.763501,18662
903.176854,18610
904.589572,18316
906.001655,18339
907.413103,18068
908.823917,18109
910.234096,18047
911.643642,17936
913.052554,17885
914.460832,17858
915.868477,17948
917.27549,17529
918.68187,17604
920.087618,17644
921.492734,17587
922.897218,17592
924.301071,17554
925.704292,17672
927.106883,16912
928.508844,17085
929.910174,16970
931.310874,16903
932.710944,16714
934.110385,16940
935.509197,16620
936.907379,17115
938.304934,16586
939.70186,16699
941.098158,16208
942.493828,16880
943.88887,16316
945.283286,16347
946.677075,16656
948.070236,16356
949.462772,16414
950.854681,16064
952.245965,16350
953.636623,16312
955.026656,16094
956.416064,16271
957.804847,16072
959.193006,16161
960.58054,16822
961.967451,16209
963.353738,16379
964.739402,16662
966.124442,15849
967.50886,15709
968.892656,16050
970.275829,16125
971.65838,15751
973.04031,15570
974.421618,15783
975.802305,15443
977.182371,15776
978.561816,15952
979.940641,15661
981.318846,15808
982.696432,15678
984.073398,15858
985.449744,15454
986.825472,15417
988.200581,15884
989.575072,16013
990.948944,15615
992.322199,15719
993.694836,15560
995.066855,15472
996.438258,15660
997.809044,15308
999.179213,15796
1000.548766,15472
1001.917703,15482
1003.286024,15112
1004.65373,14992
1006.020821,15448
1007.387297,15394
1008.753158,15671
1010.118405,15266
1011.483038,15092
1012.847057,15326
1014.210462,15285
1015.573254,15034
1016.935433,14663
1018.296999,15130
1019.657953,14933
1021.018295,15024
1022.378025,15107
1023.737143,14927
1025.095649,14781
1026.453544,14803
1027.810829,15092
1029.167503,14676
1030.523566,14576
1031.87902,14646
1033.233863,14612
1034.588097,14544
1035.941722,14790
1037.294738,14978
1038.647145,14601
1039.998943,14466
1041.350133,14470
1042.700716,14557
1044.05069,14651
1045.400057,14594
1046.748817,14677
1048.09697,14641
1049.444516,14901
1050.791456,14705
1052.13779,14451
1053.483518,14562
1054.82864,14863
1056.173157,14584
1057.517069,14975
1058.860376,14553
1060.203079,15095
1061.545177,14762
1062.886671,14844
1064.227562,14912
1065.567848,14640
1066.907532,14906
1068.246613,14707
1069.585091,15124
1070.922966,14680
1072.260239,14778
1073.596911,14453
1074.93298,14780
1076.268448,14566
1077.603315,14140
1078.937581,14305
1080.271247,14170
1081.604312,14472
1082.936776,14051
1084.268641,14454
1085.599907,14271
1086.930573,13849
1088.260639,14152
1089.590107,13879
1090.918977,13655
1092.247248,14293
1093.574921,13725
1094.901996,13690
1096.228474,14122
1097.554354,14049
1098.879637,13900
1100.204323,14230
1101.528413,13887
1102.851907,13949
1104.174804,14240
1105.497106,13976
1106.818812,14135
1108.139923,13947
1109.460439,13896
1110.78036,13800
1112.099687,13884
1113.41842,13836
1114.736558,13689
1116.054103,13844
1117.371054,13746
1118.687412,13242
1120.003177,13420
1121.318349,13923
1122.632929,13352
1123.946916,13489
1125.260312,13577
1126.573116,13640
1127.885328,13454
1129.196949,13516
1130.507979,13310
1131.818419,13531
1133.128268,13450
1134.437527,13783
1135.746195,13180
1137.054275,13375
1138.361764,13292
1139.668665,12911
1140.974976,12781
1142.280699,12808
1143.585833,12745
1144.890379,12816
1146.194337,13194
1147.497708,12677
1148.800491,12796
1150.102687,12443
1151.404295,12958
1152.705318,12607
1154.005753,12758
1155.305603,13000
1156.604866,12581
1157.903544,12627
1159.201636,13034
1160.499143,12591
1161.796065,12694
1163.092402,12773
1164.388155,12541
1165.683324,12553
1166.977908,12535
1168.271909,12801
1169.565326,12824
1170.85816,12904
1172.150411,12754
1173.44208,12629
1174.733165,12866
1176.023669,12742
1177.31359,12756
1178.60293,12893
1179.891688,12811
1181.179865,12539
1182.467461,12269
1183.754476,12178
1185.04091,12478
1186.326765,12597
1187.612039,12598
1188.896733,12612
1190.180848,12599
1191.464383,12683
1192.747339,12446
1194.029717,13065
1195.311515,12574
1196.592736,13020
1197.873378,12487
1199.153442,12869
1200.432929,12759
1201.711838,12607
1202.990171,12842
1204.267926,12756
1205.545105,12493
1206.821707,12897
1208.097733,12687
1209.373183,12547
1210.648057,12956
1211.922356,12679
1213.196079,12649
1214.469228,12800
1215.741802,12616
1217.013801,12658
1218.285226,12396
1219.556077,12603
1220.826355,12566
1222.096058,12726
1223.365189,12769
1224.633746,12414
1225.90173,12378
1227.169142,12571
1228.435982,12179
1229.702249,12514
1230.967945,12519
1232.233069,12481
1233.497621,12736
1234.761602,12327
1236.025013,12305
1237.287852,12426
1238.550121,12141
1239.81182,11908
1241.072949,11922
1242.333509,12040
1243.593498,12055
1244.852919,12089
1246.11177,11876
1247.370053,12127
1248.627767,12248
1249.884912,12462
1251.14149,12032
1252.397499,12032
1253.652942,12104
1254.907816,11928
1256.162124,11933
1257.415864,11960
1258.669038,11796
1259.921646,11992
1261.173687,11726
1262.425162,11992
1263.676071,12258
1264.926415,12102
1266.176194,12050
1267.425408,12265
1268.674056,12108
1269.92214,12125
1271.16966,12247
1272.416616,12255
1273.663008,12480
1274.908836,12268
1276.1541,12285
1277.398802,12054
1278.64294,12069
1279.886516,12068
1281.129529,12106
1282.37198,11728
1283.613869,12155
1284.855196,12080
1286.095962,11792
1287.336166,11607
1288.575809,11946
1289.814891,11720
1291.053413,12002
1292.291374,11648
1293.528775,11526
1294.765616,11665
1296.001897,11910
1297.237618,11531
1298.472781,11840
1299.707384,11755
1300.941428,11843
1302.174914,11471
1303.407842,11866
1304.640211,11566
1305.872022,11661
1307.103276,11647
1308.333972,11448
1309.564111,11561
1310.793693,11353
1312.022719,11594
1313.251187,11640
1314.4791,11772
1315.706456,11570
1316.933256,11452
1318.159501,11557
1319.38519,11774
1320.610324,11498
1321.834903,11151
1323.058928,11394
1324.282398,11921
1325.505313,11671
1326.727675,11303
1327.949482,11550
1329.170736,11253
1330.391437,11453
1331.611584,11459
1332.831179,11392
1334.050221,11649
1335.26871,11298
1336.486647,11428
1337.704032,11600
1338.920865,11466
1340.137147,11539
1341.352877,11645
1342.568056,11752
1343.782684,11004
1344.996761,11293
1346.210288,11448
1347.423265,11018
1348.635691,11242
1349.847568,10980
1351.058895,10919
1352.269673,10922
1353.479901,10801
1354.689581,10609
1355.898712,11050
1357.107294,10936
1358.315329,11039
1359.522815,11031
1360.729753,10962
1361.936144,11053
1363.141987,11224
1364.347283,11135
1365.552032,11028
1366.756235,10895
1367.959891,10943
1369.163,10910
1370.365564,10979
1371.567582,10478
1372.769054,11148
1373.96998,10482
1375.170362,10783
1376.370198,10976
1377.56949,11103
1378.768237,11340
1379.96644,10905
1381.164099,10824
1382.361214,10700
1383.557785,10931
1384.753813,11138
1385.949297,11125
1387.144239,11078
1388.338637,10944
1389.532493,10681
1390.725807,10635
1391.918579,10923
1393.110808,10993
1394.302496,10598
1395.493643,11022
1396.684248,10316
1397.874312,10347
1399.063835,10482
1400.252818,10367
1401.44126,10219
1402.629162,10372
1403.816524,10359
1405.003346,10269
1406.189629,10193
1407.375372,10245
1408.560576,10240
1409.745241,10392
1410.929368,10442
1412.112956,10067
1413.296006,10385
1414.478517,10402
1415.660491,10186
1416.841927,10129
1418.022826,10449
1419.203188,10136
1420.383012,10419
1421.5623,10109
1422.741051,10329
1423.919266,10311
1425.096945,10164
1426.274088,10547
1427.450695,10220
1428.626766,10346
1429.802302,10386
1430.977303,10250
1432.15177,10133
1433.325701,10414
1434.499098,10709
1435.671961,10635
1436.84429,10537
1438.016085,10643
1439.187347,10523
1440.358075,10208
1441.528269,10371
1442.697931,10162
1443.86706,10477
1445.035657,10330
1446.203721,10608
1447.371253,10402
1448.538253,10229
1449.704721,10506
1450.870658,10263
1452.036064,10414
1453.200938,10267
1454.365282,10446
1455.529094,10015
1456.692377,9982
1457.855129,9909
1459.017351,10208
1460.179043,9879
1461.340206,10032
1462.500839,10067
1463.660943,9890
1464.820517,9798
1465.979563,10005
1467.138081,256
1468.29607,10015
1469.453531,9713
1470.610464,9723
1471.766869,9554
1472.922746,9701
1474.078096,9629
1475.232919,9622
1476.387215,9799
1477.540985,9915
1478.694227,9439
1479.846944,9929
1480.999134,9609
1482.150798,9705
1483.301937,9347
1484.45255,9817
1485.602637,9677
1486.7522,9615
1487.901238,10021
1489.049751,9709
1490.197739,9690
1491.345203,9594
1492.492144,9832
1493.63856,9591
1494.784452,10016
1495.929821,10079
1497.074667,9653
1498.21899,10134
1499.36279,9768
1500.506067,10080
1501.648821,9640
1502.791054,9536
1503.932764,9845
1505.073953,9988
1506.21462,9592
1507.354765,9744
1508.494389,10024
1509.633492,9918
1510.772074,9622
1511.910136,9678
1513.047677,9862
1514.184698,9776
1515.321198,9869
1516.457179,9727
1517.592641,10227
1518.727582,9933
1519.862005,9850
1520.995909,9741
1522.129293,9828
1523.262159,9782
1524.394507,10273
1525.526336,9909
1526.657647,10098
1527.788441,10084
1528.918717,10241
1530.048475,10100
1531.177716,10432
1532.30644,10219
1533.434647,10256
1534.562338,10298
1535.689512,10098
1536.816169,10394
1537.942311,10580
1539.067937,10510
1540.193047,10829
1541.317642,10827
1542.441721,11027
1543.565285,10536
1544.688335,10561
1545.81087,10552
1546.93289,10795
1548.054396,10584
1549.175388,10792
1550.295866,10719
1551.41583,10876
1552.535281,10797
1553.654218,11088
1554.772643,11038
1555.890554,10936
1557.007953,10916
1558.124839,10908
1559.241213,10906
1560.357075,11169
1561.472424,11038
1562.587262,11414
1563.701589,11236
1564.815404,10991
1565.928708,11683
1567.041501,11599
1568.153783,11625
1569.265555,11268
1570.376816,11433
1571.487567,11243
1572.597808,11247
1573.707539,11824
1574.816761,11742
1575.925473,11896
1577.033676,11665
1578.14137,11951
1579.248555,11746
1580.355231,11641
1581.461399,11808
1582.567059,12010
1583.672211,11722
1584.776854,12007
1585.88099,12258
1586.984619,12024
1588.08774,12523
1589.190354,12253
1590.292462,12305
1591.394062,12733
1592.495156,12858
1593.595744,13037
1594.695825,13138
1595.795401,13034
1596.89447,13109
1597.993034,13279
1599.091093,13503
1600.188647,13371
1601.285695,13395
1602.382239,13491
1603.478278,13718
1604.573812,14040
1605.668843,14069
1606.763369,14164
1607.857391,14247
1608.95091,14065
1610.043925,14488
1611.136437,14854
1612.228446,14836
1613.319952,14883
1614.410955,14793
1615.501455,14972
1616.591453,15291
1617.680949,15486
1618.769943,15535
1619.858435,15708
1620.946426,15608
1622.033915,15589
1623.120903,15877
1624.20739,15604
1625.293376,14736
1626.378861,16110
1627.463845,15755
1628.54833,15627
1629.632314,15766
1630.715799,15614
1631.798783,16167
1632.881268,16194
1633.963254,16304
1635.04474,16377
1636.125728,16189
1637.206216,16131
1638.286206,16063
1639.365698,15736
1640.444691,15908
1641.523187,16273
1642.601184,15869
1643.678683,16115
1644.755686,16010
1645.83219,16126
1646.908198,15769
1647.983708,15692
1649.058722,16125
1650.133239,15805
1651.20726,15281
1652.280785,15299
1653.353813,15304
1654.426346,15565
1655.498383,14686
1656.569924,15204
1657.64097,15034
1658.711521,15222
1659.781577,14801
1660.851139,15029
1661.920205,14650
1662.988777,14535
1664.056855,14715
1665.124439,14388
1666.191529,13971
1667.258126,14051
1668.324229,13897
1669.389838,13575
1670.454955,13568
1671.519578,13454
1672.583709,13471
1673.647347,13154
1674.710493,12623
1675.773147,12770
1676.835308,12523
1677.896978,12838
1678.958155,12175
1680.018842,12136
1681.079037,12053
1682.138741,11924
1683.197954,11471
1684.256676,11089
1685.314908,11056
1686.372649,10878
1687.4299,11040
1688.48666,10890
1689.542931,10186
1690.598713,10536
1691.654004,10615
1692.708807,10274
1693.76312,10461
1694.816944,10219
1695.870279,9890
1696.923126,9574
1697.975484,9761
1699.027354,9457
1700.078736,9347
1701.12963,9259
1702.180036,8961
1703.229955,9175
1704.279386,9061
1705.32833,8633
1706.376787,8631
1707.424757,8568
1708.47224,8700
1709.519237,8325
1710.565748,8295
1711.611772,8122
1712.65731,7948
1713.702363,7932
1714.74693,7943
1715.791011,7932
1716.834608,8153
1717.877719,7814
1718.920345,8196
1719.962486,7567
1721.004143,7328
1722.045316,7481
1723.086004,7317
1724.126208,7184
1725.165929,7438
1726.205165,7582
1727.243918,7104
1728.282188,6806
1729.319975,6940
1730.357278,6937
1731.394099,6775
1732.430437,6574
1733.466293,6723
1734.501666,6306
1735.536557,6275
1736.570967,6765
1737.604894,6439
1738.63834,6216
1739.671304,6455
1740.703787,6043
1741.735789,6404
1742.767311,6162
1743.798351,6090
1744.828911,6117
1745.85899,5704
1746.888589,5812
1747.917708,5913
1748.946348,5549
1749.974507,6164
1751.002187,5544
1752.029388,5742
1753.056109,6047
1754.082351,5519
1755.108115,5322
1756.1334,5310
1757.158206,5537
1758.182534,5437
1759.206384,5824
1760.229755,5609
1761.252649,5101
1762.275065,5494
1763.297004,5356
1764.318466,5284
1765.33945,5161
1766.359957,5057
1767.379988,5185
1768.399542,4806
1769.418619,4914
1770.43722,5326
1771.455345,4799
1772.472994,4884
1773.490167,4541
1774.506865,4941
1775.523087,4547
1776.538834,4899
1777.554106,4800
1778.568902,4837
1779.583224,5088
1780.597072,5047
1781.610444,4822
1782.623343,4998
1783.635768,4350
1784.647718,4478
1785.659195,4397
1786.670198,4439
1787.680728,4315
1788.690784,4481
1789.700368,4691
1790.709478,4617
1791.718116,4467
1792.726281,4501
1793.733973,4431
1794.741194,4330
1795.747942,4373
1796.754218,4502
1797.760023,4319
1798.765356,4446
1799.770217,4799
1800.774607,4622
1801.778526,4649
1802.781974,4001
1803.784952,4113
1804.787458,4514
1805.789495,4627
1806.791061,4584
1807.792156,4241
1808.792782,4355
1809.792938,4215
1810.792625,4360
1811.791842,4226
1812.79059,4076
1813.788868,4118
1814.786678,3998
1815.784019,4262
1816.780891,3937
1817.777295,4130
1818.77323,4333
1819.768697,4209
1820.763697,4431
1821.758228,4305
1822.752292,4469
1823.745888,4327
1824.739017,4018
1825.731679,3963
1826.723874,3891
1827.715602,4350
1828.706863,4189
1829.697658,4379
1830.687986,4184
1831.677848,4187
1832.667244,4217
1833.656175,3875
1834.644639,4161
1835.632638,4190
1836.620172,3848
1837.60724,3758
1838.593844,3951
1839.579982,3820
1840.565656,3875
1841.550865,4002
1842.53561,3927
1843.51989,4124
1844.503706,4204
1845.487059,3916
1846.469947,3875
1847.452372,4192
1848.434334,4132
1849.415832,4044
1850.396867,3702
1851.377439,4264
1852.357549,3818
1853.337195,3798
1854.31638,3810
1855.295101,4167
1856.273361,3756
1857.251159,3639
1858.228494,3805
1859.205369,3665
1860.181781,3781
1861.157732,3840
1862.133222,3823
1863.108251,3515
1864.082819,3821
1865.056926,3927
1866.030573,4026
1867.003759,3947
1867.976485,3919
1868.948751,3780
1869.920556,3748
1870.891902,3887
1871.862789,3818
1872.833216,3556
1873.803183,3778
1874.772691,3708
1875.741741,3870
1876.710331,3765
1877.678463,3638
1878.646136,3597
1879.613351,3680
1880.580108,3399
1881.546406,3852
1882.512247,3577
1883.47763,3552
1884.442555,3796
1885.407023,3613
1886.371033,3546
1887.334586,4011
1888.297683,3652
1889.260322,3804
1890.222505,3566
1891.184231,3715
1892.145501,3468
1893.106315,3266
1894.066673,3704
1895.026574,3569
1895.98602,3494
1896.945011,3546
1897.903546,3235
1898.861626,3386
1899.81925,3559
1900.77642,3631
1901.733135,3475
1902.689395,3503
1903.6452,3471
1904.600551,3729
1905.555448,3568
1906.509891,3490
1907.46388,3366
1908.417416,3885
1909.370498,3931
1910.323126,3346
1911.275301,3493
1912.227023,3645
1913.178292,3512
1914.129108,3312
1915.079471,3291
1916.029382,3793
1916.97884,3708
1917.927846,3402
1918.876401,3668
1919.824503,3492
1920.772153,3745
1921.719352,3370
1922.6661,3659
1923.612396,3870
1924.558241,3614
1925.503635,3402
1926.448578,3335
1927.39307,3955
1928.337112,3639
1929.280703,3381
1930.223844,3467
1931.166535,3560
1932.108776,3522
1933.050568,3352
1933.991909,3854
1934.932801,3617
1935.873244,3596
1936.813238,3577
1937.752782,3396
1938.691878,3621
1939.630525,3559
1940.568723,3448
1941.506473,3611
1942.443774,3882
1943.380627,3379
1944.317033,3849
1945.25299,3596
1946.1885,4173
1947.123562,3607
1948.058177,3715
1948.992344,3721
1949.926065,3984
1950.859338,3486
1951.792165,3497
1952.724545,3641
1953.656478,3885
1954.587965,3706
1955.519006,3633
1956.4496,3628
1957.379749,3929
1958.309452,3543
1959.238709,3495
1960.167521,3608
1961.095888,3780
1962.023809,3964
1962.951285,3449
1963.878317,3657
1964.804903,3768
1965.731045,3654
1966.656743,3574
1967.581996,3440
1968.506805,3483
1969.43117,4070
1970.355091,3529
1971.278568,3795
1972.201602,3406
1973.124192,3659
1974.046339,3745
1974.968043,3759
1975.889304,3618
1976.810122,3489
1977.730498,3931
1978.65043,3594
1979.569921,3807
1980.488969,3711
1981.407574,3559
1982.325738,3829
1983.24346,3403
1984.160741,3673
1985.077579,3860
1985.993977,3839
1986.909933,3911
1987.825448,3504
1988.740522,3553
1989.655155,3648
1990.569347,3695
1991.483099,3754
1992.396411,3720
1993.309282,3784
1994.221713,3836
1995.133704,3471
1996.045256,3339
1996.956367,3762
1997.867039,3624
1998.777272,3720
1999.687065,3816
2000.596419,3598
2001.505335,3593
2002.413811,3604
2003.321849,4048
2004.229448,3788
2005.136609,3581
2006.043331,3730
2006.949616,3994
2007.855462,3596
2008.760871,3650
2009.665841,3665
2010.570375,3887
2011.47447,3949
2012.378129,3912
2013.281351,3753
2014.184135,3854
2015.086483,3915
2015.988393,3809
2016.889868,3494
2017.790906,3691
2018.691507,3481
2019.591673,3578
2020.491402,3678
2021.390695,3731
2022.289553,3488
2023.187975,3978
2024.085962,3875
2024.983514,3775
2025.88063,3606
2026.777311,4126
2027.673557,3717
2028.569369,3788
2029.464746,3859
2030.359688,3631
2031.254197,3855
2032.148271,3967
2033.04191,4020
2033.935116,4063
2034.827889,4121
2035.720227,4026
2036.612132,3640
2037.503604,3296
2038.394642,3932
2039.285248,3788
2040.17542,3991
2041.06516,3988
2041.954466,3502
2042.843341,3996
2043.731783,3888
2044.619792,3763
2045.50737,3748
2046.394516,3863
2047.281229,3792
2048.167511,3894
2049.053362,4075
2049.938781,4032
2050.823768,3729
2051.708325,3730
2052.59245,3857
2053.476145,3964
2054.359409,3656
2055.242242,3790
2056.124645,3551
2057.006617,4037
2057.888159,3918
2058.769271,3808
2059.649953,3867
2060.530206,3680
2061.410028,3642
2062.289421,3675
2063.168385,3800
2064.046919,3405
2064.925025,3696
2065.802701,3743
2066.679949,3353
2067.556767,3786
2068.433157,3762
2069.309119,3552
2070.184652,3819
2071.059758,3815
2071.934435,3895
2072.808684,3585
2073.682505,3534
2074.555899,3763
2075.428865,3847
2076.301404,3815
2077.173516,4004
2078.0452,3819
2078.916458,3738
2079.787289,3762
2080.657693,3906
2081.52767,3836
2082.397221,3872
2083.266346,3755
2084.135044,3915
2085.003316,3537
2085.871163,3634
2086.738584,4142
2087.605579,3667
2088.472148,3825
2089.338292,3773
2090.204011,3679
2091.069305,3867
2091.934174,3682
2092.798618,3389
2093.662637,3622
2094.526231,3712
2095.389402,3801
2096.252147,3517
2097.114469,3884
2097.976366,3969
2098.83784,3606
2099.69889,3641
2100.559516,3846
2101.419719,3770
2102.279498,3733
2103.138854,3983
2103.997786,3641
2104.856296,3803
2105.714383,4317
2106.572047,3790
2107.429289,3765
2108.286108,3703
2109.142504,3760
2109.998479,3756
2110.854031,3475
2111.709161,3448
2112.56387,3715
2113.418156,3494
2114.272021,3330
2115.125465,3577
2115.978487,3892
2116.831089,3520
2117.683269,3885
2118.535028,4129
2119.386366,3703
2120.237284,3508
2121.087781,3578
2121.937857,3401
2122.787514,4075
2123.63675,3656
2124.485566,3610
2125.333962,3595
2126.181939,3624
2127.029496,3322
2127.876633,3690
2128.723351,3447
2129.569649,3664
2130.415529,3224
2131.260989,3233
2132.106031,3555
2132.950654,3154
2133.794858,3538
2134.638643,3454
2135.482011,3366
2136.32496,3672
2137.167491,3447
2138.009604,3331
2138.851299,3519
2139.692576,3437
2140.533436,3356
2141.373878,3221
2142.213903,3326
2143.05351,3467
2143.892701,3412
2144.731474,3304
2145.569831,3328
2146.407771,3177
2147.245294,3405
2148.082401,3510
2148.919091,3358
2149.755365,3588
2150.591224,3263
2151.426666,3286
2152.261692,3179
2153.096302,3333
2153.930497,3508
2154.764277,2834
2155.597641,2925
2156.43059,3075
2157.263124,3699
2158.095242,3286
2158.926946,3001
2159.758236,3074
2160.58911,3159
2161.41957,3177
2162.249616,3249
2163.079248,3274
2163.908465,2807
2164.737269,3341
2165.565658,3101
2166.393634,3158
2167.221196,2933
2168.048345,3131
2168.87508,3021
2169.701402,3028
2170.527311,2881
2171.352807,3150
2172.177891,3046
2173.002561,2853
2173.826819,3026
2174.650664,3189
2175.474097,3201
2176.297117,2967
2177.119726,2990
2177.941922,3185
2178.763707,3217
2179.58508,3250
2180.406041,3031
2181.22659,3317
2182.046729,2884
2182.866456,2834
2183.685771,3275
2184.504676,3077
2185.32317,3266
2186.141253,3276
2186.958925,2675
2187.776187,3097
2188.593038,2882
2189.409479,3103
2190.22551,3094
2191.041131,2978
2191.856342,2892
2192.671143,3067
2193.485534,3196
2194.299516,2543
2195.113088,3055
2195.926251,2944
2196.739005,2974
2197.551349,2764
2198.363285,2730
2199.174812,2720
2199.98593,2634
2200.796639,3155
2201.60694,3006
2202.416832,2875
2203.226317,3168
2204.035393,2985
2204.844061,3020
2205.652321,3081
2206.460173,2806
2207.267618,3028
2208.074655,2495
2208.881285,2816
2209.687507,2541
2210.493322,2817
2211.29873,3114
2212.103732,2689
2212.908326,2772
2213.712513,2920
2214.516294,2281
2215.319669,2557
2216.122637,2826
2216.925199,2798
2217.727355,2546
2218.529105,2869
2219.330449,2582
2220.131387,2925
2220.931919,2311
2221.732046,2651
2222.531768,2673
2223.331084,2689
2224.129995,2281
2224.928501,2220
2225.726602,2556
2226.524298,2482
2227.321589,2653
2228.118476,2964
2228.914959,2710
2229.711037,2660
2230.50671,2225
2231.30198,2302
2232.096846,2802
2232.891307,2281
2233.685365,2710
2234.479019,2667
2235.27227,2109
2236.065117,2551
2236.857561,2500
2237.649602,2493
2238.441239,2382
2239.232474,2665
2240.023306,2590
2240.813735,2770
2241.603761,2716
2242.393385,2507
2243.182607,2075
2243.971426,2615
2244.759843,2447
2245.547858,2292
2246.335471,2288
2247.122682,2341
2247.909492,2299
2248.6959,2360
2249.481906,2394
2250.267511,2362
2251.052715,2216
2251.837518,2223
2252.621919,2406
2253.40592,2501
2254.18952,2547
2254.972719,2538
2255.755518,2065
2256.537916,1957
2257.319914,2393
2258.101512,2404
2258.88271,2471
2259.663507,2575
2260.443905,2353
2261.223903,2265
2262.003501,2444
2262.7827,2327
2263.561499,2419
2264.339899,2008
2265.1179,2211
2265.895501,2552
2266.672704,2233
2267.449508,2343
2268.225913,2128
2269.001919,2639
2269.777527,2196
2270.552737,2143
2271.327548,2282
2272.101961,1984
2272.875975,2108
2273.649592,1990
2274.422811,2161
2275.195632,2405
2275.968056,2360
2276.740082,2072
2277.511711,2285
2278.282942,1900
2279.053776,1959
2279.824213,1798
2280.594253,2244
2281.363897,2488
2282.133143,1900
2282.901993,2301
2283.670446,2403
2284.438503,2122
2285.206164,2184
2285.973428,1922
2286.740296,1787
2287.506769,2075
2288.272845,1943
2289.038526,2048
2289.803811,1823
2290.5687,1868
2291.333194,2281
2292.097293,1993
2292.860997,1950
2293.624305,1983
2294.387219,1958
2295.149737,1952
2295.911861,2105
2296.67359,1867
2297.434925,1820
2298.195865,2209
2298.956411,2082
2299.716562,2031
2300.47632,2173
2301.235683,1974
2301.994653,2151
2302.753229,2161
2303.511411,1951
2304.269199,1989
2305.026594,2129
2305.783596,1851
2306.540204,1968
2307.29642,1805
2308.052242,2197
2308.807671,1772
2309.562708,1606
2310.317351,1948
2311.071603,2013
2311.825461,1590
2312.578928,1862
2313.332002,2091
2314.084684,1680
2314.836973,1732
2315.588871,1905
2316.340377,1771
2317.091491,1900
2317.842214,1952
2318.592545,1932
2319.342485,2090
2320.092033,1967
2320.84119,2004
2321.589956,1932
2322.338331,1938
2323.086315,1745
2323.833908,1870
2324.581111,2116
2325.327923,1908
2326.074345,2155
2326.820376,2067
2327.566017,1667
2328.311268,1924
2329.056129,1790
2329.800599,1604
2330.54468,1806
2331.288372,1714
2332.031673,1920
2332.774585,1895
2333.517108,1804
2334.259242,1927
2335.000986,1871
2335.742341,1846
2336.483307,1733
2337.223884,1976
2337.964073,1690
2338.703872,1623
2339.443283,1967
2340.182306,1922
2340.92094,1714
2341.659187,1699
2342.397044,1635
2343.134514,2017
2343.871596,1589
2344.60829,1505
2345.344597,1615
2346.080515,2217
2346.816046,1726
2347.55119,1928
2348.285946,1536
2349.020316,1647
2349.754298,1414
2350.487893,1537
2351.221101,2164
2351.953922,1518
2352.686356,2044
2353.418404,1601
2354.150066,1584
2354.881341,1642
2355.61223,1901
2356.342732,1708
2357.072849,1809
2357.802579,1232
2358.531924,1471
2359.260883,1943
2359.989456,1670
2360.717643,1530
2361.445445,1682
2362.172862,1556
2362.899893,1551
2363.626539,1649
2364.352801,1821
2365.078677,1441
2365.804168,1802
2366.529275,1897
2367.253996,1475
2367.978334,1568
2368.702286,1695
2369.425855,1549
2370.149039,1810
2370.871839,1794
2371.594255,1528
2372.316287,1632
2373.037935,1563
2373.7592,1377
2374.48008,1567
2375.200578,1754
2375.920691,1906
2376.640422,1549
2377.359769,1841
2378.078733,1518
2378.797314,1701
2379.515511,1479
2380.233327,1353
2380.950759,1716
2381.667808,1521
2382.384476,1452
2383.10076,1474
2383.816663,1354
2384.532183,1512
2385.24732,1246
2385.962076,1558
2386.67645,1403
2387.390442,1337
2388.104052,1534
2388.817281,1587
2389.530128,1365
2390.242593,1703
2390.954677,1613
2391.66638,1455
2392.377702,1610
2393.088643,1435
2393.799202,1584
2394.509381,1230
2395.219179,1428
2395.928596,1427
2396.637633,1151
2397.346289,1164
2398.054565,1205
2398.762461,1246
2399.469976,1159
2400.177111,988
2400.883867,1192
2401.590242,1228
2402.296238,1249
2403.001854,1155
2403.70709,1240
2404.411947,982
2405.116424,1064
2405.820522,903
2406.524241,912
2407.227581,850
2407.930542,985
2408.633123,1106
2409.335326,995
2410.037151,952
