Waveshift,Intensity
-31.722347,9755
-29.886687,11133
-28.051868,12504
-26.217889,14389
-24.384749,17131
-22.552448,19293
-20.720985,22198
-18.890361,25266
-17.060575,28418
-15.231626,32731
-13.403514,37932
-11.576239,44084
-9.749799,47771
-7.924195,45552
-6.099426,37466
-4.275492,37067
-2.452392,41407
-0.630127,37049
1.191306,33871
3.011906,33036
4.831672,38485
6.650607,41261
8.46871,24621
10.285982,20737
12.102423,18856
13.918034,17193
15.732815,16173
17.546766,15994
19.359888,15302
21.172181,12752
22.983647,11048
24.794284,9518
26.604094,9239
28.413077,8673
30.221233,7409
32.028563,6005
33.835068,4826
35.640747,4705
37.445602,4044
39.249632,4060
41.052838,3750
42.855221,3587
44.656781,3262
46.457517,3555
48.257432,3479
50.056525,3101
51.854796,3273
53.652246,3519
55.448876,3155
57.244685,3265
59.039675,3578
60.833846,3700
62.627197,3755
64.41973,3961
66.211446,3902
68.002343,4102
69.792423,4244
71.581687,4573
73.370134,4768
75.157765,5143
76.944581,5866
78.730581,6383
80.515767,7216
82.300139,7746
84.083697,8911
85.866441,9906
87.648372,11107
89.429491,12332
91.209797,14397
92.989292,16071
94.767976,18897
96.545848,22171
98.32291,25850
100.099162,31526
101.874604,28646
103.649237,32617
105.423061,32669
107.196077,37383
108.968284,36309
110.739684,35360
112.510277,33738
114.280063,33096
116.049042,33123
117.817216,36722
119.584584,43637
121.351147,39188
123.116905,37565
124.881859,38437
126.646009,29608
128.409356,42358
130.171899,41215
131.93364,38906
133.694578,28154
135.454715,35153
137.21405,34074
138.972584,29943
140.730317,44106
142.48725,37030
144.243384,26762
145.998718,35654
147.753252,30159
149.506989,35702
151.259927,37346
153.012067,43302
154.76341,33688
156.513956,40767
158.263705,36642
160.012659,37620
161.760816,31200
163.508178,36995
165.254745,34807
167.000518,37520
168.745496,38837
170.489681,36305
172.233072,36687
173.975671,43141
175.717476,29407
177.45849,38034
179.198712,30728
180.938142,36555
182.676782,31058
184.414631,37811
186.15169,34822
187.887959,29983
189.623439,40423
191.35813,31446
193.092032,35969
194.825147,34538
196.557473,33907
198.289012,35715
200.019764,33916
201.74973,32478
203.478909,35988
205.207303,36391
206.934911,38441
208.661735,39025
210.387773,33200
212.113028,31923
213.837499,31545
215.561186,34966
217.28409,35650
219.006212,33175
220.727552,33767
222.44811,38280
224.167886,38006
225.886881,33914
227.605096,35191
229.32253,32511
231.039185,32713
232.75506,30942
234.470156,24458
236.184473,33417
237.898012,29697
239.610773,30042
241.322757,37824
243.033964,37096
244.744393,29652
246.454047,35146
248.162924,32108
249.871026,32117
251.578353,34979
253.284905,31765
254.990683,40730
256.695686,32725
258.399916,36014
260.103373,36829
261.806057,36602
263.507968,39426
265.209107,33692
266.909475,32682
268.609071,33648
270.307897,29226
272.005952,34758
273.703236,35559
275.399751,34248
277.095497,32903
278.790473,38878
280.484681,31730
282.178121,34221
283.870793,39085
285.562697,31167
287.253835,40710
288.944205,39122
290.633809,31442
292.322648,32820
294.010721,36857
295.698028,38908
297.384571,40296
299.070349,38292
300.755364,39815
302.439614,35218
304.123102,35159
305.805826,37429
307.487788,35865
309.168988,35507
310.849426,40392
312.529103,33537
314.208018,33446
315.886173,23378
317.563568,36681
319.240203,37821
320.916079,40212
322.591195,36834
324.265552,38988
325.939151,35596
327.611993,35326
329.284076,35973
330.955402,37096
332.625972,42469
334.295785,37423
335.964841,34934
337.633142,32168
339.300688,38709
340.967479,30956
342.633515,38221
344.298796,36180
345.963324,37007
347.627098,35962
349.29012,40791
350.952388,36110
352.613904,37873
354.274668,34663
355.93468,34168
357.593941,38593
359.252451,38872
360.910211,31578
362.56722,37159
364.22348,33847
365.87899,30918
367.533751,41103
369.187763,35788
370.841027,34165
372.493543,37241
374.145311,42498
375.796332,38265
377.446607,23589
379.096134,42638
380.744916,35026
382.392952,32084
384.040242,38120
385.686787,46968
387.332588,37370
388.977645,40452
390.621957,36803
392.265526,42197
393.908351,31955
395.550434,40324
397.191775,38385
398.832373,29317
400.472229,39952
402.111344,43715
403.749718,43463
405.387351,39624
407.024244,30780
408.660397,38453
410.295811,40781
411.930485,41839
413.56442,40335
415.197617,48015
416.830076,26884
418.461796,41230
420.09278,40833
421.723026,37249
423.352536,30473
424.981309,33003
426.609346,38204
428.236648,36384
429.863214,41836
431.489046,44264
433.114143,30335
434.738505,40589
436.362134,33583
437.98503,31941
439.607192,36485
441.228621,33487
442.849318,39040
444.469283,32021
446.088516,37942
447.707018,33340
449.324789,28709
450.941829,35981
452.558139,32564
454.173719,38750
455.78857,8073
457.402691,36962
459.016083,39116
460.628747,38513
462.240682,39922
463.85189,39750
465.46237,36964
467.072124,40015
468.68115,32180
470.28945,40110
471.897024,34432
473.503872,34729
475.109995,40487
476.715393,35679
478.320066,40662
479.924015,34835
481.52724,36994
483.129741,36083
484.731519,33403
486.332575,39208
487.932907,28007
489.532517,37840
491.131406,31675
492.729573,31525
494.327019,37301
495.923744,37555
497.519748,29639
499.115033,36053
500.709597,39642
502.303442,38738
503.896568,37117
505.488976,35461
507.080665,38904
508.671635,38494
510.261889,29870
511.851424,37064
513.440243,33484
515.028345,38675
516.615731,39446
518.202401,37626
519.788355,35567
521.373593,42545
522.958117,36319
524.541926,29856
526.125021,36784
527.707402,30689
529.28907,37550
530.870024,25971
532.450265,30953
534.029794,36071
535.60861,35130
537.186715,42414
538.764108,32951
540.340789,30336
541.91676,39213
543.492021,39936
545.066571,33976
546.640411,35343
548.213542,32229
549.785964,31718
551.357676,40509
552.928681,35805
554.498977,44707
556.068565,32972
557.637446,41466
559.20562,44340
560.773087,40542
562.339847,36665
563.905901,34105
565.47125,32668
567.035893,31599
568.599831,32922
570.163064,37394
571.725593,36972
573.287417,38143
574.848538,41977
576.408955,36028
577.968669,33728
579.52768,36571
581.085989,31993
582.643596,39798
584.200501,37477
585.756704,32757
587.312207,42320
588.867008,39290
590.42111,39354
591.974511,34780
593.527212,35832
595.079214,31165
596.630516,39324
598.18112,39954
599.731025,25241
601.280232,36457
602.828742,39644
604.376554,37277
605.923668,39260
607.470086,33682
609.015808,40407
610.560833,36787
612.105162,39200
613.648796,36189
615.191735,35314
616.733979,33665
618.275528,39629
619.816383,32963
621.356544,31694
622.896012,37808
624.434787,38968
625.972868,33556
627.510257,34325
629.046954,38615
630.582959,33603
632.118272,33769
633.652894,38390
635.186825,37678
636.720066,38021
638.252616,33739
639.784476,37887
641.315647,31681
642.846128,30282
644.37592,33456
645.905024,33629
647.433439,28590
648.961166,36805
650.488206,36773
652.014558,31423
653.540223,32974
655.065201,36044
656.589493,36228
658.113099,35444
659.636019,35736
661.158253,35286
662.679803,35398
664.200668,35273
665.720848,35291
667.240344,35148
668.759156,34584
670.277284,34937
671.79473,34330
673.311492,34391
674.827572,34177
676.34297,33935
677.857686,33802
679.37172,34191
680.885072,28735
682.397744,33176
683.909735,33477
685.421046,33389
686.931677,33039
688.441628,31297
689.950899,33050
691.459492,32872
692.967406,32848
694.474641,32793
695.981198,32623
697.487078,17582
698.992279,32390
700.496804,32483
702.000652,32316
703.503823,30135
705.006318,30868
706.508137,31720
708.00928,32051
709.509748,32108
711.009541,31946
712.50866,31733
714.007104,31735
715.504874,30415
717.00197,31269
718.498393,31493
719.994142,31420
721.489219,31297
722.983624,31190
724.477356,31368
725.970416,30284
727.462805,31068
728.954522,30910
730.445569,26151
731.935944,30664
733.42565,30995
734.914685,30689
736.403051,30812
737.890748,30559
739.377775,30445
740.864133,28559
742.349823,30382
743.834845,30095
745.319199,30241
746.802886,30146
748.285905,30148
749.768257,30343
751.249943,30065
752.730962,30330
754.211315,29875
755.691003,29314
757.170025,29787
758.648382,29364
760.126075,29611
761.603102,29163
763.079466,29556
764.555166,29135
766.030202,29042
767.504575,28885
768.978285,28619
770.451332,28987
771.923717,28827
773.39544,28854
774.866501,28774
776.3369,28569
777.806639,28523
779.275716,28427
780.744134,27962
782.21189,27645
783.678987,27864
785.145425,27105
786.611203,27355
788.076322,27320
789.540782,27102
791.004583,26724
792.467727,26824
793.930213,26519
795.392041,25917
796.853212,25887
798.313726,26032
799.773584,25672
801.232785,25719
802.69133,25534
804.14922,24897
805.606454,24746
807.063032,25214
808.518956,24761
809.974226,24910
811.428841,24626
812.882802,24556
814.33611,24465
815.788764,24272
817.240766,23716
818.692114,23681
820.14281,23645
821.592854,23732
823.042246,23850
824.490986,23437
825.939075,23192
827.386514,23472
828.833301,23086
830.279438,23058
831.724925,22812
833.169762,22739
834.61395,22603
836.057488,22832
837.500378,22062
838.942619,22693
840.384212,22627
841.825156,22671
843.265453,22655
844.705102,17882
846.144105,22330
847.58246,22161
849.020169,21907
850.457231,22123
851.893648,21832
853.329418,21837
854.764544,21520
856.199024,21587
857.632859,21529
859.06605,21297
860.498597,21282
861.9305,21389
863.361759,21131
864.792374,20916
866.222347,21256
867.651677,20679
869.080364,20536
870.508409,20921
871.935812,20578
873.362574,20350
874.788694,20157
876.214173,20000
877.639011,19914
879.063209,19985
880.486766,19982
881.909684,20032
883.331962,19546
884.753601,19769
886.174601,19878
887.594961,19804
889.014684,19511
890.433768,19422
891.852214,19782
893.270023,19163
894.687194,19581
896.103729,19301
897.519626,18826
898.934887,18987
900.349512,18939
901.763501,19030
903.176854,18654
904.589572,18335
906.001655,18239
907.413103,17961
908.823917,17961
910.234096,17787
911.643642,18391
913.052554,17835
914.460832,17564
915.868477,17782
917.27549,17491
918.68187,17425
920.087618,17461
921.492734,16981
922.897218,16923
924.301071,16819
925.704292,16752
927.106883,16748
928.508844,16432
929.910174,16417
931.310874,16309
932.710944,16315
934.110385,16350
935.509197,16087
936.907379,16424
938.304934,16260
939.70186,16081
941.098158,15483
942.493828,15801
943.88887,15589
945.283286,15518
946.677075,15688
948.070236,15755
949.462772,15714
950.854681,15514
952.245965,15709
953.636623,15573
955.026656,15637
956.416064,15392
957.804847,15622
959.193006,15406
960.58054,15234
961.967451,15206
963.353738,14880
964.739402,15580
966.124442,15081
967.50886,15108
968.892656,15189
970.275829,14977
971.65838,15260
973.04031,15040
974.421618,15135
975.802305,15062
977.182371,14928
978.561816,14921
979.940641,15257
981.318846,15305
982.696432,15077
984.073398,14686
985.449744,14744
986.825472,14990
988.200581,14874
989.575072,15280
990.948944,15079
992.322199,14897
993.694836,15103
995.066855,14815
996.438258,15018
997.809044,14995
999.179213,14830
1000.548766,14519
1001.917703,15215
1003.286024,14730
1004.65373,14929
1006.020821,14911
1007.387297,14889
1008.753158,15025
1010.118405,14830
1011.483038,14782
1012.847057,14827
1014.210462,15006
1015.573254,14626
1016.935433,14704
1018.296999,14983
1019.657953,14701
1021.018295,14744
1022.378025,14566
1023.737143,14742
1025.095649,14487
1026.453544,14674
1027.810829,14603
1029.167503,14288
1030.523566,14558
1031.87902,14415
1033.233863,14961
1034.588097,14437
1035.941722,14599
1037.294738,14502
1038.647145,14503
1039.998943,14508
1041.350133,14682
1042.700716,14545
1044.05069,14343
1045.400057,14273
1046.748817,14756
1048.09697,14542
1049.444516,14570
1050.791456,14649
1052.13779,14546
1053.483518,14642
1054.82864,14840
1056.173157,14721
1057.517069,15068
1058.860376,15388
1060.203079,14837
1061.545177,15391
1062.886671,14848
1064.227562,14962
1065.567848,14715
1066.907532,14930
1068.246613,14921
1069.585091,14746
1070.922966,14861
1072.260239,14773
1073.596911,14332
1074.93298,14266
1076.268448,14286
1077.603315,13806
1078.937581,14390
1080.271247,14176
1081.604312,14067
1082.936776,13835
1084.268641,13724
1085.599907,13486
1086.930573,13789
1088.260639,13559
1089.590107,13755
1090.918977,13278
1092.247248,13593
1093.574921,13542
1094.901996,13795
1096.228474,13447
1097.554354,13636
1098.879637,13460
1100.204323,13622
1101.528413,13671
1102.851907,13999
1104.174804,13726
1105.497106,13670
1106.818812,13939
1108.139923,13405
1109.460439,14123
1110.78036,13686
1112.099687,14106
1113.41842,13757
1114.736558,13962
1116.054103,13693
1117.371054,13844
1118.687412,13882
1120.003177,13768
1121.318349,13989
1122.632929,13862
1123.946916,14082
1125.260312,13893
1126.573116,13827
1127.885328,13968
1129.196949,13428
1130.507979,13498
1131.818419,13206
1133.128268,13433
1134.437527,13220
1135.746195,12951
1137.054275,12678
1138.361764,12620
1139.668665,12556
1140.974976,12694
1142.280699,12461
1143.585833,12149
1144.890379,12328
1146.194337,12396
1147.497708,12391
1148.800491,12050
1150.102687,12100
1151.404295,11757
1152.705318,12029
1154.005753,11823
1155.305603,12228
1156.604866,11959
1157.903544,12138
1159.201636,11928
1160.499143,12167
1161.796065,11648
1163.092402,12047
1164.388155,11678
1165.683324,11914
1166.977908,11619
1168.271909,11496
1169.565326,11687
1170.85816,11470
1172.150411,11964
1173.44208,11623
1174.733165,11606
1176.023669,11797
1177.31359,11685
1178.60293,11463
1179.891688,11597
1181.179865,11452
1182.467461,11630
1183.754476,11496
1185.04091,11569
1186.326765,11404
1187.612039,11659
1188.896733,11647
1190.180848,11403
1191.464383,11658
1192.747339,11224
1194.029717,11655
1195.311515,11791
1196.592736,11663
1197.873378,11702
1199.153442,11670
1200.432929,11629
1201.711838,11767
1202.990171,11313
1204.267926,11648
1205.545105,11545
1206.821707,11554
1208.097733,11507
1209.373183,11598
1210.648057,11442
1211.922356,11556
1213.196079,11508
1214.469228,11453
1215.741802,11568
1217.013801,11637
1218.285226,11546
1219.556077,11118
1220.826355,11620
1222.096058,11387
1223.365189,11368
1224.633746,11274
1225.90173,11116
1227.169142,11512
1228.435982,11605
1229.702249,11356
1230.967945,11194
1232.233069,11224
1233.497621,11425
1234.761602,10826
1236.025013,11196
1237.287852,10894
1238.550121,11041
1239.81182,11340
1241.072949,10823
1242.333509,10932
1243.593498,11125
1244.852919,11172
1246.11177,10812
1247.370053,11265
1248.627767,10856
1249.884912,11010
1251.14149,10747
1252.397499,11095
1253.652942,11080
1254.907816,10981
1256.162124,11172
1257.415864,11007
1258.669038,10941
1259.921646,11106
1261.173687,11214
1262.425162,11085
1263.676071,11525
1264.926415,11228
1266.176194,11006
1267.425408,11431
1268.674056,11220
1269.92214,11004
1271.16966,11368
1272.416616,10886
1273.663008,11037
1274.908836,11067
1276.1541,11047
1277.398802,10993
1278.64294,10933
1279.886516,10726
1281.129529,11015
1282.37198,10737
1283.613869,10782
1284.855196,10768
1286.095962,11007
1287.336166,10557
1288.575809,10470
1289.814891,10539
1291.053413,10618
1292.291374,10653
1293.528775,10582
1294.765616,10581
1296.001897,10481
1297.237618,10497
1298.472781,10352
1299.707384,10415
1300.941428,10676
1302.174914,10686
1303.407842,10678
1304.640211,10359
1305.872022,10789
1307.103276,10566
1308.333972,10401
1309.564111,10459
1310.793693,10607
1312.022719,10422
1313.251187,10445
1314.4791,10712
1315.706456,10461
1316.933256,10423
1318.159501,10816
1319.38519,10816
1320.610324,10956
1321.834903,10694
1323.058928,10639
1324.282398,10716
1325.505313,10656
1326.727675,10697
1327.949482,10746
1329.170736,10559
1330.391437,10764
1331.611584,10718
1332.831179,10376
1334.050221,10759
1335.26871,10201
1336.486647,10517
1337.704032,10578
1338.920865,10646
1340.137147,10457
1341.352877,10392
1342.568056,10456
1343.782684,10493
1344.996761,10263
1346.210288,10154
1347.423265,10340
1348.635691,10423
1349.847568,10102
1351.058895,10125
1352.269673,10155
1353.479901,9781
1354.689581,9961
1355.898712,10018
1357.107294,10090
1358.315329,9901
1359.522815,10278
1360.729753,10232
1361.936144,10336
1363.141987,9832
1364.347283,10190
1365.552032,10268
1366.756235,10107
1367.959891,9909
1369.163,10051
1370.365564,9975
1371.567582,10448
1372.769054,10035
1373.96998,10120
1375.170362,10123
1376.370198,10285
1377.56949,9880
1378.768237,9975
1379.96644,9990
1381.164099,9847
1382.361214,9868
1383.557785,9774
1384.753813,9787
1385.949297,9675
1387.144239,9913
1388.338637,9724
1389.532493,9721
1390.725807,9511
1391.918579,9537
1393.110808,9550
1394.302496,9144
1395.493643,9442
1396.684248,9383
1397.874312,9654
1399.063835,9519
1400.252818,9522
1401.44126,8998
1402.629162,9265
1403.816524,9015
1405.003346,9191
1406.189629,9010
1407.375372,8742
1408.560576,9232
1409.745241,9155
1410.929368,9059
1412.112956,9156
1413.296006,9300
1414.478517,9194
1415.660491,9173
1416.841927,8961
1418.022826,8760
1419.203188,9092
1420.383012,9146
1421.5623,9102
1422.741051,9038
1423.919266,9081
1425.096945,9058
1426.274088,9066
1427.450695,9017
1428.626766,9021
1429.802302,9054
1430.977303,8960
1432.15177,8788
1433.325701,9126
1434.499098,9010
1435.671961,9210
1436.84429,8910
1438.016085,9203
1439.187347,9088
1440.358075,9110
1441.528269,9138
1442.697931,8880
1443.86706,9229
1445.035657,8814
1446.203721,8634
1447.371253,9015
1448.538253,8637
1449.704721,8720
1450.870658,8889
1452.036064,8617
1453.200938,8811
1454.365282,8956
1455.529094,9043
1456.692377,9004
1457.855129,8910
1459.017351,8839
1460.179043,8663
1461.340206,9221
1462.500839,8611
1463.660943,8914
1464.820517,8867
1465.979563,8391
1467.138081,-61
1468.29607,8913
1469.453531,8336
1470.610464,8615
1471.766869,8263
1472.922746,8497
1474.078096,8308
1475.232919,8443
1476.387215,8357
1477.540985,7963
1478.694227,7998
1479.846944,8168
1480.999134,8229
1482.150798,8354
1483.301937,8261
1484.45255,8243
1485.602637,8390
1486.7522,8336
1487.901238,8259
1489.049751,8180
1490.197739,8237
1491.345203,8203
1492.492144,8285
1493.63856,8137
1494.784452,8264
1495.929821,8130
1497.074667,8153
1498.21899,8196
1499.36279,8324
1500.506067,8567
1501.648821,8275
1502.791054,8406
1503.932764,8196
1505.073953,8558
1506.21462,8217
1507.354765,8479
1508.494389,8602
1509.633492,8325
1510.772074,8367
1511.910136,8398
1513.047677,8275
1514.184698,8557
1515.321198,8296
1516.457179,8579
1517.592641,8508
1518.727582,8651
1519.862005,8800
1520.995909,8590
1522.129293,8411
1523.262159,8769
1524.394507,8465
1525.526336,8349
1526.657647,8762
1527.788441,8643
1528.918717,8824
1530.048475,8896
1531.177716,8696
1532.30644,8940
1533.434647,8883
1534.562338,9011
1535.689512,9011
1536.816169,8741
1537.942311,9157
1539.067937,9073
1540.193047,9079
1541.317642,9159
1542.441721,9142
1543.565285,9358
1544.688335,9248
1545.81087,9005
1546.93289,9443
1548.054396,9204
1549.175388,9256
1550.295866,9229
1551.41583,9474
1552.535281,9573
1553.654218,9814
1554.772643,9905
1555.890554,9678
1557.007953,9919
1558.124839,9600
1559.241213,9438
1560.357075,9928
1561.472424,10125
1562.587262,9481
1563.701589,9841
1564.815404,9977
1565.928708,9889
1567.041501,10056
1568.153783,10108
1569.265555,10112
1570.376816,10248
1571.487567,10172
1572.597808,9805
1573.707539,10282
1574.816761,10221
1575.925473,10577
1577.033676,10588
1578.14137,10432
1579.248555,10772
1580.355231,10546
1581.461399,10590
1582.567059,10994
1583.672211,10567
1584.776854,10812
1585.88099,11192
1586.984619,11128
1588.08774,11266
1589.190354,11215
1590.292462,11403
1591.394062,11706
1592.495156,11614
1593.595744,11724
1594.695825,11783
1595.795401,11703
1596.89447,11832
1597.993034,12257
1599.091093,12328
1600.188647,12299
1601.285695,12431
1602.382239,12312
1603.478278,12602
1604.573812,12971
1605.668843,12869
1606.763369,12867
1607.857391,13218
1608.95091,13277
1610.043925,13467
1611.136437,13376
1612.228446,13437
1613.319952,14094
1614.410955,13926
1615.501455,13995
1616.591453,14144
1617.680949,14254
1618.769943,14222
1619.858435,14414
1620.946426,14391
1622.033915,14661
1623.120903,14860
1624.20739,14694
1625.293376,14741
1626.378861,14549
1627.463845,15048
1628.54833,14851
1629.632314,15102
1630.715799,15268
1631.798783,14916
1632.881268,15423
1633.963254,15191
1635.04474,14775
1636.125728,15203
1637.206216,15032
1638.286206,15063
1639.365698,15121
1640.444691,15041
1641.523187,15087
1642.601184,14766
1643.678683,15179
1644.755686,15086
1645.83219,14520
1646.908198,14859
1647.983708,14638
1649.058722,14571
1650.133239,14632
1651.20726,14697
1652.280785,14693
1653.353813,14290
1654.426346,14443
1655.498383,14392
1656.569924,14462
1657.64097,14084
1658.711521,14062
1659.781577,13947
1660.851139,13912
1661.920205,13771
1662.988777,13273
1664.056855,13370
1665.124439,13343
1666.191529,12836
1667.258126,13105
1668.324229,12754
1669.389838,12621
1670.454955,12479
1671.519578,12239
1672.583709,12606
1673.647347,11834
1674.710493,12036
1675.773147,11245
1676.835308,11311
1677.896978,11381
1678.958155,11208
1680.018842,10905
1681.079037,10728
1682.138741,10763
1683.197954,10370
1684.256676,10297
1685.314908,9858
1686.372649,10197
1687.4299,9613
1688.48666,9623
1689.542931,9062
1690.598713,9386
1691.654004,9216
1692.708807,9098
1693.76312,8861
1694.816944,8922
1695.870279,8948
1696.923126,8562
1697.975484,8200
1699.027354,8356
1700.078736,8620
1701.12963,8018
1702.180036,8134
1703.229955,7921
1704.279386,8090
1705.32833,7646
1706.376787,7558
1707.424757,7428
1708.47224,6988
1709.519237,7424
1710.565748,7123
1711.611772,6828
1712.65731,6888
1713.702363,6796
1714.74693,6842
1715.791011,6747
1716.834608,6722
1717.877719,6679
1718.920345,6667
1719.962486,6374
1721.004143,6257
1722.045316,6107
1723.086004,6175
1724.126208,5989
1725.165929,6007
1726.205165,5934
1727.243918,5735
1728.282188,5941
1729.319975,5608
1730.357278,5815
1731.394099,5509
1732.430437,5447
1733.466293,5518
1734.501666,5647
1735.536557,5249
1736.570967,5482
1737.604894,5171
1738.63834,5228
1739.671304,5279
1740.703787,5008
1741.735789,4759
1742.767311,5207
1743.798351,5013
1744.828911,4999
1745.85899,4492
1746.888589,4579
1747.917708,4967
1748.946348,4712
1749.974507,4629
1751.002187,4661
1752.029388,4335
1753.056109,4515
1754.082351,4115
1755.108115,4486
1756.1334,4456
1757.158206,4337
1758.182534,4337
1759.206384,4317
1760.229755,4439
1761.252649,4128
1762.275065,4280
1763.297004,4078
1764.318466,3882
1765.33945,4059
1766.359957,3812
1767.379988,3907
1768.399542,3980
1769.418619,3557
1770.43722,3451
1771.455345,3803
1772.472994,3929
1773.490167,3877
1774.506865,3670
1775.523087,3713
1776.538834,3549
1777.554106,3696
1778.568902,3818
1779.583224,3653
1780.597072,3304
1781.610444,3696
1782.623343,3633
1783.635768,3514
1784.647718,3568
1785.659195,3144
1786.670198,3373
1787.680728,3570
1788.690784,3345
1789.700368,3382
1790.709478,3102
1791.718116,3588
1792.726281,3383
1793.733973,2988
1794.741194,3187
1795.747942,3217
1796.754218,3362
1797.760023,3127
1798.765356,3131
1799.770217,3287
1800.774607,3466
1801.778526,3059
1802.781974,3117
1803.784952,3357
1804.787458,3131
1805.789495,2989
1806.791061,2953
1807.792156,3100
1808.792782,3172
1809.792938,3213
1810.792625,3022
1811.791842,3028
1812.79059,3115
1813.788868,2958
1814.786678,3122
1815.784019,3087
1816.780891,3010
1817.777295,3129
1818.77323,2867
1819.768697,3211
1820.763697,3017
1821.758228,3100
1822.752292,3304
1823.745888,2947
1824.739017,2845
1825.731679,2920
1826.723874,3051
1827.715602,2967
1828.706863,2643
1829.697658,2680
1830.687986,3250
1831.677848,3063
1832.667244,3027
1833.656175,2823
1834.644639,2977
1835.632638,2935
1836.620172,2917
1837.60724,2859
1838.593844,3013
1839.579982,2730
1840.565656,3103
1841.550865,2938
1842.53561,2831
1843.51989,2786
1844.503706,2728
1845.487059,2817
1846.469947,2602
1847.452372,2701
1848.434334,2683
1849.415832,2825
1850.396867,2866
1851.377439,2784
1852.357549,2792
1853.337195,2883
1854.31638,3222
1855.295101,2702
1856.273361,2697
1857.251159,2679
1858.228494,2881
1859.205369,2749
1860.181781,2933
1861.157732,2512
1862.133222,2943
1863.108251,2610
1864.082819,2818
1865.056926,2714
1866.030573,2589
1867.003759,3141
1867.976485,2841
1868.948751,2492
1869.920556,2713
1870.891902,2806
1871.862789,2402
1872.833216,2660
1873.803183,2536
1874.772691,2390
1875.741741,2387
1876.710331,2331
1877.678463,2421
1878.646136,2368
1879.613351,2524
1880.580108,2755
1881.546406,2493
1882.512247,2410
1883.47763,2549
1884.442555,2694
1885.407023,2525
1886.371033,2540
1887.334586,2324
1888.297683,2486
1889.260322,2566
1890.222505,2634
1891.184231,2287
1892.145501,2338
1893.106315,2377
1894.066673,2552
1895.026574,2397
1895.98602,2405
1896.945011,2430
1897.903546,2582
1898.861626,2286
1899.81925,2466
1900.77642,2282
1901.733135,2477
1902.689395,2246
1903.6452,2571
1904.600551,2133
1905.555448,2668
1906.509891,2360
1907.46388,2318
1908.417416,2703
1909.370498,2684
1910.323126,2757
1911.275301,2549
1912.227023,2526
1913.178292,2463
1914.129108,2524
1915.079471,2528
1916.029382,2748
1916.97884,2559
1917.927846,2329
1918.876401,2356
1919.824503,2566
1920.772153,2635
1921.719352,2623
1922.6661,2458
1923.612396,2333
1924.558241,2548
1925.503635,2483
1926.448578,2481
1927.39307,2710
1928.337112,2548
1929.280703,2582
1930.223844,2813
1931.166535,2264
1932.108776,2501
1933.050568,2553
1933.991909,2949
1934.932801,2466
1935.873244,2605
1936.813238,2668
1937.752782,2454
1938.691878,2550
1939.630525,2571
1940.568723,2544
1941.506473,2649
1942.443774,2720
1943.380627,2339
1944.317033,2709
1945.25299,2648
1946.1885,2732
1947.123562,2683
1948.058177,2505
1948.992344,2798
1949.926065,2680
1950.859338,2706
1951.792165,2803
1952.724545,2730
1953.656478,2483
1954.587965,3046
1955.519006,2574
1956.4496,2787
1957.379749,2770
1958.309452,2357
1959.238709,2544
1960.167521,2432
1961.095888,2867
1962.023809,2620
1962.951285,2560
1963.878317,2420
1964.804903,2427
1965.731045,2493
1966.656743,2744
1967.581996,2305
1968.506805,2706
1969.43117,2681
1970.355091,2554
1971.278568,2528
1972.201602,2666
1973.124192,2791
1974.046339,2624
1974.968043,2898
1975.889304,2787
1976.810122,2531
1977.730498,2531
1978.65043,2598
1979.569921,2604
1980.488969,2801
1981.407574,2321
1982.325738,2459
1983.24346,2679
1984.160741,2546
1985.077579,2642
1985.993977,2752
1986.909933,2699
1987.825448,2617
1988.740522,2654
1989.655155,2474
1990.569347,2428
1991.483099,2783
1992.396411,2800
1993.309282,2564
1994.221713,2501
1995.133704,2817
1996.045256,2799
1996.956367,2582
1997.867039,2614
1998.777272,2686
1999.687065,2438
2000.596419,2697
2001.505335,2656
2002.413811,2816
2003.321849,2881
2004.229448,2644
2005.136609,2694
2006.043331,2604
2006.949616,2670
2007.855462,2562
2008.760871,2795
2009.665841,2858
2010.570375,2736
2011.47447,2684
2012.378129,2921
2013.281351,2861
2014.184135,2909
2015.086483,2560
2015.988393,2598
2016.889868,2534
2017.790906,2838
2018.691507,2716
2019.591673,2527
2020.491402,3008
2021.390695,2649
2022.289553,2783
2023.187975,2883
2024.085962,2637
2024.983514,2715
2025.88063,2990
2026.777311,2901
2027.673557,2909
2028.569369,2774
2029.464746,2905
2030.359688,3185
2031.254197,2834
2032.148271,2828
2033.04191,2912
2033.935116,2698
2034.827889,2886
2035.720227,2918
2036.612132,2784
2037.503604,2747
2038.394642,3005
2039.285248,2866
2040.17542,2799
2041.06516,2766
2041.954466,2855
2042.843341,2584
2043.731783,2895
2044.619792,2959
2045.50737,2630
2046.394516,2615
2047.281229,3017
2048.167511,2713
2049.053362,2751
2049.938781,2607
2050.823768,2815
2051.708325,2772
2052.59245,2982
2053.476145,2765
2054.359409,2883
2055.242242,2987
2056.124645,2593
2057.006617,2872
2057.888159,2388
2058.769271,2741
2059.649953,2795
2060.530206,2616
2061.410028,2804
2062.289421,2594
2063.168385,2832
2064.046919,2455
2064.925025,2563
2065.802701,2807
2066.679949,2625
2067.556767,2794
2068.433157,3023
2069.309119,2993
2070.184652,2577
2071.059758,2714
2071.934435,2840
2072.808684,2569
2073.682505,2958
2074.555899,2640
2075.428865,2579
2076.301404,2662
2077.173516,2846
2078.0452,2663
2078.916458,2860
2079.787289,2773
2080.657693,2782
2081.52767,2890
2082.397221,2665
2083.266346,2878
2084.135044,2808
2085.003316,2880
2085.871163,3637
2086.738584,2632
2087.605579,2843
2088.472148,2727
2089.338292,2854
2090.204011,2790
2091.069305,2740
2091.934174,2815
2092.798618,2687
2093.662637,2471
2094.526231,2777
2095.389402,2673
2096.252147,2647
2097.114469,3039
2097.976366,5991
2098.83784,3518
2099.69889,2926
2100.559516,2661
2101.419719,2651
2102.279498,2525
2103.138854,2759
2103.997786,2804
2104.856296,2710
2105.714383,2953
2106.572047,2980
2107.429289,2721
2108.286108,2961
2109.142504,2682
2109.998479,2470
2110.854031,2766
2111.709161,2746
2112.56387,2380
2113.418156,2997
2114.272021,2505
2115.125465,2731
2115.978487,2941
2116.831089,2473
2117.683269,2488
2118.535028,2948
2119.386366,2525
2120.237284,2662
2121.087781,2318
2121.937857,2553
2122.787514,2508
2123.63675,2514
2124.485566,2585
2125.333962,2749
2126.181939,2140
2127.029496,2827
2127.876633,2865
2128.723351,2628
2129.569649,2552
2130.415529,2723
2131.260989,2535
2132.106031,2432
2132.950654,2606
2133.794858,2270
2134.638643,2491
2135.482011,2379
2136.32496,2262
2137.167491,2584
2138.009604,2331
2138.851299,2551
2139.692576,2569
2140.533436,2327
2141.373878,2211
2142.213903,2407
2143.05351,2419
2143.892701,2444
2144.731474,2403
2145.569831,2201
2146.407771,2495
2147.245294,2285
2148.082401,2422
2148.919091,2441
2149.755365,2254
2150.591224,2127
2151.426666,2042
2152.261692,2400
2153.096302,1994
2153.930497,2216
2154.764277,2255
2155.597641,2210
2156.43059,2183
2157.263124,2504
2158.095242,2306
2158.926946,2047
2159.758236,2043
2160.58911,2117
2161.41957,2375
2162.249616,2142
2163.079248,2163
2163.908465,2365
2164.737269,2078
2165.565658,2013
2166.393634,2062
2167.221196,2113
2168.048345,2018
2168.87508,2294
2169.701402,1984
2170.527311,1921
2171.352807,2126
2172.177891,2047
2173.002561,2348
2173.826819,2021
2174.650664,2452
2175.474097,2120
2176.297117,1997
2177.119726,2367
2177.941922,2152
2178.763707,2024
2179.58508,2055
2180.406041,2006
2181.22659,2005
2182.046729,2109
2182.866456,2035
2183.685771,2041
2184.504676,2100
2185.32317,2078
2186.141253,2004
2186.958925,1929
2187.776187,1992
2188.593038,1900
2189.409479,2099
2190.22551,1826
2191.041131,1850
2191.856342,1870
2192.671143,2106
2193.485534,2171
2194.299516,1795
2195.113088,2106
2195.926251,1719
2196.739005,2004
2197.551349,1859
2198.363285,1737
2199.174812,1764
2199.98593,1889
2200.796639,1458
2201.60694,1943
2202.416832,1884
2203.226317,1878
2204.035393,1732
2204.844061,1852
2205.652321,1805
2206.460173,1855
2207.267618,1465
2208.074655,1677
2208.881285,1519
2209.687507,1766
2210.493322,1741
2211.29873,1770
2212.103732,1846
2212.908326,1431
2213.712513,1739
2214.516294,1700
2215.319669,1628
2216.122637,1721
2216.925199,1799
2217.727355,1765
2218.529105,1708
2219.330449,1588
2220.131387,1736
2220.931919,1641
2221.732046,1664
2222.531768,1559
2223.331084,1596
2224.129995,1428
2224.928501,1716
2225.726602,1559
2226.524298,1815
2227.321589,1398
2228.118476,1503
2228.914959,1704
2229.711037,1391
2230.50671,1553
2231.30198,1750
2232.096846,1641
2232.891307,1512
2233.685365,1833
2234.479019,1724
2235.27227,1322
2236.065117,1698
2236.857561,1760
2237.649602,1262
2238.441239,1484
2239.232474,1541
2240.023306,1644
2240.813735,1748
2241.603761,1319
2242.393385,1612
2243.182607,1524
2243.971426,1518
2244.759843,1507
2245.547858,1335
2246.335471,1582
2247.122682,1266
2247.909492,1549
2248.6959,1435
2249.481906,1433
2250.267511,1180
2251.052715,1340
2251.837518,1442
2252.621919,1477
2253.40592,1320
2254.18952,1259
2254.972719,1411
2255.755518,1211
2256.537916,1456
2257.319914,1389
2258.101512,1313
2258.88271,1325
2259.663507,1531
2260.443905,1297
2261.223903,1394
2262.003501,1194
2262.7827,1134
2263.561499,989
2264.339899,1100
2265.1179,1253
2265.895501,1232
2266.672704,1544
2267.449508,1290
2268.225913,1154
2269.001919,1304
2269.777527,1142
2270.552737,1271
2271.327548,1270
2272.101961,1117
2272.875975,1206
2273.649592,1180
2274.422811,1181
2275.195632,785
2275.968056,1160
2276.740082,1225
2277.511711,1223
2278.282942,1238
2279.053776,1038
2279.824213,1210
2280.594253,1174
2281.363897,1255
2282.133143,1262
2282.901993,1172
2283.670446,1469
2284.438503,1054
2285.206164,821
2285.973428,1125
2286.740296,987
2287.506769,1110
2288.272845,1065
2289.038526,1048
2289.803811,1106
2290.5687,1215
2291.333194,1215
2292.097293,1060
2292.860997,917
2293.624305,995
2294.387219,929
2295.149737,983
2295.911861,1020
2296.67359,1050
2297.434925,927
2298.195865,1112
2298.956411,839
2299.716562,1189
2300.47632,993
2301.235683,1011
2301.994653,1194
2302.753229,1155
2303.511411,1138
2304.269199,1084
2305.026594,1019
2305.783596,1228
2306.540204,795
2307.29642,601
2308.052242,980
2308.807671,961
2309.562708,957
2310.317351,1191
2311.071603,1002
2311.825461,865
2312.578928,896
2313.332002,1076
2314.084684,739
2314.836973,737
2315.588871,714
2316.340377,877
2317.091491,1054
2317.842214,739
2318.592545,872
2319.342485,1245
2320.092033,890
2320.84119,835
2321.589956,747
2322.338331,1227
2323.086315,836
2323.833908,801
2324.581111,1191
2325.327923,789
2326.074345,775
2326.820376,1088
2327.566017,1076
2328.311268,823
2329.056129,852
2329.800599,1225
2330.54468,993
2331.288372,792
2332.031673,969
2332.774585,993
2333.517108,942
2334.259242,978
2335.000986,838
2335.742341,920
2336.483307,658
2337.223884,886
2337.964073,789
2338.703872,720
2339.443283,986
2340.182306,677
2340.92094,895
2341.659187,886
2342.397044,705
2343.134514,948
2343.871596,774
2344.60829,795
2345.344597,583
2346.080515,1026
2346.816046,757
2347.55119,1289
2348.285946,739
2349.020316,807
2349.754298,763
2350.487893,680
2351.221101,1094
2351.953922,743
2352.686356,959
2353.418404,813
2354.150066,856
2354.881341,779
2355.61223,877
2356.342732,719
2357.072849,634
2357.802579,733
2358.531924,631
2359.260883,442
2359.989456,691
2360.717643,969
2361.445445,472
2362.172862,759
2362.899893,553
2363.626539,725
2364.352801,802
2365.078677,821
2365.804168,521
2366.529275,504
2367.253996,826
2367.978334,387
2368.702286,800
2369.425855,534
2370.149039,866
2370.871839,647
2371.594255,735
2372.316287,660
2373.037935,764
2373.7592,611
2374.48008,935
2375.200578,599
2375.920691,765
2376.640422,625
2377.359769,499
2378.078733,663
2378.797314,411
2379.515511,524
2380.233327,486
2380.950759,507
2381.667808,799
2382.384476,505
2383.10076,594
2383.816663,733
2384.532183,599
2385.24732,541
2385.962076,326
2386.67645,634
2387.390442,730
2388.104052,623
2388.817281,462
2389.530128,623
2390.242593,632
2390.954677,688
2391.66638,689
2392.377702,661
2393.088643,335
2393.799202,565
2394.509381,445
2395.219179,698
2395.928596,726
2396.637633,407
2397.346289,494
2398.054565,256
2398.762461,268
2399.469976,233
2400.177111,353
2400.883867,338
2401.590242,552
2402.296238,346
2403.001854,470
2403.70709,612
2404.411947,517
2405.116424,434
2405.820522,458
2406.524241,567
2407.227581,405
2407.930542,374
2408.633123,614
2409.335326,543
2410.037151,267
