Wave shift,Intensity
-31.722347,9123
-29.886687,10231
-28.051868,11768
-26.217889,13513
-24.384749,15659
-22.552448,17781
-20.720985,20203
-18.890361,22628
-17.060575,25554
-15.231626,29043
-13.403514,33736
-11.576239,39615
-9.749799,47887
-7.924195,45668
-6.099426,37582
-4.275492,37183
-2.452392,41523
-0.630127,37165
1.191306,33987
3.011906,33152
4.831672,38601
6.650607,41377
8.46871,23005
10.285982,19503
12.102423,17981
13.918034,16305
15.732815,15063
17.546766,15170
19.359888,14357
21.172181,12590
22.983647,10388
24.794284,9151
26.604094,8705
28.413077,8336
30.221233,7374
32.028563,6017
33.835068,4931
35.640747,4462
37.445602,4132
39.249632,3839
41.052838,3674
42.855221,3577
44.656781,3379
46.457517,3579
48.257432,3389
50.056525,3263
51.854796,3804
53.652246,3151
55.448876,3219
57.244685,3456
59.039675,3551
60.833846,3848
62.627197,3791
64.41973,4017
66.211446,3878
68.002343,4105
69.792423,4516
71.581687,4479
73.370134,4928
75.157765,5435
76.944581,6030
78.730581,6551
80.515767,7291
82.300139,7796
84.083697,8975
85.866441,9810
87.648372,10995
89.429491,12451
91.209797,14180
92.989292,15813
94.767976,19023
96.545848,21807
98.32291,25351
100.099162,31222
101.874604,28762
103.649237,32733
105.423061,32785
107.196077,37499
108.968284,36425
110.739684,35476
112.510277,33854
114.280063,33212
116.049042,33239
117.817216,36838
119.584584,43753
121.351147,39304
123.116905,37681
124.881859,38553
126.646009,29724
128.409356,42474
130.171899,41331
131.93364,39022
133.694578,28270
135.454715,35269
137.21405,34190
138.972584,30059
140.730317,44222
142.48725,37146
144.243384,26878
145.998718,35770
147.753252,30275
149.506989,35818
151.259927,37462
153.012067,43418
154.76341,33804
156.513956,40883
158.263705,36758
160.012659,37736
161.760816,31316
163.508178,37111
165.254745,34923
167.000518,37636
168.745496,38953
170.489681,36421
172.233072,36803
173.975671,43257
175.717476,29523
177.45849,38150
179.198712,30844
180.938142,36671
182.676782,31174
184.414631,37927
186.15169,34938
187.887959,30099
189.623439,40539
191.35813,31562
193.092032,36085
194.825147,34654
196.557473,34023
198.289012,35831
200.019764,34032
201.74973,32594
203.478909,36104
205.207303,36507
206.934911,38557
208.661735,39141
210.387773,33316
212.113028,32039
213.837499,31661
215.561186,35082
217.28409,35766
219.006212,33291
220.727552,33883
222.44811,38396
224.167886,38122
225.886881,34030
227.605096,35307
229.32253,32627
231.039185,32829
232.75506,31058
234.470156,24574
236.184473,33533
237.898012,29813
239.610773,30158
241.322757,37940
243.033964,37212
244.744393,29768
246.454047,35262
248.162924,32224
249.871026,32233
251.578353,35095
253.284905,31881
254.990683,40846
256.695686,32841
258.399916,36130
260.103373,36945
261.806057,36718
263.507968,39542
265.209107,33808
266.909475,32798
268.609071,33764
270.307897,29342
272.005952,34874
273.703236,35675
275.399751,34364
277.095497,33019
278.790473,38994
280.484681,31846
282.178121,34337
283.870793,39201
285.562697,31283
287.253835,40826
288.944205,39238
290.633809,31558
292.322648,32936
294.010721,36973
295.698028,39024
297.384571,40412
299.070349,38408
300.755364,39931
302.439614,35334
304.123102,35275
305.805826,37545
307.487788,35981
309.168988,35623
310.849426,40508
312.529103,33653
314.208018,33562
315.886173,23494
317.563568,36797
319.240203,37937
320.916079,40328
322.591195,36950
324.265552,39104
325.939151,35712
327.611993,35442
329.284076,36089
330.955402,37212
332.625972,42585
334.295785,37539
335.964841,35050
337.633142,32284
339.300688,38825
340.967479,31072
342.633515,38337
344.298796,36296
345.963324,37123
347.627098,36078
349.29012,40907
350.952388,36226
352.613904,37989
354.274668,34779
355.93468,34284
357.593941,38709
359.252451,38988
360.910211,31694
362.56722,37275
364.22348,33963
365.87899,31034
367.533751,41219
369.187763,35904
370.841027,34281
372.493543,37357
374.145311,42614
375.796332,38381
377.446607,23705
379.096134,42754
380.744916,35142
382.392952,32200
384.040242,38236
385.686787,47084
387.332588,37486
388.977645,40568
390.621957,36919
392.265526,42313
393.908351,32071
395.550434,40440
397.191775,38501
398.832373,29433
400.472229,40068
402.111344,43831
403.749718,43579
405.387351,39740
407.024244,30896
408.660397,38569
410.295811,40897
411.930485,41955
413.56442,40451
415.197617,48131
416.830076,27000
418.461796,41346
420.09278,40949
421.723026,37365
423.352536,30589
424.981309,33119
426.609346,38320
428.236648,36500
429.863214,41952
431.489046,44380
433.114143,30451
434.738505,40705
436.362134,33699
437.98503,32057
439.607192,36601
441.228621,33603
442.849318,39156
444.469283,32137
446.088516,38058
447.707018,33456
449.324789,28825
450.941829,36097
452.558139,32680
454.173719,38866
455.78857,8189
457.402691,37078
459.016083,39232
460.628747,38629
462.240682,40038
463.85189,39866
465.46237,37080
467.072124,40131
468.68115,32296
470.28945,40226
471.897024,34548
473.503872,34845
475.109995,40603
476.715393,35795
478.320066,40778
479.924015,34951
481.52724,37110
483.129741,36199
484.731519,33519
486.332575,39324
487.932907,28123
489.532517,37956
491.131406,31791
492.729573,31641
494.327019,37417
495.923744,37671
497.519748,29755
499.115033,36169
500.709597,39758
502.303442,38854
503.896568,37233
505.488976,35577
507.080665,39020
508.671635,38610
510.261889,29986
511.851424,37180
513.440243,33600
515.028345,38791
516.615731,39562
518.202401,37742
519.788355,35683
521.373593,42661
522.958117,36435
524.541926,29972
526.125021,36900
527.707402,30805
529.28907,37666
530.870024,26087
532.450265,31069
534.029794,36187
535.60861,35246
537.186715,42530
538.764108,33067
540.340789,30452
541.91676,39329
543.492021,40052
545.066571,34092
546.640411,35459
548.213542,32345
549.785964,31834
551.357676,40625
552.928681,35921
554.498977,44823
556.068565,33088
557.637446,41582
559.20562,44456
560.773087,40658
562.339847,36781
563.905901,34221
565.47125,32784
567.035893,31715
568.599831,33038
570.163064,37510
571.725593,37088
573.287417,38259
574.848538,42093
576.408955,36144
577.968669,33844
579.52768,36687
581.085989,32109
582.643596,39914
584.200501,37593
585.756704,32873
587.312207,42165
588.867008,39406
590.42111,39470
591.974511,34896
593.527212,35948
595.079214,31281
596.630516,39440
598.18112,40070
599.731025,25357
601.280232,36573
602.828742,39760
604.376554,37393
605.923668,39376
607.470086,33798
609.015808,40126
610.560833,36903
612.105162,39316
613.648796,36305
615.191735,35430
616.733979,33781
618.275528,39650
619.816383,33079
621.356544,31810
622.896012,37924
624.434787,39111
625.972868,33672
627.510257,34441
629.046954,38706
630.582959,33719
632.118272,33885
633.652894,38625
635.186825,37794
636.720066,38149
638.252616,33855
639.784476,37995
641.315647,31797
642.846128,30398
644.37592,33572
645.905024,33745
647.433439,28706
648.961166,36908
650.488206,36604
652.014558,31539
653.540223,33090
655.065201,36160
656.589493,36083
658.113099,35625
659.636019,35928
661.158253,35402
662.679803,35680
664.200668,35357
665.720848,35298
667.240344,35020
668.759156,34871
670.277284,35071
671.79473,34460
673.311492,34625
674.827572,34319
676.34297,34065
677.857686,34002
679.37172,34012
680.885072,28851
682.397744,33515
683.909735,33656
685.421046,33641
686.931677,33238
688.441628,31413
689.950899,33165
691.459492,32825
692.967406,32960
694.474641,32819
695.981198,32936
697.487078,17698
698.992279,32544
700.496804,32577
702.000652,32325
703.503823,30251
705.006318,30984
706.508137,32165
708.00928,31948
709.509748,32168
711.009541,31824
712.50866,32000
714.007104,31884
715.504874,30531
717.00197,31833
718.498393,31612
719.994142,31986
721.489219,31461
722.983624,31339
724.477356,31324
725.970416,30400
727.462805,31089
728.954522,30894
730.445569,26267
731.935944,30916
733.42565,30980
734.914685,30946
736.403051,30642
737.890748,30779
739.377775,30811
740.864133,28675
742.349823,30452
743.834845,30228
745.319199,30695
746.802886,30399
748.285905,30257
749.768257,30356
751.249943,30415
752.730962,30267
754.211315,30239
755.691003,29732
757.170025,29809
758.648382,30099
760.126075,29481
761.603102,29519
763.079466,29369
764.555166,29384
766.030202,29331
767.504575,29554
768.978285,28953
770.451332,28772
771.923717,29220
773.39544,29069
774.866501,28744
776.3369,28730
777.806639,28462
779.275716,28632
780.744134,28134
782.21189,28236
783.678987,28095
785.145425,27301
786.611203,27568
788.076322,27392
789.540782,27145
791.004583,26995
792.467727,26884
793.930213,26805
795.392041,26269
796.853212,25944
798.313726,25851
799.773584,26498
801.232785,25814
802.69133,25786
804.14922,25351
805.606454,25179
807.063032,25147
808.518956,24953
809.974226,24662
811.428841,24811
812.882802,24501
814.33611,24399
815.788764,24488
817.240766,24100
818.692114,24047
820.14281,24092
821.592854,23871
823.042246,23748
824.490986,23729
825.939075,23523
827.386514,23321
828.833301,23421
830.279438,23241
831.724925,22826
833.169762,23199
834.61395,22746
836.057488,23084
837.500378,22392
838.942619,22426
840.384212,22713
841.825156,22552
843.265453,22767
844.705102,17998
846.144105,22440
847.58246,22132
849.020169,22336
850.457231,22047
851.893648,21781
853.329418,22024
854.764544,21756
856.199024,21812
857.632859,21803
859.06605,21516
860.498597,21307
861.9305,21509
863.361759,21254
864.792374,21045
866.222347,21134
867.651677,20713
869.080364,20890
870.508409,20735
871.935812,20532
873.362574,20605
874.788694,20146
876.214173,20217
877.639011,20319
879.063209,20020
880.486766,20054
881.909684,20110
883.331962,19828
884.753601,19773
886.174601,19638
887.594961,19824
889.014684,19518
890.433768,19673
891.852214,19776
893.270023,19317
894.687194,19753
896.103729,19373
897.519626,18892
898.934887,19128
900.349512,19128
901.763501,18970
903.176854,18430
904.589572,18478
906.001655,18470
907.413103,18018
908.823917,18309
910.234096,17803
911.643642,17912
913.052554,17978
914.460832,17537
915.868477,17682
917.27549,17421
918.68187,17651
920.087618,17382
921.492734,17374
922.897218,17093
924.301071,17002
925.704292,17187
927.106883,16802
928.508844,16784
929.910174,16410
931.310874,16310
932.710944,16341
934.110385,16573
935.509197,16247
936.907379,16325
938.304934,16339
939.70186,16110
941.098158,15880
942.493828,15775
943.88887,16006
945.283286,15625
946.677075,15991
948.070236,15466
949.462772,15921
950.854681,15765
952.245965,16178
953.636623,15625
955.026656,16043
956.416064,15788
957.804847,15582
959.193006,15477
960.58054,15448
961.967451,15615
963.353738,15294
964.739402,15528
966.124442,15256
967.50886,15155
968.892656,15049
970.275829,15156
971.65838,15268
973.04031,15115
974.421618,15463
975.802305,14962
977.182371,15163
978.561816,14979
979.940641,15047
981.318846,15257
982.696432,15103
984.073398,15167
985.449744,15005
986.825472,15181
988.200581,15330
989.575072,15345
990.948944,15261
992.322199,15154
993.694836,15072
995.066855,14949
996.438258,15132
997.809044,15056
999.179213,14714
1000.548766,14831
1001.917703,15530
1003.286024,14973
1004.65373,15000
1006.020821,15003
1007.387297,15295
1008.753158,15283
1010.118405,15244
1011.483038,14905
1012.847057,15071
1014.210462,14763
1015.573254,14943
1016.935433,14769
1018.296999,15274
1019.657953,15115
1021.018295,14783
1022.378025,14853
1023.737143,14994
1025.095649,14803
1026.453544,14673
1027.810829,14553
1029.167503,14418
1030.523566,14776
1031.87902,14697
1033.233863,15058
1034.588097,14644
1035.941722,14744
1037.294738,14517
1038.647145,14696
1039.998943,14470
1041.350133,14677
1042.700716,14599
1044.05069,14678
1045.400057,14613
1046.748817,14353
1048.09697,14688
1049.444516,14611
1050.791456,14781
1052.13779,14882
1053.483518,14492
1054.82864,14887
1056.173157,14827
1057.517069,15094
1058.860376,15390
1060.203079,15066
1061.545177,15403
1062.886671,15363
1064.227562,15135
1065.567848,15142
1066.907532,15012
1068.246613,14983
1069.585091,14907
1070.922966,15047
1072.260239,14888
1073.596911,14339
1074.93298,14759
1076.268448,14453
1077.603315,14367
1078.937581,14433
1080.271247,14255
1081.604312,14393
1082.936776,14028
1084.268641,13905
1085.599907,13980
1086.930573,13661
1088.260639,13924
1089.590107,13660
1090.918977,13520
1092.247248,14070
1093.574921,13810
1094.901996,13552
1096.228474,13696
1097.554354,13703
1098.879637,13540
1100.204323,13746
1101.528413,13816
1102.851907,14159
1104.174804,14115
1105.497106,13718
1106.818812,14231
1108.139923,13589
1109.460439,13961
1110.78036,13965
1112.099687,14040
1113.41842,13825
1114.736558,13978
1116.054103,13858
1117.371054,14030
1118.687412,14195
1120.003177,14222
1121.318349,14087
1122.632929,13979
1123.946916,14293
1125.260312,14249
1126.573116,14118
1127.885328,14051
1129.196949,13823
1130.507979,13688
1131.818419,13618
1133.128268,13640
1134.437527,13493
1135.746195,13223
1137.054275,12969
1138.361764,12990
1139.668665,12769
1140.974976,12752
1142.280699,12835
1143.585833,12482
1144.890379,12231
1146.194337,12222
1147.497708,12178
1148.800491,12221
1150.102687,12224
1151.404295,12239
1152.705318,12250
1154.005753,12069
1155.305603,12376
1156.604866,12229
1157.903544,12101
1159.201636,12325
1160.499143,12186
1161.796065,11754
1163.092402,12146
1164.388155,11834
1165.683324,12114
1166.977908,11592
1168.271909,11701
1169.565326,12178
1170.85816,11762
1172.150411,11964
1173.44208,11630
1174.733165,12022
1176.023669,12001
1177.31359,11725
1178.60293,12093
1179.891688,11516
1181.179865,11482
1182.467461,11476
1183.754476,11702
1185.04091,11698
1186.326765,11571
1187.612039,11558
1188.896733,11618
1190.180848,11594
1191.464383,11660
1192.747339,11499
1194.029717,11977
1195.311515,11831
1196.592736,11692
1197.873378,11945
1199.153442,11829
1200.432929,11766
1201.711838,11981
1202.990171,11697
1204.267926,11972
1205.545105,11760
1206.821707,11724
1208.097733,11808
1209.373183,11664
1210.648057,11658
1211.922356,12085
1213.196079,11451
1214.469228,11632
1215.741802,11709
1217.013801,11953
1218.285226,11362
1219.556077,11531
1220.826355,11722
1222.096058,11510
1223.365189,11522
1224.633746,11260
1225.90173,11423
1227.169142,11481
1228.435982,11777
1229.702249,11595
1230.967945,11271
1232.233069,11219
1233.497621,11480
1234.761602,10660
1236.025013,11331
1237.287852,11107
1238.550121,11383
1239.81182,11354
1241.072949,11088
1242.333509,11049
1243.593498,10943
1244.852919,11141
1246.11177,11127
1247.370053,11465
1248.627767,11122
1249.884912,11309
1251.14149,11232
1252.397499,11447
1253.652942,11238
1254.907816,10918
1256.162124,11514
1257.415864,11235
1258.669038,11249
1259.921646,11145
1261.173687,11264
1262.425162,10894
1263.676071,11747
1264.926415,11512
1266.176194,11230
1267.425408,11534
1268.674056,11332
1269.92214,11077
1271.16966,11280
1272.416616,10920
1273.663008,11305
1274.908836,11241
1276.1541,10942
1277.398802,11245
1278.64294,11238
1279.886516,11000
1281.129529,11078
1282.37198,10997
1283.613869,10848
1284.855196,11034
1286.095962,10852
1287.336166,10782
1288.575809,10856
1289.814891,10500
1291.053413,10925
1292.291374,10767
1293.528775,10559
1294.765616,10852
1296.001897,10697
1297.237618,10906
1298.472781,10487
1299.707384,10585
1300.941428,10775
1302.174914,10736
1303.407842,10777
1304.640211,10759
1305.872022,10670
1307.103276,10925
1308.333972,10660
1309.564111,10576
1310.793693,10435
1312.022719,10521
1313.251187,10562
1314.4791,10661
1315.706456,10505
1316.933256,10727
1318.159501,10808
1319.38519,10956
1320.610324,10708
1321.834903,10670
1323.058928,10573
1324.282398,10730
1325.505313,10746
1326.727675,10727
1327.949482,10874
1329.170736,10766
1330.391437,10939
1331.611584,10979
1332.831179,10713
1334.050221,11023
1335.26871,10470
1336.486647,10595
1337.704032,10473
1338.920865,10976
1340.137147,10629
1341.352877,10701
1342.568056,10579
1343.782684,10698
1344.996761,10674
1346.210288,10366
1347.423265,10512
1348.635691,10423
1349.847568,10236
1351.058895,10371
1352.269673,10357
1353.479901,10321
1354.689581,10135
1355.898712,10297
1357.107294,10111
1358.315329,10272
1359.522815,10392
1360.729753,10415
1361.936144,10432
1363.141987,10145
1364.347283,10285
1365.552032,10429
1366.756235,10153
1367.959891,9787
1369.163,10374
1370.365564,10088
1371.567582,10248
1372.769054,10208
1373.96998,10181
1375.170362,10524
1376.370198,10115
1377.56949,9998
1378.768237,10129
1379.96644,10296
1381.164099,10079
1382.361214,10179
1383.557785,9697
1384.753813,9960
1385.949297,10096
1387.144239,10075
1388.338637,9587
1389.532493,10040
1390.725807,9585
1391.918579,9810
1393.110808,9863
1394.302496,9341
1395.493643,9660
1396.684248,9532
1397.874312,9804
1399.063835,9517
1400.252818,9782
1401.44126,9261
1402.629162,9350
1403.816524,8912
1405.003346,9582
1406.189629,9202
1407.375372,9140
1408.560576,9201
1409.745241,9434
1410.929368,9374
1412.112956,9168
1413.296006,9489
1414.478517,9256
1415.660491,8975
1416.841927,8997
1418.022826,9170
1419.203188,9184
1420.383012,8999
1421.5623,9145
1422.741051,9128
1423.919266,9194
1425.096945,9230
1426.274088,9043
1427.450695,9220
1428.626766,8980
1429.802302,9227
1430.977303,9282
1432.15177,9145
1433.325701,9257
1434.499098,9328
1435.671961,9417
1436.84429,8995
1438.016085,9362
1439.187347,9292
1440.358075,8963
1441.528269,9052
1442.697931,8979
1443.86706,9273
1445.035657,9016
1446.203721,8889
1447.371253,9028
1448.538253,8879
1449.704721,8992
1450.870658,9144
1452.036064,8842
1453.200938,8967
1454.365282,9215
1455.529094,9007
1456.692377,9151
1457.855129,9096
1459.017351,9053
1460.179043,8663
1461.340206,8943
1462.500839,8749
1463.660943,8875
1464.820517,8852
1465.979563,8591
1467.138081,55
1468.29607,9058
1469.453531,8581
1470.610464,8807
1471.766869,8633
1472.922746,8586
1474.078096,8472
1475.232919,8426
1476.387215,8535
1477.540985,8490
1478.694227,8130
1479.846944,8370
1480.999134,8090
1482.150798,8267
1483.301937,8378
1484.45255,7989
1485.602637,8719
1486.7522,8392
1487.901238,8707
1489.049751,8379
1490.197739,8224
1491.345203,8313
1492.492144,8217
1493.63856,8441
1494.784452,8241
1495.929821,8273
1497.074667,8194
1498.21899,8414
1499.36279,8360
1500.506067,8766
1501.648821,8282
1502.791054,8523
1503.932764,8737
1505.073953,8642
1506.21462,8347
1507.354765,8450
1508.494389,8871
1509.633492,8208
1510.772074,8515
1511.910136,8575
1513.047677,8581
1514.184698,8567
1515.321198,8671
1516.457179,8605
1517.592641,8685
1518.727582,8494
1519.862005,8487
1520.995909,8767
1522.129293,8352
1523.262159,8610
1524.394507,8726
1525.526336,8603
1526.657647,8933
1527.788441,8858
1528.918717,9146
1530.048475,9073
1531.177716,8851
1532.30644,9234
1533.434647,9114
1534.562338,8892
1535.689512,8950
1536.816169,8847
1537.942311,9242
1539.067937,9395
1540.193047,9443
1541.317642,8919
1542.441721,9113
1543.565285,9254
1544.688335,9085
1545.81087,9309
1546.93289,9287
1548.054396,9376
1549.175388,9704
1550.295866,9500
1551.41583,9930
1552.535281,9753
1553.654218,9930
1554.772643,10111
1555.890554,9884
1557.007953,9675
1558.124839,9842
1559.241213,9486
1560.357075,9861
1561.472424,10216
1562.587262,9893
1563.701589,10034
1564.815404,10051
1565.928708,10062
1567.041501,10145
1568.153783,10228
1569.265555,10077
1570.376816,10319
1571.487567,10320
1572.597808,10080
1573.707539,10266
1574.816761,10386
1575.925473,10597
1577.033676,10688
1578.14137,10687
1579.248555,10842
1580.355231,10696
1581.461399,10774
1582.567059,10974
1583.672211,10873
1584.776854,11161
1585.88099,11157
1586.984619,11204
1588.08774,11466
1589.190354,11632
1590.292462,11492
1591.394062,11938
1592.495156,12028
1593.595744,11998
1594.695825,11973
1595.795401,11839
1596.89447,12372
1597.993034,11992
1599.091093,12327
1600.188647,12370
1601.285695,12643
1602.382239,12552
1603.478278,13004
1604.573812,13009
1605.668843,13120
1606.763369,13053
1607.857391,13334
1608.95091,13530
1610.043925,13712
1611.136437,13762
1612.228446,13622
1613.319952,13990
1614.410955,13925
1615.501455,13995
1616.591453,14373
1617.680949,14423
1618.769943,14460
1619.858435,14808
1620.946426,14449
1622.033915,14734
1623.120903,15023
1624.20739,15015
1625.293376,14930
1626.378861,15070
1627.463845,15227
1628.54833,14997
1629.632314,15179
1630.715799,15508
1631.798783,15382
1632.881268,15333
1633.963254,15304
1635.04474,15001
1636.125728,15367
1637.206216,15253
1638.286206,15278
1639.365698,15234
1640.444691,15218
1641.523187,15333
1642.601184,15044
1643.678683,15280
1644.755686,15305
1645.83219,15191
1646.908198,15014
1647.983708,15265
1649.058722,14965
1650.133239,14920
1651.20726,15015
1652.280785,14584
1653.353813,14718
1654.426346,14506
1655.498383,14356
1656.569924,14425
1657.64097,14441
1658.711521,14430
1659.781577,13941
1660.851139,14070
1661.920205,13974
1662.988777,13850
1664.056855,13856
1665.124439,13428
1666.191529,13247
1667.258126,13223
1668.324229,12671
1669.389838,12622
1670.454955,12401
1671.519578,12455
1672.583709,12429
1673.647347,11975
1674.710493,11837
1675.773147,11572
1676.835308,11679
1677.896978,11406
1678.958155,11505
1680.018842,11056
1681.079037,10842
1682.138741,10903
1683.197954,10567
1684.256676,10518
1685.314908,10121
1686.372649,10196
1687.4299,9997
1688.48666,9843
1689.542931,9120
1690.598713,9406
1691.654004,9386
1692.708807,9420
1693.76312,9149
1694.816944,8927
1695.870279,8984
1696.923126,8809
1697.975484,8485
1699.027354,8530
1700.078736,8675
1701.12963,8382
1702.180036,8364
1703.229955,8058
1704.279386,7997
1705.32833,8181
1706.376787,7772
1707.424757,7667
1708.47224,7293
1709.519237,7712
1710.565748,7356
1711.611772,7205
1712.65731,7229
1713.702363,7044
1714.74693,7112
1715.791011,7295
1716.834608,6786
1717.877719,6888
1718.920345,7033
1719.962486,6879
1721.004143,6553
1722.045316,6265
1723.086004,6333
1724.126208,6570
1725.165929,6331
1726.205165,6122
1727.243918,5982
1728.282188,5826
1729.319975,5863
1730.357278,6101
1731.394099,6047
1732.430437,5653
1733.466293,5504
1734.501666,5579
1735.536557,5508
1736.570967,5667
1737.604894,5374
1738.63834,5361
1739.671304,5495
1740.703787,5359
1741.735789,5125
1742.767311,5234
1743.798351,5274
1744.828911,5227
1745.85899,4709
1746.888589,5044
1747.917708,5253
1748.946348,5010
1749.974507,4799
1751.002187,4644
1752.029388,4820
1753.056109,4782
1754.082351,4522
1755.108115,4793
1756.1334,4548
1757.158206,4479
1758.182534,4436
1759.206384,4512
1760.229755,4662
1761.252649,4468
1762.275065,4635
1763.297004,4266
1764.318466,4131
1765.33945,4168
1766.359957,4398
1767.379988,4285
1768.399542,3782
1769.418619,4011
1770.43722,3965
1771.455345,3686
1772.472994,4180
1773.490167,3972
1774.506865,3933
1775.523087,3794
1776.538834,3843
1777.554106,3878
1778.568902,3999
1779.583224,3806
1780.597072,3742
1781.610444,3865
1782.623343,3690
1783.635768,3783
1784.647718,3486
1785.659195,3375
1786.670198,3332
1787.680728,3498
1788.690784,3747
1789.700368,3505
1790.709478,3437
1791.718116,3780
1792.726281,3839
1793.733973,3545
1794.741194,3566
1795.747942,3466
1796.754218,3624
1797.760023,3311
1798.765356,3498
1799.770217,3472
1800.774607,3824
1801.778526,3452
1802.781974,3361
1803.784952,3549
1804.787458,3275
1805.789495,3142
1806.791061,3298
1807.792156,3282
1808.792782,3448
1809.792938,3195
1810.792625,3323
1811.791842,3446
1812.79059,3280
1813.788868,3204
1814.786678,3209
1815.784019,3467
1816.780891,3135
1817.777295,3450
1818.77323,3864
1819.768697,3584
1820.763697,3345
1821.758228,3325
1822.752292,3362
1823.745888,2925
1824.739017,3136
1825.731679,3050
1826.723874,3096
1827.715602,3166
1828.706863,3136
1829.697658,2994
1830.687986,3289
1831.677848,3166
1832.667244,3118
1833.656175,3225
1834.644639,3208
1835.632638,3144
1836.620172,3104
1837.60724,3062
1838.593844,3406
1839.579982,2928
1840.565656,3198
1841.550865,3250
1842.53561,2894
1843.51989,3032
1844.503706,2843
1845.487059,2919
1846.469947,2924
1847.452372,3205
1848.434334,2962
1849.415832,3363
1850.396867,3071
1851.377439,3007
1852.357549,2856
1853.337195,2813
1854.31638,3239
1855.295101,2911
1856.273361,2951
1857.251159,3083
1858.228494,3054
1859.205369,3387
1860.181781,2983
1861.157732,3049
1862.133222,2949
1863.108251,2883
1864.082819,2815
1865.056926,2789
1866.030573,2748
1867.003759,2980
1867.976485,2873
1868.948751,2597
1869.920556,2972
1870.891902,2726
1871.862789,2809
1872.833216,2772
1873.803183,2790
1874.772691,2773
1875.741741,2939
1876.710331,2588
1877.678463,2617
1878.646136,2723
1879.613351,2914
1880.580108,2891
1881.546406,3155
1882.512247,2410
1883.47763,2789
1884.442555,3067
1885.407023,2717
1886.371033,2651
1887.334586,2592
1888.297683,2914
1889.260322,2707
1890.222505,2770
1891.184231,2431
1892.145501,2374
1893.106315,2423
1894.066673,2715
1895.026574,2423
1895.98602,2555
1896.945011,2618
1897.903546,2511
1898.861626,2619
1899.81925,2671
1900.77642,2843
1901.733135,2673
1902.689395,2567
1903.6452,2689
1904.600551,2493
1905.555448,2651
1906.509891,2652
1907.46388,2429
1908.417416,2910
1909.370498,2792
1910.323126,2887
1911.275301,2601
1912.227023,2670
1913.178292,2768
1914.129108,2726
1915.079471,2343
1916.029382,2822
1916.97884,2759
1917.927846,2574
1918.876401,2559
1919.824503,2587
1920.772153,2850
1921.719352,3099
1922.6661,2517
1923.612396,2675
1924.558241,2705
1925.503635,2515
1926.448578,2431
1927.39307,2844
1928.337112,2787
1929.280703,2800
1930.223844,2725
1931.166535,2809
1932.108776,2740
1933.050568,2821
1933.991909,2860
1934.932801,2652
1935.873244,2602
1936.813238,2875
1937.752782,2596
1938.691878,2694
1939.630525,2464
1940.568723,2751
1941.506473,2939
1942.443774,2823
1943.380627,2689
1944.317033,2872
1945.25299,2825
1946.1885,2885
1947.123562,2679
1948.058177,2690
1948.992344,2863
1949.926065,2900
1950.859338,2460
1951.792165,2941
1952.724545,2841
1953.656478,2811
1954.587965,2892
1955.519006,2941
1956.4496,2980
1957.379749,2634
1958.309452,2697
1959.238709,2571
1960.167521,2754
1961.095888,2960
1962.023809,3142
1962.951285,2754
1963.878317,2677
1964.804903,2612
1965.731045,2553
1966.656743,2947
1967.581996,2762
1968.506805,2764
1969.43117,2997
1970.355091,2886
1971.278568,2667
1972.201602,2833
1973.124192,2768
1974.046339,2846
1974.968043,2906
1975.889304,3003
1976.810122,2626
1977.730498,2573
1978.65043,2787
1979.569921,2864
1980.488969,3067
1981.407574,2552
1982.325738,2830
1983.24346,2799
1984.160741,2646
1985.077579,2927
1985.993977,2886
1986.909933,3069
1987.825448,2747
1988.740522,2784
1989.655155,2749
1990.569347,2717
1991.483099,2798
1992.396411,2935
1993.309282,2733
1994.221713,2792
1995.133704,2896
1996.045256,3044
1996.956367,2581
1997.867039,2628
1998.777272,2995
1999.687065,2511
2000.596419,2889
2001.505335,2688
2002.413811,3165
2003.321849,3063
2004.229448,2775
2005.136609,2848
2006.043331,3050
2006.949616,2868
2007.855462,2767
2008.760871,2943
2009.665841,3095
2010.570375,2921
2011.47447,2813
2012.378129,3245
2013.281351,3095
2014.184135,3073
2015.086483,2940
2015.988393,2734
2016.889868,2552
2017.790906,2915
2018.691507,2796
2019.591673,2853
2020.491402,3254
2021.390695,2848
2022.289553,3001
2023.187975,3025
2024.085962,2742
2024.983514,3018
2025.88063,3034
2026.777311,3218
2027.673557,3176
2028.569369,2800
2029.464746,3256
2030.359688,3161
2031.254197,3033
2032.148271,3121
2033.04191,3273
2033.935116,3011
2034.827889,3054
2035.720227,3072
2036.612132,2946
2037.503604,2944
2038.394642,3289
2039.285248,3066
2040.17542,3146
2041.06516,3061
2041.954466,3011
2042.843341,2912
2043.731783,3071
2044.619792,3046
2045.50737,2796
2046.394516,3109
2047.281229,3009
2048.167511,2867
2049.053362,3031
2049.938781,2714
2050.823768,3072
2051.708325,2898
2052.59245,2907
2053.476145,3037
2054.359409,2892
2055.242242,3148
2056.124645,2646
2057.006617,2965
2057.888159,2678
2058.769271,2903
2059.649953,3157
2060.530206,2687
2061.410028,3024
2062.289421,2949
2063.168385,2877
2064.046919,2748
2064.925025,2665
2065.802701,2929
2066.679949,3008
2067.556767,3010
2068.433157,2973
2069.309119,3092
2070.184652,2894
2071.059758,3104
2071.934435,2888
2072.808684,3020
2073.682505,3177
2074.555899,2982
2075.428865,2862
2076.301404,3226
2077.173516,2691
2078.0452,2870
2078.916458,3091
2079.787289,3032
2080.657693,3092
2081.52767,3023
2082.397221,3045
2083.266346,3043
2084.135044,2783
2085.003316,3055
2085.871163,2841
2086.738584,2790
2087.605579,2931
2088.472148,3033
2089.338292,2983
2090.204011,3026
2091.069305,2901
2091.934174,3065
2092.798618,2990
2093.662637,2705
2094.526231,2893
2095.389402,2648
2096.252147,2928
2097.114469,2981
2097.976366,2718
2098.83784,2962
2099.69889,2947
2100.559516,2655
2101.419719,2912
2102.279498,2944
2103.138854,2907
2103.997786,2941
2104.856296,3005
2105.714383,2960
2106.572047,3075
2107.429289,2883
2108.286108,3050
2109.142504,2734
2109.998479,2799
2110.854031,3005
2111.709161,2755
2112.56387,2811
2113.418156,2963
2114.272021,2771
2115.125465,2530
2115.978487,3099
2116.831089,2717
2117.683269,2927
2118.535028,3097
2119.386366,2702
2120.237284,2901
2121.087781,2602
2121.937857,2963
2122.787514,2740
2123.63675,2712
2124.485566,2838
2125.333962,2697
2126.181939,2873
2127.029496,3187
2127.876633,2954
2128.723351,2839
2129.569649,2764
2130.415529,2866
2131.260989,2619
2132.106031,2709
2132.950654,2439
2133.794858,2664
2134.638643,2803
2135.482011,2625
2136.32496,2548
2137.167491,2713
2138.009604,2660
2138.851299,2645
2139.692576,2680
2140.533436,2936
2141.373878,2354
2142.213903,2685
2143.05351,2532
2143.892701,2800
2144.731474,2632
2145.569831,2612
2146.407771,2762
2147.245294,2505
2148.082401,2730
2148.919091,2671
2149.755365,2343
2150.591224,2302
2151.426666,2220
2152.261692,2458
2153.096302,2353
2153.930497,2449
2154.764277,2251
2155.597641,2297
2156.43059,2528
2157.263124,2904
2158.095242,2428
2158.926946,2421
2159.758236,2274
2160.58911,2562
2161.41957,2577
2162.249616,2219
2163.079248,2422
2163.908465,2599
2164.737269,2335
2165.565658,2296
2166.393634,2173
2167.221196,2146
2168.048345,2237
2168.87508,2453
2169.701402,2156
2170.527311,2112
2171.352807,2482
2172.177891,2302
2173.002561,2578
2173.826819,2263
2174.650664,2650
2175.474097,2448
2176.297117,2458
2177.119726,2420
2177.941922,2507
2178.763707,2319
2179.58508,2439
2180.406041,2316
2181.22659,2277
2182.046729,2193
2182.866456,2395
2183.685771,2259
2184.504676,2409
2185.32317,2100
2186.141253,2322
2186.958925,2211
2187.776187,2209
2188.593038,1954
2189.409479,2086
2190.22551,2213
2191.041131,2147
2191.856342,2032
2192.671143,2213
2193.485534,2361
2194.299516,1968
2195.113088,2451
2195.926251,2098
2196.739005,2048
2197.551349,1964
2198.363285,2002
2199.174812,1933
2199.98593,1853
2200.796639,1608
2201.60694,2157
2202.416832,2043
2203.226317,2032
2204.035393,2084
2204.844061,2173
2205.652321,1858
2206.460173,2119
2207.267618,1936
2208.074655,1919
2208.881285,1712
2209.687507,2025
2210.493322,1983
2211.29873,2205
2212.103732,1867
2212.908326,1813
2213.712513,1912
2214.516294,1983
2215.319669,2078
2216.122637,1775
2216.925199,1794
2217.727355,2124
2218.529105,2167
2219.330449,1715
2220.131387,1909
2220.931919,1897
2221.732046,1858
2222.531768,1713
2223.331084,1693
2224.129995,1568
2224.928501,1768
2225.726602,2022
2226.524298,1664
2227.321589,1746
2228.118476,1887
2228.914959,1912
2229.711037,1505
2230.50671,1665
2231.30198,1812
2232.096846,1763
2232.891307,1904
2233.685365,2144
2234.479019,1882
2235.27227,1493
2236.065117,1903
2236.857561,1958
2237.649602,1542
2238.441239,1781
2239.232474,1818
2240.023306,1867
2240.813735,1639
2241.603761,1477
2242.393385,1810
2243.182607,1624
2243.971426,1827
2244.759843,1771
2245.547858,1552
2246.335471,1853
2247.122682,1300
2247.909492,1757
2248.6959,1669
2249.481906,1665
2250.267511,1364
2251.052715,1677
2251.837518,1446
2252.621919,1606
2253.40592,1450
2254.18952,1379
2254.972719,1464
2255.755518,1617
2256.537916,1481
2257.319914,1610
2258.101512,1497
2258.88271,1292
2259.663507,1606
2260.443905,1514
2261.223903,1557
2262.003501,1504
2262.7827,1601
2263.561499,1253
2264.339899,1366
2265.1179,1314
2265.895501,1595
2266.672704,1382
2267.449508,1514
2268.225913,1451
2269.001919,1376
2269.777527,1279
2270.552737,1386
2271.327548,1494
2272.101961,1081
2272.875975,1338
2273.649592,1497
2274.422811,1377
2275.195632,1335
2275.968056,1404
2276.740082,1451
2277.511711,1686
2278.282942,1470
2279.053776,1439
2279.824213,1318
2280.594253,1335
2281.363897,1243
2282.133143,1298
2282.901993,1201
2283.670446,1761
2284.438503,1207
2285.206164,1051
2285.973428,1255
2286.740296,1084
2287.506769,1146
2288.272845,1265
2289.038526,1145
2289.803811,1559
2290.5687,1334
2291.333194,1271
2292.097293,1434
2292.860997,1336
2293.624305,1313
2294.387219,1486
2295.149737,1171
2295.911861,1199
2296.67359,1219
2297.434925,1136
2298.195865,1351
2298.956411,1043
2299.716562,1665
2300.47632,1317
2301.235683,1142
2301.994653,1397
2302.753229,1569
2303.511411,1536
2304.269199,1322
2305.026594,1241
2305.783596,1240
2306.540204,1070
2307.29642,984
2308.052242,1365
2308.807671,1190
2309.562708,1393
2310.317351,1569
2311.071603,1563
2311.825461,1146
2312.578928,925
2313.332002,1306
2314.084684,1222
2314.836973,851
2315.588871,911
2316.340377,1182
2317.091491,1041
2317.842214,1454
2318.592545,1699
2319.342485,1303
2320.092033,1161
2320.84119,938
2321.589956,999
2322.338331,1233
2323.086315,971
2323.833908,1084
2324.581111,1000
2325.327923,1115
2326.074345,1142
2326.820376,1339
2327.566017,1226
2328.311268,924
2329.056129,1331
2329.800599,1294
2330.54468,1229
2331.288372,853
2332.031673,1010
2332.774585,1261
2333.517108,1161
2334.259242,1386
2335.000986,956
2335.742341,1201
2336.483307,976
2337.223884,1212
2337.964073,955
2338.703872,1007
2339.443283,1082
2340.182306,802
2340.92094,956
2341.659187,1191
2342.397044,1171
2343.134514,1038
2343.871596,998
2344.60829,1207
2345.344597,859
2346.080515,1127
2346.816046,948
2347.55119,1453
2348.285946,971
2349.020316,811
2349.754298,983
2350.487893,835
2351.221101,1300
2351.953922,1295
2352.686356,897
2353.418404,1097
2354.150066,1101
2354.881341,1162
2355.61223,1247
2356.342732,864
2357.072849,822
2357.802579,1110
2358.531924,764
2359.260883,837
2359.989456,866
2360.717643,1227
2361.445445,1134
2362.172862,1094
2362.899893,822
2363.626539,865
2364.352801,987
2365.078677,1000
2365.804168,1025
2366.529275,1075
2367.253996,1080
2367.978334,767
2368.702286,1137
2369.425855,836
2370.149039,1037
2370.871839,716
2371.594255,737
2372.316287,724
2373.037935,997
2373.7592,712
2374.48008,883
2375.200578,920
2375.920691,1125
2376.640422,800
2377.359769,676
2378.078733,771
2378.797314,586
2379.515511,850
2380.233327,690
2380.950759,927
2381.667808,839
2382.384476,963
2383.10076,941
2383.816663,813
2384.532183,841
2385.24732,653
2385.962076,613
2386.67645,630
2387.390442,922
2388.104052,626
2388.817281,656
2389.530128,686
2390.242593,864
2390.954677,996
2391.66638,756
2392.377702,800
2393.088643,549
2393.799202,989
2394.509381,833
2395.219179,939
2395.928596,866
2396.637633,588
2397.346289,620
2398.054565,814
2398.762461,337
2399.469976,437
2400.177111,497
2400.883867,495
2401.590242,799
2402.296238,424
2403.001854,686
2403.70709,780
2404.411947,499
2405.116424,685
2405.820522,661
2406.524241,785
2407.227581,651
2407.930542,421
2408.633123,888
2409.335326,500
2410.037151,294
