Wave shift,Intensity
-31.722347,9746
-29.886687,11080
-28.051868,12196
-26.217889,14307
-24.384749,16671
-22.552448,19073
-20.720985,21664
-18.890361,24266
-17.060575,27447
-15.231626,31367
-13.403514,36439
-11.576239,42252
-9.749799,47780
-7.924195,45561
-6.099426,37475
-4.275492,37076
-2.452392,41416
-0.630127,37058
1.191306,33880
3.011906,33045
4.831672,38494
6.650607,41270
8.46871,25138
10.285982,21181
12.102423,19038
13.918034,17489
15.732815,16195
17.546766,15833
19.359888,15005
21.172181,12957
22.983647,11012
24.794284,9661
26.604094,9209
28.413077,8405
30.221233,7710
32.028563,6304
33.835068,5052
35.640747,4728
37.445602,4387
39.249632,4085
41.052838,3768
42.855221,3688
44.656781,3418
46.457517,3639
48.257432,3406
50.056525,3392
51.854796,3716
53.652246,3225
55.448876,3336
57.244685,3419
59.039675,3522
60.833846,3834
62.627197,3799
64.41973,3818
66.211446,3872
68.002343,4091
69.792423,4151
71.581687,4353
73.370134,4969
75.157765,5450
76.944581,6131
78.730581,6309
80.515767,7340
82.300139,7825
84.083697,8891
85.866441,10071
87.648372,10758
89.429491,12186
91.209797,14299
92.989292,15819
94.767976,18800
96.545848,21995
98.32291,25313
100.099162,31066
101.874604,28655
103.649237,32626
105.423061,32678
107.196077,37392
108.968284,36318
110.739684,35369
112.510277,33747
114.280063,33105
116.049042,33132
117.817216,36731
119.584584,43646
121.351147,39197
123.116905,37574
124.881859,38446
126.646009,29617
128.409356,42367
130.171899,41224
131.93364,38915
133.694578,28163
135.454715,35162
137.21405,34083
138.972584,29952
140.730317,44115
142.48725,37039
144.243384,26771
145.998718,35663
147.753252,30168
149.506989,35711
151.259927,37355
153.012067,43311
154.76341,33697
156.513956,40776
158.263705,36651
160.012659,37629
161.760816,31209
163.508178,37004
165.254745,34816
167.000518,37529
168.745496,38846
170.489681,36314
172.233072,36696
173.975671,43150
175.717476,29416
177.45849,38043
179.198712,30737
180.938142,36564
182.676782,31067
184.414631,37820
186.15169,34831
187.887959,29992
189.623439,40432
191.35813,31455
193.092032,35978
194.825147,34547
196.557473,33916
198.289012,35724
200.019764,33925
201.74973,32487
203.478909,35997
205.207303,36400
206.934911,38450
208.661735,39034
210.387773,33209
212.113028,31932
213.837499,31554
215.561186,34975
217.28409,35659
219.006212,33184
220.727552,33776
222.44811,38289
224.167886,38015
225.886881,33923
227.605096,35200
229.32253,32520
231.039185,32722
232.75506,30951
234.470156,24467
236.184473,33426
237.898012,29706
239.610773,30051
241.322757,37833
243.033964,37105
244.744393,29661
246.454047,35155
248.162924,32117
249.871026,32126
251.578353,34988
253.284905,31774
254.990683,40739
256.695686,32734
258.399916,36023
260.103373,36838
261.806057,36611
263.507968,39435
265.209107,33701
266.909475,32691
268.609071,33657
270.307897,29235
272.005952,34767
273.703236,35568
275.399751,34257
277.095497,32912
278.790473,38887
280.484681,31739
282.178121,34230
283.870793,39094
285.562697,31176
287.253835,40719
288.944205,39131
290.633809,31451
292.322648,32829
294.010721,36866
295.698028,38917
297.384571,40305
299.070349,38301
300.755364,39824
302.439614,35227
304.123102,35168
305.805826,37438
307.487788,35874
309.168988,35516
310.849426,40401
312.529103,33546
314.208018,33455
315.886173,23387
317.563568,36690
319.240203,37830
320.916079,40221
322.591195,36843
324.265552,38997
325.939151,35605
327.611993,35335
329.284076,35982
330.955402,37105
332.625972,42478
334.295785,37432
335.964841,34943
337.633142,32177
339.300688,38718
340.967479,30965
342.633515,38230
344.298796,36189
345.963324,37016
347.627098,35971
349.29012,40800
350.952388,36119
352.613904,37882
354.274668,34672
355.93468,34177
357.593941,38602
359.252451,38881
360.910211,31587
362.56722,37168
364.22348,33856
365.87899,30927
367.533751,41112
369.187763,35797
370.841027,34174
372.493543,37250
374.145311,42507
375.796332,38274
377.446607,23598
379.096134,42647
380.744916,35035
382.392952,32093
384.040242,38129
385.686787,46977
387.332588,37379
388.977645,40461
390.621957,36812
392.265526,42206
393.908351,31964
395.550434,40333
397.191775,38394
398.832373,29326
400.472229,39961
402.111344,43724
403.749718,43472
405.387351,39633
407.024244,30789
408.660397,38462
410.295811,40790
411.930485,41848
413.56442,40344
415.197617,48024
416.830076,26893
418.461796,41239
420.09278,40842
421.723026,37258
423.352536,30482
424.981309,33012
426.609346,38213
428.236648,36393
429.863214,41845
431.489046,44273
433.114143,30344
434.738505,40598
436.362134,33592
437.98503,31950
439.607192,36494
441.228621,33496
442.849318,39049
444.469283,32030
446.088516,37951
447.707018,33349
449.324789,28718
450.941829,35990
452.558139,32573
454.173719,38759
455.78857,8082
457.402691,36971
459.016083,39125
460.628747,38522
462.240682,39931
463.85189,39759
465.46237,36973
467.072124,40024
468.68115,32189
470.28945,40119
471.897024,34441
473.503872,34738
475.109995,40496
476.715393,35688
478.320066,40671
479.924015,34844
481.52724,37003
483.129741,36092
484.731519,33412
486.332575,39217
487.932907,28016
489.532517,37849
491.131406,31684
492.729573,31534
494.327019,37310
495.923744,37564
497.519748,29648
499.115033,36062
500.709597,39651
502.303442,38747
503.896568,37126
505.488976,35470
507.080665,38913
508.671635,38503
510.261889,29879
511.851424,37073
513.440243,33493
515.028345,38684
516.615731,39455
518.202401,37635
519.788355,35576
521.373593,42554
522.958117,36328
524.541926,29865
526.125021,36793
527.707402,30698
529.28907,37559
530.870024,25980
532.450265,30962
534.029794,36080
535.60861,35139
537.186715,42423
538.764108,32960
540.340789,30345
541.91676,39222
543.492021,39945
545.066571,33985
546.640411,35352
548.213542,32238
549.785964,31727
551.357676,40518
552.928681,35814
554.498977,44716
556.068565,32981
557.637446,41475
559.20562,44349
560.773087,40551
562.339847,36674
563.905901,34114
565.47125,32677
567.035893,31608
568.599831,32931
570.163064,37403
571.725593,36981
573.287417,38152
574.848538,41986
576.408955,36037
577.968669,33737
579.52768,36580
581.085989,32002
582.643596,39807
584.200501,37486
585.756704,32766
587.312207,42329
588.867008,39299
590.42111,39363
591.974511,34789
593.527212,35841
595.079214,31174
596.630516,39333
598.18112,39963
599.731025,25250
601.280232,36466
602.828742,39653
604.376554,37286
605.923668,39269
607.470086,33691
609.015808,40450
610.560833,36796
612.105162,39209
613.648796,36198
615.191735,35323
616.733979,33674
618.275528,39429
619.816383,32972
621.356544,31703
622.896012,37817
624.434787,38923
625.972868,33565
627.510257,34334
629.046954,38487
630.582959,33612
632.118272,33778
633.652894,38490
635.186825,37687
636.720066,38042
638.252616,33748
639.784476,37730
641.315647,31690
642.846128,30291
644.37592,33465
645.905024,33638
647.433439,28599
648.961166,36644
650.488206,36749
652.014558,31432
653.540223,32983
655.065201,36053
656.589493,36202
658.113099,35629
659.636019,35862
661.158253,35295
662.679803,35484
664.200668,35443
665.720848,35224
667.240344,35021
668.759156,34618
670.277284,34862
671.79473,34753
673.311492,34590
674.827572,34366
676.34297,34011
677.857686,33857
679.37172,33907
680.885072,28744
682.397744,33435
683.909735,33325
685.421046,33369
686.931677,33080
688.441628,31306
689.950899,32898
691.459492,32956
692.967406,32846
694.474641,32430
695.981198,32868
697.487078,17591
698.992279,32424
700.496804,32585
702.000652,32451
703.503823,30144
705.006318,30877
706.508137,32080
708.00928,31888
709.509748,32108
711.009541,31807
712.50866,32061
714.007104,31696
715.504874,30424
717.00197,31288
718.498393,31706
719.994142,31519
721.489219,31640
722.983624,31097
724.477356,31136
725.970416,30293
727.462805,31300
728.954522,30744
730.445569,26160
731.935944,31070
733.42565,30911
734.914685,30820
736.403051,30814
737.890748,30637
739.377775,30545
740.864133,28568
742.349823,30266
743.834845,29909
745.319199,30665
746.802886,30436
748.285905,30469
749.768257,29923
751.249943,30154
752.730962,30129
754.211315,29884
755.691003,29653
757.170025,29787
758.648382,30005
760.126075,29683
761.603102,29308
763.079466,29520
764.555166,29166
766.030202,28877
767.504575,29235
768.978285,29240
770.451332,28938
771.923717,29123
773.39544,29016
774.866501,28735
776.3369,28544
777.806639,28219
779.275716,28334
780.744134,28154
782.21189,27880
783.678987,27838
785.145425,27168
786.611203,27547
788.076322,27287
789.540782,27146
791.004583,27153
792.467727,26802
793.930213,26517
795.392041,26103
796.853212,26057
798.313726,25935
799.773584,25837
801.232785,25454
802.69133,25911
804.14922,25090
805.606454,24868
807.063032,25113
808.518956,25019
809.974226,25021
811.428841,24501
812.882802,24218
814.33611,24257
815.788764,24164
817.240766,24006
818.692114,23881
820.14281,23749
821.592854,24010
823.042246,23852
824.490986,23401
825.939075,23283
827.386514,23512
828.833301,23367
830.279438,23180
831.724925,22800
833.169762,22735
834.61395,22830
836.057488,23077
837.500378,22330
838.942619,22600
840.384212,22423
841.825156,22643
843.265453,22492
844.705102,17891
846.144105,22512
847.58246,21885
849.020169,22204
850.457231,22082
851.893648,21969
853.329418,21928
854.764544,21387
856.199024,21808
857.632859,21741
859.06605,21612
860.498597,21202
861.9305,21409
863.361759,21172
864.792374,21080
866.222347,21166
867.651677,20959
869.080364,20499
870.508409,20758
871.935812,20558
873.362574,20359
874.788694,20052
876.214173,20272
877.639011,19923
879.063209,20481
880.486766,19731
881.909684,20074
883.331962,19774
884.753601,19708
886.174601,19915
887.594961,19857
889.014684,19443
890.433768,19443
891.852214,19750
893.270023,19186
894.687194,19320
896.103729,19310
897.519626,19051
898.934887,19411
900.349512,18979
901.763501,18816
903.176854,18417
904.589572,18286
906.001655,18434
907.413103,17810
908.823917,18214
910.234096,17875
911.643642,17987
913.052554,17903
914.460832,17685
915.868477,17581
917.27549,17703
918.68187,17429
920.087618,17337
921.492734,16986
922.897218,16899
924.301071,16979
925.704292,17223
927.106883,16956
928.508844,16735
929.910174,16271
931.310874,16713
932.710944,16447
934.110385,16318
935.509197,16059
936.907379,16402
938.304934,16171
939.70186,15916
941.098158,15783
942.493828,15953
943.88887,15783
945.283286,15606
946.677075,15624
948.070236,15856
949.462772,15730
950.854681,15694
952.245965,15899
953.636623,15648
955.026656,15582
956.416064,15599
957.804847,15819
959.193006,15376
960.58054,15266
961.967451,15449
963.353738,15298
964.739402,15545
966.124442,15240
967.50886,15015
968.892656,15361
970.275829,15235
971.65838,15275
973.04031,15060
974.421618,15275
975.802305,15265
977.182371,14987
978.561816,15123
979.940641,15060
981.318846,15166
982.696432,15271
984.073398,14698
985.449744,15092
986.825472,14960
988.200581,15193
989.575072,15386
990.948944,15159
992.322199,14928
993.694836,14830
995.066855,14693
996.438258,14931
997.809044,15111
999.179213,14748
1000.548766,14897
1001.917703,15284
1003.286024,15095
1004.65373,15018
1006.020821,14780
1007.387297,14885
1008.753158,15120
1010.118405,14859
1011.483038,14609
1012.847057,14964
1014.210462,14954
1015.573254,14810
1016.935433,14707
1018.296999,15095
1019.657953,14930
1021.018295,14611
1022.378025,14747
1023.737143,14712
1025.095649,14710
1026.453544,14665
1027.810829,14543
1029.167503,14589
1030.523566,14652
1031.87902,14379
1033.233863,15035
1034.588097,14617
1035.941722,14620
1037.294738,14514
1038.647145,14794
1039.998943,14497
1041.350133,14714
1042.700716,14440
1044.05069,14299
1045.400057,14549
1046.748817,14715
1048.09697,14715
1049.444516,14824
1050.791456,14686
1052.13779,14810
1053.483518,14602
1054.82864,14609
1056.173157,14792
1057.517069,15041
1058.860376,15187
1060.203079,14967
1061.545177,15230
1062.886671,15130
1064.227562,15135
1065.567848,15189
1066.907532,15121
1068.246613,14957
1069.585091,14891
1070.922966,14836
1072.260239,14794
1073.596911,14458
1074.93298,14481
1076.268448,14527
1077.603315,13990
1078.937581,14541
1080.271247,14203
1081.604312,14315
1082.936776,14110
1084.268641,14025
1085.599907,13934
1086.930573,13651
1088.260639,13602
1089.590107,13697
1090.918977,13509
1092.247248,13817
1093.574921,13714
1094.901996,13757
1096.228474,13715
1097.554354,13522
1098.879637,13642
1100.204323,13615
1101.528413,13613
1102.851907,13993
1104.174804,13987
1105.497106,13807
1106.818812,14096
1108.139923,13626
1109.460439,14094
1110.78036,13923
1112.099687,14139
1113.41842,13728
1114.736558,13865
1116.054103,13813
1117.371054,13947
1118.687412,13847
1120.003177,14036
1121.318349,14155
1122.632929,14137
1123.946916,14042
1125.260312,14042
1126.573116,13852
1127.885328,14019
1129.196949,13598
1130.507979,13599
1131.818419,13607
1133.128268,13766
1134.437527,13182
1135.746195,13015
1137.054275,13047
1138.361764,12867
1139.668665,12693
1140.974976,12671
1142.280699,12698
1143.585833,12316
1144.890379,12060
1146.194337,12229
1147.497708,12042
1148.800491,11903
1150.102687,12194
1151.404295,12152
1152.705318,11954
1154.005753,11925
1155.305603,12547
1156.604866,11911
1157.903544,12004
1159.201636,12197
1160.499143,12054
1161.796065,11924
1163.092402,12181
1164.388155,11814
1165.683324,12055
1166.977908,11681
1168.271909,11226
1169.565326,11840
1170.85816,11641
1172.150411,11951
1173.44208,11641
1174.733165,11867
1176.023669,11830
1177.31359,11633
1178.60293,11673
1179.891688,11582
1181.179865,11481
1182.467461,11313
1183.754476,11577
1185.04091,11697
1186.326765,11347
1187.612039,11722
1188.896733,11555
1190.180848,11728
1191.464383,11634
1192.747339,11520
1194.029717,11519
1195.311515,11442
1196.592736,11568
1197.873378,11655
1199.153442,11760
1200.432929,11813
1201.711838,11625
1202.990171,11616
1204.267926,11735
1205.545105,11622
1206.821707,11652
1208.097733,11556
1209.373183,11778
1210.648057,11520
1211.922356,11753
1213.196079,11480
1214.469228,11798
1215.741802,11663
1217.013801,11808
1218.285226,11429
1219.556077,11480
1220.826355,11543
1222.096058,11393
1223.365189,11668
1224.633746,11612
1225.90173,11276
1227.169142,11182
1228.435982,11395
1229.702249,11622
1230.967945,11196
1232.233069,11116
1233.497621,11553
1234.761602,11044
1236.025013,11311
1237.287852,11024
1238.550121,11160
1239.81182,11145
1241.072949,11102
1242.333509,10882
1243.593498,11036
1244.852919,11120
1246.11177,11307
1247.370053,11173
1248.627767,11009
1249.884912,11206
1251.14149,10676
1252.397499,11185
1253.652942,11161
1254.907816,10866
1256.162124,11273
1257.415864,11238
1258.669038,11234
1259.921646,11453
1261.173687,11223
1262.425162,11112
1263.676071,11465
1264.926415,11125
1266.176194,11196
1267.425408,11622
1268.674056,11702
1269.92214,10978
1271.16966,11443
1272.416616,10906
1273.663008,11169
1274.908836,11231
1276.1541,10931
1277.398802,10943
1278.64294,11171
1279.886516,10940
1281.129529,11033
1282.37198,10854
1283.613869,10964
1284.855196,10767
1286.095962,10808
1287.336166,10628
1288.575809,10621
1289.814891,10542
1291.053413,10872
1292.291374,10502
1293.528775,10536
1294.765616,10863
1296.001897,10641
1297.237618,10786
1298.472781,10433
1299.707384,10620
1300.941428,10637
1302.174914,10748
1303.407842,10665
1304.640211,10336
1305.872022,10588
1307.103276,10819
1308.333972,10344
1309.564111,10633
1310.793693,10596
1312.022719,10160
1313.251187,10498
1314.4791,10616
1315.706456,10322
1316.933256,10610
1318.159501,10696
1319.38519,10899
1320.610324,10686
1321.834903,10655
1323.058928,10623
1324.282398,10726
1325.505313,10694
1326.727675,10775
1327.949482,10787
1329.170736,10509
1330.391437,10539
1331.611584,10887
1332.831179,10348
1334.050221,11030
1335.26871,10336
1336.486647,10613
1337.704032,10803
1338.920865,10608
1340.137147,10489
1341.352877,10592
1342.568056,10638
1343.782684,10520
1344.996761,10564
1346.210288,10125
1347.423265,10252
1348.635691,10283
1349.847568,10114
1351.058895,10332
1352.269673,10281
1353.479901,10138
1354.689581,10181
1355.898712,10095
1357.107294,10310
1358.315329,10246
1359.522815,10493
1360.729753,10417
1361.936144,10291
1363.141987,10241
1364.347283,10457
1365.552032,10420
1366.756235,10246
1367.959891,9871
1369.163,10082
1370.365564,10207
1371.567582,10136
1372.769054,9821
1373.96998,10000
1375.170362,10163
1376.370198,9977
1377.56949,10256
1378.768237,10030
1379.96644,10396
1381.164099,10047
1382.361214,10154
1383.557785,9748
1384.753813,9813
1385.949297,9890
1387.144239,10105
1388.338637,9739
1389.532493,9932
1390.725807,9682
1391.918579,9919
1393.110808,9601
1394.302496,9334
1395.493643,9522
1396.684248,9379
1397.874312,9739
1399.063835,9401
1400.252818,9595
1401.44126,9075
1402.629162,9316
1403.816524,9124
1405.003346,9149
1406.189629,9341
1407.375372,9183
1408.560576,9168
1409.745241,9408
1410.929368,9122
1412.112956,9268
1413.296006,9341
1414.478517,8956
1415.660491,9126
1416.841927,8901
1418.022826,9046
1419.203188,9349
1420.383012,9212
1421.5623,8991
1422.741051,8906
1423.919266,8841
1425.096945,8929
1426.274088,9078
1427.450695,8946
1428.626766,9161
1429.802302,9115
1430.977303,9014
1432.15177,9057
1433.325701,9071
1434.499098,9065
1435.671961,9073
1436.84429,9037
1438.016085,9248
1439.187347,9069
1440.358075,8842
1441.528269,9062
1442.697931,8930
1443.86706,9106
1445.035657,9087
1446.203721,8887
1447.371253,8943
1448.538253,8747
1449.704721,9043
1450.870658,9052
1452.036064,8880
1453.200938,8837
1454.365282,8862
1455.529094,9183
1456.692377,9032
1457.855129,8998
1459.017351,8984
1460.179043,8795
1461.340206,9024
1462.500839,8886
1463.660943,8817
1464.820517,9074
1465.979563,8525
1467.138081,-52
1468.29607,8801
1469.453531,8428
1470.610464,8701
1471.766869,8483
1472.922746,8573
1474.078096,8220
1475.232919,8578
1476.387215,8273
1477.540985,8165
1478.694227,7954
1479.846944,8106
1480.999134,8065
1482.150798,8139
1483.301937,8140
1484.45255,8223
1485.602637,8473
1486.7522,8194
1487.901238,8210
1489.049751,8490
1490.197739,8162
1491.345203,8119
1492.492144,8319
1493.63856,8237
1494.784452,8275
1495.929821,8411
1497.074667,8230
1498.21899,8655
1499.36279,8225
1500.506067,8503
1501.648821,8046
1502.791054,8429
1503.932764,8344
1505.073953,8563
1506.21462,7984
1507.354765,8477
1508.494389,8514
1509.633492,8304
1510.772074,8178
1511.910136,8346
1513.047677,8381
1514.184698,8355
1515.321198,8744
1516.457179,8401
1517.592641,8377
1518.727582,8753
1519.862005,8682
1520.995909,8690
1522.129293,8563
1523.262159,8822
1524.394507,8658
1525.526336,8721
1526.657647,8855
1527.788441,8514
1528.918717,8793
1530.048475,8807
1531.177716,9013
1532.30644,8959
1533.434647,8793
1534.562338,8744
1535.689512,8831
1536.816169,9016
1537.942311,8971
1539.067937,9301
1540.193047,9366
1541.317642,9152
1542.441721,9224
1543.565285,9433
1544.688335,9321
1545.81087,9301
1546.93289,9524
1548.054396,9240
1549.175388,9436
1550.295866,9414
1551.41583,9503
1552.535281,9664
1553.654218,9794
1554.772643,9824
1555.890554,9765
1557.007953,10010
1558.124839,9592
1559.241213,9191
1560.357075,9958
1561.472424,9935
1562.587262,9665
1563.701589,10010
1564.815404,9970
1565.928708,10183
1567.041501,10011
1568.153783,10237
1569.265555,10057
1570.376816,10279
1571.487567,10139
1572.597808,10005
1573.707539,10355
1574.816761,10246
1575.925473,10575
1577.033676,10648
1578.14137,10500
1579.248555,10563
1580.355231,10747
1581.461399,10676
1582.567059,10840
1583.672211,10802
1584.776854,10872
1585.88099,10909
1586.984619,11358
1588.08774,11228
1589.190354,11233
1590.292462,11428
1591.394062,11813
1592.495156,11683
1593.595744,11686
1594.695825,12052
1595.795401,11598
1596.89447,12224
1597.993034,11952
1599.091093,12207
1600.188647,12272
1601.285695,12683
1602.382239,12322
1603.478278,12684
1604.573812,12919
1605.668843,13168
1606.763369,12897
1607.857391,13473
1608.95091,13436
1610.043925,13595
1611.136437,13460
1612.228446,13668
1613.319952,13898
1614.410955,14290
1615.501455,14111
1616.591453,14504
1617.680949,14190
1618.769943,14441
1619.858435,14517
1620.946426,14390
1622.033915,14636
1623.120903,15041
1624.20739,14848
1625.293376,14783
1626.378861,14921
1627.463845,15140
1628.54833,15140
1629.632314,15114
1630.715799,15365
1631.798783,14918
1632.881268,15220
1633.963254,15290
1635.04474,15061
1636.125728,15284
1637.206216,15211
1638.286206,15374
1639.365698,15307
1640.444691,15178
1641.523187,15252
1642.601184,14848
1643.678683,15383
1644.755686,15060
1645.83219,14773
1646.908198,15058
1647.983708,14882
1649.058722,14991
1650.133239,14720
1651.20726,14688
1652.280785,14791
1653.353813,14407
1654.426346,14403
1655.498383,14190
1656.569924,14346
1657.64097,14295
1658.711521,14099
1659.781577,14124
1660.851139,13997
1661.920205,13917
1662.988777,13567
1664.056855,13565
1665.124439,13430
1666.191529,13133
1667.258126,12993
1668.324229,12936
1669.389838,12719
1670.454955,12351
1671.519578,12414
1672.583709,12318
1673.647347,11906
1674.710493,11990
1675.773147,11432
1676.835308,11503
1677.896978,11263
1678.958155,11273
1680.018842,10977
1681.079037,10686
1682.138741,10405
1683.197954,10458
1684.256676,10396
1685.314908,10064
1686.372649,10071
1687.4299,9704
1688.48666,9673
1689.542931,9016
1690.598713,9442
1691.654004,9306
1692.708807,8996
1693.76312,9132
1694.816944,8970
1695.870279,9069
1696.923126,8735
1697.975484,8360
1699.027354,8522
1700.078736,8735
1701.12963,8195
1702.180036,8201
1703.229955,8018
1704.279386,8039
1705.32833,7880
1706.376787,7691
1707.424757,7678
1708.47224,7335
1709.519237,7493
1710.565748,7244
1711.611772,7287
1712.65731,7053
1713.702363,6838
1714.74693,6875
1715.791011,6980
1716.834608,6590
1717.877719,6728
1718.920345,6803
1719.962486,6625
1721.004143,6410
1722.045316,6019
1723.086004,6386
1724.126208,6405
1725.165929,6175
1726.205165,6037
1727.243918,6100
1728.282188,5837
1729.319975,5769
1730.357278,5889
1731.394099,5651
1732.430437,5520
1733.466293,5642
1734.501666,5536
1735.536557,5386
1736.570967,5518
1737.604894,5194
1738.63834,5129
1739.671304,5176
1740.703787,5225
1741.735789,5155
1742.767311,5303
1743.798351,5298
1744.828911,5022
1745.85899,4845
1746.888589,5091
1747.917708,4842
1748.946348,4993
1749.974507,4777
1751.002187,4602
1752.029388,4518
1753.056109,4629
1754.082351,4420
1755.108115,4599
1756.1334,4585
1757.158206,4491
1758.182534,4346
1759.206384,4416
1760.229755,4530
1761.252649,4353
1762.275065,4242
1763.297004,4077
1764.318466,3950
1765.33945,4081
1766.359957,4069
1767.379988,4023
1768.399542,3888
1769.418619,3883
1770.43722,3804
1771.455345,3900
1772.472994,3946
1773.490167,3808
1774.506865,3629
1775.523087,3606
1776.538834,3710
1777.554106,3611
1778.568902,3670
1779.583224,3797
1780.597072,3597
1781.610444,3619
1782.623343,3707
1783.635768,3571
1784.647718,3322
1785.659195,3385
1786.670198,3303
1787.680728,3721
1788.690784,3688
1789.700368,3409
1790.709478,3431
1791.718116,3590
1792.726281,3519
1793.733973,3376
1794.741194,3585
1795.747942,3348
1796.754218,3337
1797.760023,3240
1798.765356,3326
1799.770217,3552
1800.774607,3404
1801.778526,3181
1802.781974,3348
1803.784952,3195
1804.787458,3038
1805.789495,2942
1806.791061,3109
1807.792156,3296
1808.792782,3472
1809.792938,3215
1810.792625,3093
1811.791842,3170
1812.79059,3362
1813.788868,3154
1814.786678,3054
1815.784019,3253
1816.780891,3179
1817.777295,3165
1818.77323,2863
1819.768697,3139
1820.763697,3190
1821.758228,3171
1822.752292,3248
1823.745888,3127
1824.739017,3092
1825.731679,2999
1826.723874,3031
1827.715602,2978
1828.706863,3020
1829.697658,3010
1830.687986,3322
1831.677848,3024
1832.667244,3163
1833.656175,2814
1834.644639,3065
1835.632638,3251
1836.620172,3100
1837.60724,2971
1838.593844,3109
1839.579982,2955
1840.565656,3054
1841.550865,3098
1842.53561,2773
1843.51989,2904
1844.503706,2865
1845.487059,2951
1846.469947,2835
1847.452372,3053
1848.434334,3348
1849.415832,2826
1850.396867,3089
1851.377439,3035
1852.357549,3036
1853.337195,2660
1854.31638,3075
1855.295101,2884
1856.273361,2799
1857.251159,2882
1858.228494,3114
1859.205369,2964
1860.181781,2704
1861.157732,2663
1862.133222,2809
1863.108251,3061
1864.082819,2792
1865.056926,2862
1866.030573,2681
1867.003759,3060
1867.976485,2963
1868.948751,2600
1869.920556,2779
1870.891902,2859
1871.862789,2656
1872.833216,2755
1873.803183,2846
1874.772691,2469
1875.741741,2598
1876.710331,2712
1877.678463,2651
1878.646136,2715
1879.613351,2698
1880.580108,2901
1881.546406,2686
1882.512247,2573
1883.47763,2707
1884.442555,2783
1885.407023,2505
1886.371033,2711
1887.334586,2676
1888.297683,2900
1889.260322,2657
1890.222505,2597
1891.184231,2525
1892.145501,2586
1893.106315,2640
1894.066673,2568
1895.026574,2457
1895.98602,2613
1896.945011,2215
1897.903546,2634
1898.861626,2346
1899.81925,2655
1900.77642,2710
1901.733135,2500
1902.689395,2557
1903.6452,2683
1904.600551,2358
1905.555448,2537
1906.509891,2454
1907.46388,2298
1908.417416,2775
1909.370498,2581
1910.323126,2902
1911.275301,2709
1912.227023,2657
1913.178292,2653
1914.129108,2805
1915.079471,2593
1916.029382,2725
1916.97884,2597
1917.927846,2531
1918.876401,2525
1919.824503,2719
1920.772153,2688
1921.719352,2756
1922.6661,2698
1923.612396,2588
1924.558241,2515
1925.503635,2582
1926.448578,2692
1927.39307,2783
1928.337112,2688
1929.280703,2538
1930.223844,2801
1931.166535,2520
1932.108776,2632
1933.050568,2592
1933.991909,3019
1934.932801,2464
1935.873244,2684
1936.813238,2738
1937.752782,2446
1938.691878,2830
1939.630525,2664
1940.568723,2778
1941.506473,3047
1942.443774,2661
1943.380627,2727
1944.317033,2828
1945.25299,2555
1946.1885,2788
1947.123562,2964
1948.058177,2472
1948.992344,2746
1949.926065,2970
1950.859338,2424
1951.792165,2856
1952.724545,2862
1953.656478,2705
1954.587965,2933
1955.519006,2868
1956.4496,2872
1957.379749,2807
1958.309452,2678
1959.238709,2562
1960.167521,2582
1961.095888,2716
1962.023809,3021
1962.951285,2849
1963.878317,2681
1964.804903,2741
1965.731045,2492
1966.656743,2635
1967.581996,2552
1968.506805,2603
1969.43117,2870
1970.355091,2958
1971.278568,2692
1972.201602,2746
1973.124192,2792
1974.046339,2979
1974.968043,2949
1975.889304,2806
1976.810122,2541
1977.730498,2482
1978.65043,2746
1979.569921,2574
1980.488969,3059
1981.407574,2678
1982.325738,2707
1983.24346,2873
1984.160741,2683
1985.077579,2674
1985.993977,2647
1986.909933,2706
1987.825448,2713
1988.740522,2749
1989.655155,2541
1990.569347,2698
1991.483099,2753
1992.396411,2920
1993.309282,2562
1994.221713,2765
1995.133704,2847
1996.045256,2774
1996.956367,2612
1997.867039,2695
1998.777272,2736
1999.687065,2691
2000.596419,3061
2001.505335,3444
2002.413811,3093
2003.321849,2890
2004.229448,2721
2005.136609,2831
2006.043331,2822
2006.949616,3009
2007.855462,2633
2008.760871,2792
2009.665841,2879
2010.570375,2961
2011.47447,2848
2012.378129,2981
2013.281351,2956
2014.184135,3008
2015.086483,2811
2015.988393,2700
2016.889868,2639
2017.790906,2860
2018.691507,2850
2019.591673,2673
2020.491402,2964
2021.390695,2888
2022.289553,2896
2023.187975,2755
2024.085962,2777
2024.983514,2964
2025.88063,3256
2026.777311,3256
2027.673557,3064
2028.569369,2914
2029.464746,2996
2030.359688,2848
2031.254197,3124
2032.148271,3198
2033.04191,3155
2033.935116,2868
2034.827889,2748
2035.720227,2844
2036.612132,2883
2037.503604,2875
2038.394642,3210
2039.285248,2994
2040.17542,2996
2041.06516,3030
2041.954466,2931
2042.843341,2877
2043.731783,2965
2044.619792,3052
2045.50737,2767
2046.394516,2809
2047.281229,3016
2048.167511,2678
2049.053362,2928
2049.938781,2488
2050.823768,2998
2051.708325,2830
2052.59245,2847
2053.476145,2836
2054.359409,2774
2055.242242,2855
2056.124645,2687
2057.006617,2829
2057.888159,2538
2058.769271,2693
2059.649953,2797
2060.530206,2636
2061.410028,2805
2062.289421,2783
2063.168385,2825
2064.046919,2715
2064.925025,2812
2065.802701,3016
2066.679949,2836
2067.556767,2859
2068.433157,3003
2069.309119,3096
2070.184652,2832
2071.059758,3038
2071.934435,2949
2072.808684,2618
2073.682505,3136
2074.555899,2756
2075.428865,2725
2076.301404,2981
2077.173516,2869
2078.0452,2838
2078.916458,2976
2079.787289,2806
2080.657693,3050
2081.52767,2934
2082.397221,2767
2083.266346,3086
2084.135044,2637
2085.003316,3061
2085.871163,2899
2086.738584,2665
2087.605579,2955
2088.472148,3000
2089.338292,2709
2090.204011,2993
2091.069305,2823
2091.934174,2778
2092.798618,3002
2093.662637,2701
2094.526231,2937
2095.389402,2933
2096.252147,2613
2097.114469,3019
2097.976366,2681
2098.83784,2833
2099.69889,2748
2100.559516,2578
2101.419719,3075
2102.279498,2812
2103.138854,2879
2103.997786,2936
2104.856296,2837
2105.714383,2934
2106.572047,2986
2107.429289,2889
2108.286108,3044
2109.142504,2978
2109.998479,2753
2110.854031,2915
2111.709161,2559
2112.56387,2472
2113.418156,2915
2114.272021,2487
2115.125465,2654
2115.978487,3000
2116.831089,2944
2117.683269,2906
2118.535028,3325
2119.386366,2515
2120.237284,2606
2121.087781,2740
2121.937857,2933
2122.787514,2837
2123.63675,2587
2124.485566,2587
2125.333962,2774
2126.181939,2706
2127.029496,2794
2127.876633,2752
2128.723351,2852
2129.569649,2707
2130.415529,2453
2131.260989,2735
2132.106031,2828
2132.950654,2394
2133.794858,2478
2134.638643,2421
2135.482011,2607
2136.32496,2724
2137.167491,2591
2138.009604,2639
2138.851299,2568
2139.692576,2593
2140.533436,2574
2141.373878,2387
2142.213903,2807
2143.05351,2600
2143.892701,2565
2144.731474,2587
2145.569831,2383
2146.407771,2538
2147.245294,2626
2148.082401,2603
2148.919091,2585
2149.755365,2479
2150.591224,2483
2151.426666,2213
2152.261692,2629
2153.096302,2297
2153.930497,2331
2154.764277,2366
2155.597641,2254
2156.43059,2396
2157.263124,2960
2158.095242,2424
2158.926946,2457
2159.758236,2353
2160.58911,2278
2161.41957,2390
2162.249616,2488
2163.079248,2298
2163.908465,2417
2164.737269,2401
2165.565658,2255
2166.393634,2136
2167.221196,2133
2168.048345,2127
2168.87508,2334
2169.701402,2262
2170.527311,2030
2171.352807,2340
2172.177891,2140
2173.002561,2159
2173.826819,2015
2174.650664,2495
2175.474097,2066
2176.297117,2202
2177.119726,2413
2177.941922,2291
2178.763707,2174
2179.58508,2425
2180.406041,2003
2181.22659,2244
2182.046729,2361
2182.866456,2123
2183.685771,2335
2184.504676,2157
2185.32317,2140
2186.141253,2308
2186.958925,1854
2187.776187,2073
2188.593038,2281
2189.409479,2202
2190.22551,2178
2191.041131,2137
2191.856342,1925
2192.671143,2121
2193.485534,2187
2194.299516,1991
2195.113088,2240
2195.926251,1879
2196.739005,1916
2197.551349,2102
2198.363285,2028
2199.174812,2014
2199.98593,1822
2200.796639,1746
2201.60694,2577
2202.416832,1950
2203.226317,1979
2204.035393,1899
2204.844061,1845
2205.652321,1957
2206.460173,1929
2207.267618,1796
2208.074655,1783
2208.881285,1654
2209.687507,1911
2210.493322,1919
2211.29873,2048
2212.103732,1826
2212.908326,1859
2213.712513,1656
2214.516294,1803
2215.319669,1842
2216.122637,1771
2216.925199,1602
2217.727355,1776
2218.529105,1930
2219.330449,1751
2220.131387,1992
2220.931919,1563
2221.732046,1888
2222.531768,1757
2223.331084,1638
2224.129995,1624
2224.928501,1763
2225.726602,1690
2226.524298,1729
2227.321589,1713
2228.118476,1554
2228.914959,1658
2229.711037,1629
2230.50671,1626
2231.30198,1772
2232.096846,1861
2232.891307,1817
2233.685365,1715
2234.479019,1613
2235.27227,1554
2236.065117,1795
2236.857561,1721
2237.649602,1432
2238.441239,1611
2239.232474,1557
2240.023306,1873
2240.813735,1641
2241.603761,1596
2242.393385,1670
2243.182607,1548
2243.971426,1571
2244.759843,1524
2245.547858,1660
2246.335471,1599
2247.122682,1494
2247.909492,1820
2248.6959,1406
2249.481906,1496
2250.267511,1457
2251.052715,1665
2251.837518,1380
2252.621919,1451
2253.40592,1474
2254.18952,1480
2254.972719,1386
2255.755518,1354
2256.537916,1318
2257.319914,1677
2258.101512,1472
2258.88271,1293
2259.663507,1783
2260.443905,1245
2261.223903,1727
2262.003501,1210
2262.7827,1300
2263.561499,1342
2264.339899,1382
2265.1179,1128
2265.895501,1491
2266.672704,1562
2267.449508,1569
2268.225913,1465
2269.001919,1620
2269.777527,1064
2270.552737,1333
2271.327548,1436
2272.101961,1221
2272.875975,1244
2273.649592,1286
2274.422811,1279
2275.195632,1202
2275.968056,1281
2276.740082,1194
2277.511711,1471
2278.282942,1544
2279.053776,947
2279.824213,1035
2280.594253,1215
2281.363897,1340
2282.133143,1184
2282.901993,1339
2283.670446,1560
2284.438503,1223
2285.206164,1142
2285.973428,1034
2286.740296,1047
2287.506769,1072
2288.272845,1124
2289.038526,1095
2289.803811,1257
2290.5687,1262
2291.333194,1378
2292.097293,1162
2292.860997,1169
2293.624305,1213
2294.387219,1161
2295.149737,1247
2295.911861,1017
2296.67359,1032
2297.434925,1169
2298.195865,1093
2298.956411,951
2299.716562,1460
2300.47632,1192
2301.235683,1035
2301.994653,1433
2302.753229,1374
2303.511411,1364
2304.269199,850
2305.026594,1182
2305.783596,1038
2306.540204,1009
2307.29642,1074
2308.052242,1145
2308.807671,1075
2309.562708,1149
2310.317351,1399
2311.071603,1123
2311.825461,1002
2312.578928,806
2313.332002,1205
2314.084684,1180
2314.836973,846
2315.588871,795
2316.340377,813
2317.091491,1045
2317.842214,996
2318.592545,1169
2319.342485,1158
2320.092033,911
2320.84119,967
2321.589956,848
2322.338331,1270
2323.086315,835
2323.833908,1152
2324.581111,1141
2325.327923,1142
2326.074345,985
2326.820376,1364
2327.566017,1060
2328.311268,1023
2329.056129,943
2329.800599,1006
2330.54468,1214
2331.288372,892
2332.031673,1030
2332.774585,1175
2333.517108,1185
2334.259242,1075
2335.000986,950
2335.742341,955
2336.483307,1067
2337.223884,1182
2337.964073,826
2338.703872,939
2339.443283,1134
2340.182306,1004
2340.92094,953
2341.659187,917
2342.397044,737
2343.134514,1055
2343.871596,946
2344.60829,996
2345.344597,697
2346.080515,1102
2346.816046,1027
2347.55119,1135
2348.285946,960
2349.020316,479
2349.754298,929
2350.487893,869
2351.221101,971
2351.953922,1224
2352.686356,824
2353.418404,1140
2354.150066,975
2354.881341,1038
2355.61223,1372
2356.342732,862
2357.072849,830
2357.802579,881
2358.531924,751
2359.260883,718
2359.989456,827
2360.717643,995
2361.445445,852
2362.172862,816
2362.899893,705
2363.626539,848
2364.352801,818
2365.078677,990
2365.804168,914
2366.529275,953
2367.253996,912
2367.978334,851
2368.702286,645
2369.425855,757
2370.149039,1057
2370.871839,606
2371.594255,608
2372.316287,721
2373.037935,788
2373.7592,811
2374.48008,845
2375.200578,884
2375.920691,884
2376.640422,668
2377.359769,382
2378.078733,675
2378.797314,454
2379.515511,528
2380.233327,474
2380.950759,1025
2381.667808,978
2382.384476,775
2383.10076,770
2383.816663,945
2384.532183,788
2385.24732,405
2385.962076,482
2386.67645,705
2387.390442,753
2388.104052,662
2388.817281,490
2389.530128,695
2390.242593,718
2390.954677,848
2391.66638,785
2392.377702,837
2393.088643,590
2393.799202,461
2394.509381,558
2395.219179,762
2395.928596,801
2396.637633,699
2397.346289,534
2398.054565,605
2398.762461,589
2399.469976,289
2400.177111,583
2400.883867,453
2401.590242,655
2402.296238,473
2403.001854,572
2403.70709,620
2404.411947,507
2405.116424,412
2405.820522,512
2406.524241,654
2407.227581,548
2407.930542,433
2408.633123,830
2409.335326,308
2410.037151,207
