Wave shift,Intensity
-31.722347,9203
-29.886687,10546
-28.051868,11760
-26.217889,13648
-24.384749,16210
-22.552448,18171
-20.720985,20713
-18.890361,23368
-17.060575,26553
-15.231626,30156
-13.403514,35111
-11.576239,41054
-9.749799,47771
-7.924195,45552
-6.099426,37466
-4.275492,37067
-2.452392,41407
-0.630127,37049
1.191306,33871
3.011906,33036
4.831672,38485
6.650607,41261
8.46871,25029
10.285982,21853
12.102423,19963
13.918034,17976
15.732815,16725
17.546766,16672
19.359888,16060
21.172181,13787
22.983647,11477
24.794284,10156
26.604094,9494
28.413077,8678
30.221233,7801
32.028563,6244
33.835068,5201
35.640747,4696
37.445602,4559
39.249632,4208
41.052838,3852
42.855221,3938
44.656781,3272
46.457517,3655
48.257432,3261
50.056525,3302
51.854796,3490
53.652246,3376
55.448876,3259
57.244685,3492
59.039675,3785
60.833846,3565
62.627197,3820
64.41973,3965
66.211446,3972
68.002343,4158
69.792423,4506
71.581687,4391
73.370134,4848
75.157765,5250
76.944581,5742
78.730581,6342
80.515767,7371
82.300139,7884
84.083697,9029
85.866441,10032
87.648372,10928
89.429491,12413
91.209797,14250
92.989292,15882
94.767976,18852
96.545848,21677
98.32291,25160
100.099162,30725
101.874604,28646
103.649237,32617
105.423061,32669
107.196077,37383
108.968284,36309
110.739684,35360
112.510277,33738
114.280063,33096
116.049042,33123
117.817216,36722
119.584584,43637
121.351147,39188
123.116905,37565
124.881859,38437
126.646009,29608
128.409356,42358
130.171899,41215
131.93364,38906
133.694578,28154
135.454715,35153
137.21405,34074
138.972584,29943
140.730317,44106
142.48725,37030
144.243384,26762
145.998718,35654
147.753252,30159
149.506989,35702
151.259927,37346
153.012067,43302
154.76341,33688
156.513956,40767
158.263705,36642
160.012659,37620
161.760816,31200
163.508178,36995
165.254745,34807
167.000518,37520
168.745496,38837
170.489681,36305
172.233072,36687
173.975671,43141
175.717476,29407
177.45849,38034
179.198712,30728
180.938142,36555
182.676782,31058
184.414631,37811
186.15169,34822
187.887959,29983
189.623439,40423
191.35813,31446
193.092032,35969
194.825147,34538
196.557473,33907
198.289012,35715
200.019764,33916
201.74973,32478
203.478909,35988
205.207303,36391
206.934911,38441
208.661735,39025
210.387773,33200
212.113028,31923
213.837499,31545
215.561186,34966
217.28409,35650
219.006212,33175
220.727552,33767
222.44811,38280
224.167886,38006
225.886881,33914
227.605096,35191
229.32253,32511
231.039185,32713
232.75506,30942
234.470156,24458
236.184473,33417
237.898012,29697
239.610773,30042
241.322757,37824
243.033964,37096
244.744393,29652
246.454047,35146
248.162924,32108
249.871026,32117
251.578353,34979
253.284905,31765
254.990683,40730
256.695686,32725
258.399916,36014
260.103373,36829
261.806057,36602
263.507968,39426
265.209107,33692
266.909475,32682
268.609071,33648
270.307897,29226
272.005952,34758
273.703236,35559
275.399751,34248
277.095497,32903
278.790473,38878
280.484681,31730
282.178121,34221
283.870793,39085
285.562697,31167
287.253835,40710
288.944205,39122
290.633809,31442
292.322648,32820
294.010721,36857
295.698028,38908
297.384571,40296
299.070349,38292
300.755364,39815
302.439614,35218
304.123102,35159
305.805826,37429
307.487788,35865
309.168988,35507
310.849426,40392
312.529103,33537
314.208018,33446
315.886173,23378
317.563568,36681
319.240203,37821
320.916079,40212
322.591195,36834
324.265552,38988
325.939151,35596
327.611993,35326
329.284076,35973
330.955402,37096
332.625972,42469
334.295785,37423
335.964841,34934
337.633142,32168
339.300688,38709
340.967479,30956
342.633515,38221
344.298796,36180
345.963324,37007
347.627098,35962
349.29012,40791
350.952388,36110
352.613904,37873
354.274668,34663
355.93468,34168
357.593941,38593
359.252451,38872
360.910211,31578
362.56722,37159
364.22348,33847
365.87899,30918
367.533751,41103
369.187763,35788
370.841027,34165
372.493543,37241
374.145311,42498
375.796332,38265
377.446607,23589
379.096134,42638
380.744916,35026
382.392952,32084
384.040242,38120
385.686787,46968
387.332588,37370
388.977645,40452
390.621957,36803
392.265526,42197
393.908351,31955
395.550434,40324
397.191775,38385
398.832373,29317
400.472229,39952
402.111344,43715
403.749718,43463
405.387351,39624
407.024244,30780
408.660397,38453
410.295811,40781
411.930485,41839
413.56442,40335
415.197617,48015
416.830076,26884
418.461796,41230
420.09278,40833
421.723026,37249
423.352536,30473
424.981309,33003
426.609346,38204
428.236648,36384
429.863214,41836
431.489046,44264
433.114143,30335
434.738505,40589
436.362134,33583
437.98503,31941
439.607192,36485
441.228621,33487
442.849318,39040
444.469283,32021
446.088516,37942
447.707018,33340
449.324789,28709
450.941829,35981
452.558139,32564
454.173719,38750
455.78857,8073
457.402691,36962
459.016083,39116
460.628747,38513
462.240682,39922
463.85189,39750
465.46237,36964
467.072124,40015
468.68115,32180
470.28945,40110
471.897024,34432
473.503872,34729
475.109995,40487
476.715393,35679
478.320066,40662
479.924015,34835
481.52724,36994
483.129741,36083
484.731519,33403
486.332575,39208
487.932907,28007
489.532517,37840
491.131406,31675
492.729573,31525
494.327019,37301
495.923744,37555
497.519748,29639
499.115033,36053
500.709597,39642
502.303442,38738
503.896568,37117
505.488976,35461
507.080665,38904
508.671635,38494
510.261889,29870
511.851424,37064
513.440243,33484
515.028345,38675
516.615731,39446
518.202401,37626
519.788355,35567
521.373593,42545
522.958117,36319
524.541926,29856
526.125021,36784
527.707402,30689
529.28907,37550
530.870024,25971
532.450265,30953
534.029794,36071
535.60861,35130
537.186715,42414
538.764108,32951
540.340789,30336
541.91676,39213
543.492021,39936
545.066571,33976
546.640411,35343
548.213542,32229
549.785964,31718
551.357676,40509
552.928681,35805
554.498977,44707
556.068565,32972
557.637446,41466
559.20562,44340
560.773087,40542
562.339847,36665
563.905901,34105
565.47125,32668
567.035893,31599
568.599831,32922
570.163064,37394
571.725593,36972
573.287417,38143
574.848538,41977
576.408955,36028
577.968669,33728
579.52768,36571
581.085989,31993
582.643596,39798
584.200501,37477
585.756704,32757
587.312207,42591
588.867008,39290
590.42111,39354
591.974511,34780
593.527212,35832
595.079214,31165
596.630516,39324
598.18112,39954
599.731025,25241
601.280232,36457
602.828742,39644
604.376554,37277
605.923668,39260
607.470086,33682
609.015808,40290
610.560833,36787
612.105162,39200
613.648796,36189
615.191735,35314
616.733979,33665
618.275528,39967
619.816383,32963
621.356544,31694
622.896012,37808
624.434787,39056
625.972868,33556
627.510257,34325
629.046954,38911
630.582959,33603
632.118272,33769
633.652894,38547
635.186825,37678
636.720066,38033
638.252616,33739
639.784476,37903
641.315647,31681
642.846128,30282
644.37592,33456
645.905024,33629
647.433439,28590
648.961166,36796
650.488206,36771
652.014558,31423
653.540223,32974
655.065201,36044
656.589493,36361
658.113099,35620
659.636019,35803
661.158253,35286
662.679803,35694
664.200668,35732
665.720848,35556
667.240344,35383
668.759156,34673
670.277284,34955
671.79473,34711
673.311492,34564
674.827572,34363
676.34297,33872
677.857686,34136
679.37172,34275
680.885072,28735
682.397744,33509
683.909735,33513
685.421046,33594
686.931677,33393
688.441628,31297
689.950899,33006
691.459492,32610
692.967406,32870
694.474641,32820
695.981198,32722
697.487078,17582
698.992279,32581
700.496804,32764
702.000652,32204
703.503823,30135
705.006318,30868
706.508137,32256
708.00928,31981
709.509748,32284
711.009541,32007
712.50866,32091
714.007104,31809
715.504874,30415
717.00197,31805
718.498393,31499
719.994142,31755
721.489219,31384
722.983624,31111
724.477356,31348
725.970416,30284
727.462805,31091
728.954522,31033
730.445569,26151
731.935944,30788
733.42565,31129
734.914685,30969
736.403051,31078
737.890748,30602
739.377775,30609
740.864133,28559
742.349823,30230
743.834845,30204
745.319199,30581
746.802886,30304
748.285905,30522
749.768257,30217
751.249943,30205
752.730962,30510
754.211315,29956
755.691003,29639
757.170025,30020
758.648382,29842
760.126075,29531
761.603102,29636
763.079466,29405
764.555166,29426
766.030202,29087
767.504575,29335
768.978285,29041
770.451332,29060
771.923717,29103
773.39544,29095
774.866501,29167
776.3369,28448
777.806639,28758
779.275716,28621
780.744134,28023
782.21189,28075
783.678987,27802
785.145425,27271
786.611203,27592
788.076322,27173
789.540782,27025
791.004583,26897
792.467727,26719
793.930213,26713
795.392041,25926
796.853212,25748
798.313726,26210
799.773584,25973
801.232785,25604
802.69133,25850
804.14922,25111
805.606454,25057
807.063032,25252
808.518956,24792
809.974226,24744
811.428841,24693
812.882802,24218
814.33611,24156
815.788764,24276
817.240766,23875
818.692114,23842
820.14281,24190
821.592854,24045
823.042246,23734
824.490986,23381
825.939075,23155
827.386514,23460
828.833301,23356
830.279438,23410
831.724925,22960
833.169762,23081
834.61395,23089
836.057488,23017
837.500378,22352
838.942619,22871
840.384212,23010
841.825156,22752
843.265453,22874
844.705102,17882
846.144105,22843
847.58246,22606
849.020169,22468
850.457231,22347
851.893648,22167
853.329418,22089
854.764544,22065
856.199024,22094
857.632859,22129
859.06605,21609
860.498597,21872
861.9305,21448
863.361759,21471
864.792374,21036
866.222347,21074
867.651677,20916
869.080364,20668
870.508409,20745
871.935812,20886
873.362574,20225
874.788694,20124
876.214173,20196
877.639011,19808
879.063209,19943
880.486766,19786
881.909684,20155
883.331962,19832
884.753601,19672
886.174601,19949
887.594961,19928
889.014684,19787
890.433768,19859
891.852214,19801
893.270023,19492
894.687194,19901
896.103729,19811
897.519626,19485
898.934887,19656
900.349512,19531
901.763501,19476
903.176854,18969
904.589572,18944
906.001655,18870
907.413103,18617
908.823917,18704
910.234096,18420
911.643642,18583
913.052554,18574
914.460832,18160
915.868477,18649
917.27549,18045
918.68187,17807
920.087618,18112
921.492734,17909
922.897218,17534
924.301071,17412
925.704292,17341
927.106883,17221
928.508844,16702
929.910174,16674
931.310874,16667
932.710944,16562
934.110385,16558
935.509197,16212
936.907379,16239
938.304934,16247
939.70186,16335
941.098158,15845
942.493828,15813
943.88887,16045
945.283286,15831
946.677075,15933
948.070236,15698
949.462772,15620
950.854681,15786
952.245965,16035
953.636623,15466
955.026656,15655
956.416064,15643
957.804847,15932
959.193006,15181
960.58054,15502
961.967451,15445
963.353738,15393
964.739402,15507
966.124442,15180
967.50886,15020
968.892656,15158
970.275829,15292
971.65838,14949
973.04031,15141
974.421618,15609
975.802305,15009
977.182371,15075
978.561816,15068
979.940641,14836
981.318846,15430
982.696432,15314
984.073398,14969
985.449744,15158
986.825472,15019
988.200581,15277
989.575072,15233
990.948944,15206
992.322199,15350
993.694836,15143
995.066855,15066
996.438258,15298
997.809044,15176
999.179213,15066
1000.548766,14795
1001.917703,15552
1003.286024,15174
1004.65373,15342
1006.020821,15311
1007.387297,15569
1008.753158,15690
1010.118405,15442
1011.483038,15358
1012.847057,15705
1014.210462,15778
1015.573254,15241
1016.935433,15386
1018.296999,15735
1019.657953,15792
1021.018295,15434
1022.378025,15488
1023.737143,15337
1025.095649,15403
1026.453544,15267
1027.810829,15126
1029.167503,14965
1030.523566,15042
1031.87902,15103
1033.233863,15657
1034.588097,15398
1035.941722,15762
1037.294738,15490
1038.647145,15633
1039.998943,15352
1041.350133,15774
1042.700716,15144
1044.05069,15159
1045.400057,15482
1046.748817,15432
1048.09697,15294
1049.444516,15636
1050.791456,15689
1052.13779,15776
1053.483518,15640
1054.82864,15878
1056.173157,16068
1057.517069,16310
1058.860376,16493
1060.203079,16458
1061.545177,16498
1062.886671,16615
1064.227562,16575
1065.567848,16522
1066.907532,16254
1068.246613,16470
1069.585091,16255
1070.922966,16249
1072.260239,16032
1073.596911,15804
1074.93298,15623
1076.268448,15675
1077.603315,15250
1078.937581,15671
1080.271247,15428
1081.604312,14953
1082.936776,15079
1084.268641,14770
1085.599907,14283
1086.930573,14073
1088.260639,14410
1089.590107,14277
1090.918977,14337
1092.247248,14409
1093.574921,14142
1094.901996,14323
1096.228474,14806
1097.554354,14586
1098.879637,14224
1100.204323,14550
1101.528413,14795
1102.851907,15106
1104.174804,14845
1105.497106,14856
1106.818812,15099
1108.139923,14763
1109.460439,15244
1110.78036,15060
1112.099687,15379
1113.41842,15095
1114.736558,15421
1116.054103,15201
1117.371054,15559
1118.687412,15837
1120.003177,15679
1121.318349,15790
1122.632929,15576
1123.946916,15949
1125.260312,15950
1126.573116,15709
1127.885328,15584
1129.196949,15437
1130.507979,15416
1131.818419,15147
1133.128268,14650
1134.437527,14518
1135.746195,14480
1137.054275,14169
1138.361764,14171
1139.668665,13810
1140.974976,13783
1142.280699,13438
1143.585833,13290
1144.890379,12849
1146.194337,12959
1147.497708,12903
1148.800491,12765
1150.102687,12770
1151.404295,12538
1152.705318,12909
1154.005753,12709
1155.305603,13116
1156.604866,12764
1157.903544,12662
1159.201636,12612
1160.499143,12610
1161.796065,12238
1163.092402,12683
1164.388155,12174
1165.683324,12476
1166.977908,12122
1168.271909,11953
1169.565326,12105
1170.85816,11854
1172.150411,12145
1173.44208,11929
1174.733165,11880
1176.023669,11958
1177.31359,11815
1178.60293,11920
1179.891688,11774
1181.179865,11679
1182.467461,11642
1183.754476,11503
1185.04091,11738
1186.326765,11754
1187.612039,11807
1188.896733,11765
1190.180848,11889
1191.464383,11750
1192.747339,11691
1194.029717,12155
1195.311515,11944
1196.592736,11804
1197.873378,12122
1199.153442,11987
1200.432929,11855
1201.711838,11851
1202.990171,12003
1204.267926,11846
1205.545105,12093
1206.821707,11837
1208.097733,11711
1209.373183,11935
1210.648057,11713
1211.922356,12000
1213.196079,11776
1214.469228,11947
1215.741802,11871
1217.013801,12180
1218.285226,11898
1219.556077,11482
1220.826355,11821
1222.096058,11833
1223.365189,11537
1224.633746,11696
1225.90173,11380
1227.169142,11584
1228.435982,11810
1229.702249,11740
1230.967945,11531
1232.233069,11076
1233.497621,11753
1234.761602,11161
1236.025013,11650
1237.287852,11317
1238.550121,11451
1239.81182,11580
1241.072949,11422
1242.333509,11217
1243.593498,11622
1244.852919,11437
1246.11177,11154
1247.370053,11388
1248.627767,11422
1249.884912,11756
1251.14149,11212
1252.397499,11638
1253.652942,11398
1254.907816,11294
1256.162124,11627
1257.415864,11499
1258.669038,11530
1259.921646,11531
1261.173687,11522
1262.425162,11565
1263.676071,11767
1264.926415,11799
1266.176194,11545
1267.425408,11833
1268.674056,11800
1269.92214,11441
1271.16966,11675
1272.416616,11258
1273.663008,11608
1274.908836,11591
1276.1541,11330
1277.398802,11517
1278.64294,11345
1279.886516,11123
1281.129529,11403
1282.37198,11261
1283.613869,11012
1284.855196,11130
1286.095962,10825
1287.336166,10875
1288.575809,11026
1289.814891,10982
1291.053413,10879
1292.291374,10618
1293.528775,10951
1294.765616,10937
1296.001897,10872
1297.237618,10743
1298.472781,10761
1299.707384,10803
1300.941428,10896
1302.174914,10811
1303.407842,10987
1304.640211,10986
1305.872022,10921
1307.103276,11190
1308.333972,10737
1309.564111,10671
1310.793693,10780
1312.022719,10732
1313.251187,10911
1314.4791,11284
1315.706456,10671
1316.933256,10946
1318.159501,11079
1319.38519,11111
1320.610324,11050
1321.834903,11189
1323.058928,11115
1324.282398,11155
1325.505313,11387
1326.727675,11226
1327.949482,11328
1329.170736,11197
1330.391437,11703
1331.611584,11255
1332.831179,11017
1334.050221,11730
1335.26871,11026
1336.486647,10865
1337.704032,11289
1338.920865,11376
1340.137147,11163
1341.352877,10843
1342.568056,11276
1343.782684,10980
1344.996761,11240
1346.210288,10803
1347.423265,10989
1348.635691,10813
1349.847568,10895
1351.058895,11050
1352.269673,10913
1353.479901,10728
1354.689581,10700
1355.898712,10993
1357.107294,10804
1358.315329,10934
1359.522815,11131
1360.729753,11156
1361.936144,11320
1363.141987,10875
1364.347283,11140
1365.552032,11105
1366.756235,10793
1367.959891,10633
1369.163,10853
1370.365564,11036
1371.567582,11036
1372.769054,10824
1373.96998,10840
1375.170362,10848
1376.370198,10751
1377.56949,10890
1378.768237,10467
1379.96644,10782
1381.164099,10551
1382.361214,10639
1383.557785,10475
1384.753813,10527
1385.949297,10449
1387.144239,10595
1388.338637,10313
1389.532493,10527
1390.725807,9945
1391.918579,10042
1393.110808,10017
1394.302496,9714
1395.493643,10187
1396.684248,9836
1397.874312,9878
1399.063835,9912
1400.252818,10209
1401.44126,9333
1402.629162,9774
1403.816524,9301
1405.003346,9876
1406.189629,9616
1407.375372,9552
1408.560576,9595
1409.745241,9510
1410.929368,9419
1412.112956,9413
1413.296006,9599
1414.478517,9425
1415.660491,9413
1416.841927,9261
1418.022826,9204
1419.203188,9509
1420.383012,9318
1421.5623,9240
1422.741051,9118
1423.919266,9267
1425.096945,9286
1426.274088,9396
1427.450695,9162
1428.626766,9393
1429.802302,9455
1430.977303,9468
1432.15177,9487
1433.325701,9558
1434.499098,9420
1435.671961,9591
1436.84429,9400
1438.016085,9301
1439.187347,9254
1440.358075,8937
1441.528269,8923
1442.697931,9249
1443.86706,9520
1445.035657,9339
1446.203721,9094
1447.371253,9189
1448.538253,9228
1449.704721,9442
1450.870658,9371
1452.036064,9255
1453.200938,9322
1454.365282,9216
1455.529094,9482
1456.692377,9539
1457.855129,9449
1459.017351,9404
1460.179043,9321
1461.340206,9367
1462.500839,9085
1463.660943,9382
1464.820517,9392
1465.979563,8780
1467.138081,-61
1468.29607,9138
1469.453531,8788
1470.610464,8803
1471.766869,8746
1472.922746,8580
1474.078096,8636
1475.232919,8661
1476.387215,8413
1477.540985,8138
1478.694227,8347
1479.846944,8446
1480.999134,8344
1482.150798,8224
1483.301937,8388
1484.45255,8217
1485.602637,8249
1486.7522,8357
1487.901238,8238
1489.049751,8258
1490.197739,8404
1491.345203,8330
1492.492144,8264
1493.63856,8217
1494.784452,7965
1495.929821,8101
1497.074667,8431
1498.21899,8387
1499.36279,8408
1500.506067,8434
1501.648821,8302
1502.791054,8599
1503.932764,8493
1505.073953,8676
1506.21462,8101
1507.354765,8444
1508.494389,8525
1509.633492,8454
1510.772074,8522
1511.910136,8676
1513.047677,8476
1514.184698,8432
1515.321198,8516
1516.457179,8807
1517.592641,8447
1518.727582,8498
1519.862005,8682
1520.995909,8746
1522.129293,8281
1523.262159,8501
1524.394507,8966
1525.526336,8562
1526.657647,8806
1527.788441,8710
1528.918717,8794
1530.048475,9019
1531.177716,8757
1532.30644,8796
1533.434647,8934
1534.562338,8988
1535.689512,8929
1536.816169,9082
1537.942311,9099
1539.067937,9257
1540.193047,9329
1541.317642,8868
1542.441721,9126
1543.565285,9295
1544.688335,9234
1545.81087,9228
1546.93289,9260
1548.054396,9266
1549.175388,9353
1550.295866,9344
1551.41583,9454
1552.535281,9761
1553.654218,9689
1554.772643,9864
1555.890554,9678
1557.007953,9949
1558.124839,9580
1559.241213,9412
1560.357075,9962
1561.472424,9937
1562.587262,9618
1563.701589,10087
1564.815404,9822
1565.928708,10054
1567.041501,10036
1568.153783,10145
1569.265555,10071
1570.376816,10095
1571.487567,10222
1572.597808,9973
1573.707539,10344
1574.816761,10285
1575.925473,10495
1577.033676,10523
1578.14137,10436
1579.248555,10653
1580.355231,10562
1581.461399,10499
1582.567059,10805
1583.672211,10869
1584.776854,10984
1585.88099,11036
1586.984619,11289
1588.08774,11190
1589.190354,11398
1590.292462,11357
1591.394062,11964
1592.495156,11816
1593.595744,11840
1594.695825,11930
1595.795401,11596
1596.89447,12229
1597.993034,12202
1599.091093,12394
1600.188647,12245
1601.285695,12520
1602.382239,12528
1603.478278,12633
1604.573812,13026
1605.668843,12906
1606.763369,12979
1607.857391,13336
1608.95091,13446
1610.043925,13704
1611.136437,13551
1612.228446,13729
1613.319952,13851
1614.410955,13927
1615.501455,14201
1616.591453,14267
1617.680949,14096
1618.769943,14395
1619.858435,14511
1620.946426,14466
1622.033915,14663
1623.120903,14927
1624.20739,14735
1625.293376,14911
1626.378861,14935
1627.463845,14987
1628.54833,15037
1629.632314,15045
1630.715799,15273
1631.798783,14989
1632.881268,15167
1633.963254,15334
1635.04474,15200
1636.125728,15068
1637.206216,15186
1638.286206,15299
1639.365698,15271
1640.444691,14839
1641.523187,14982
1642.601184,14893
1643.678683,15115
1644.755686,15147
1645.83219,14815
1646.908198,14839
1647.983708,14864
1649.058722,14895
1650.133239,14795
1651.20726,14851
1652.280785,14553
1653.353813,14269
1654.426346,14337
1655.498383,14283
1656.569924,14173
1657.64097,14150
1658.711521,14010
1659.781577,13704
1660.851139,13935
1661.920205,13654
1662.988777,13496
1664.056855,13638
1665.124439,13184
1666.191529,13209
1667.258126,12919
1668.324229,12612
1669.389838,12341
1670.454955,12459
1671.519578,12394
1672.583709,12155
1673.647347,12099
1674.710493,11888
1675.773147,11541
1676.835308,11569
1677.896978,11313
1678.958155,11333
1680.018842,10783
1681.079037,10632
1682.138741,10694
1683.197954,10530
1684.256676,10442
1685.314908,9989
1686.372649,10007
1687.4299,9746
1688.48666,9887
1689.542931,9272
1690.598713,9280
1691.654004,9315
1692.708807,9039
1693.76312,8947
1694.816944,8867
1695.870279,8713
1696.923126,8823
1697.975484,8455
1699.027354,8421
1700.078736,8793
1701.12963,8114
1702.180036,8187
1703.229955,8105
1704.279386,7898
1705.32833,8102
1706.376787,7508
1707.424757,7613
1708.47224,7118
1709.519237,7294
1710.565748,7325
1711.611772,6869
1712.65731,6744
1713.702363,6959
1714.74693,7103
1715.791011,6878
1716.834608,6634
1717.877719,6815
1718.920345,6769
1719.962486,6651
1721.004143,6459
1722.045316,5815
1723.086004,6445
1724.126208,6112
1725.165929,6133
1726.205165,6071
1727.243918,5875
1728.282188,5960
1729.319975,5538
1730.357278,5808
1731.394099,5719
1732.430437,5639
1733.466293,5495
1734.501666,5612
1735.536557,5431
1736.570967,5501
1737.604894,5257
1738.63834,4839
1739.671304,5164
1740.703787,5155
1741.735789,4990
1742.767311,5254
1743.798351,5079
1744.828911,5113
1745.85899,4765
1746.888589,4612
1747.917708,5069
1748.946348,4789
1749.974507,4748
1751.002187,4712
1752.029388,4634
1753.056109,4524
1754.082351,4252
1755.108115,4576
1756.1334,4710
1757.158206,4228
1758.182534,4167
1759.206384,4433
1760.229755,4464
1761.252649,4331
1762.275065,4574
1763.297004,4081
1764.318466,4024
1765.33945,4383
1766.359957,3891
1767.379988,3958
1768.399542,3886
1769.418619,3638
1770.43722,3919
1771.455345,3867
1772.472994,4107
1773.490167,3684
1774.506865,3614
1775.523087,3689
1776.538834,3573
1777.554106,3867
1778.568902,3735
1779.583224,3753
1780.597072,3472
1781.610444,3442
1782.623343,3541
1783.635768,3455
1784.647718,3322
1785.659195,3304
1786.670198,3408
1787.680728,3452
1788.690784,3709
1789.700368,3425
1790.709478,3320
1791.718116,3688
1792.726281,3610
1793.733973,3322
1794.741194,3426
1795.747942,3516
1796.754218,3434
1797.760023,3405
1798.765356,3408
1799.770217,3372
1800.774607,3509
1801.778526,3179
1802.781974,3410
1803.784952,3188
1804.787458,2975
1805.789495,3248
1806.791061,2933
1807.792156,3416
1808.792782,3352
1809.792938,3125
1810.792625,3322
1811.791842,3334
1812.79059,3119
1813.788868,3102
1814.786678,3240
1815.784019,3115
1816.780891,3059
1817.777295,3179
1818.77323,3017
1819.768697,3290
1820.763697,3165
1821.758228,3223
1822.752292,3415
1823.745888,3024
1824.739017,3137
1825.731679,2930
1826.723874,2999
1827.715602,3007
1828.706863,3000
1829.697658,2732
1830.687986,3219
1831.677848,3215
1832.667244,3011
1833.656175,3061
1834.644639,3245
1835.632638,3083
1836.620172,2953
1837.60724,3103
1838.593844,3320
1839.579982,2754
1840.565656,2961
1841.550865,2932
1842.53561,2977
1843.51989,2857
1844.503706,2844
1845.487059,2892
1846.469947,2825
1847.452372,3152
1848.434334,3040
1849.415832,3061
1850.396867,3059
1851.377439,2960
1852.357549,2903
1853.337195,2874
1854.31638,3062
1855.295101,2897
1856.273361,2849
1857.251159,2943
1858.228494,3007
1859.205369,2905
1860.181781,2928
1861.157732,2788
1862.133222,2949
1863.108251,2867
1864.082819,2800
1865.056926,2675
1866.030573,2731
1867.003759,3166
1867.976485,2891
1868.948751,2639
1869.920556,2937
1870.891902,2923
1871.862789,2698
1872.833216,2685
1873.803183,2621
1874.772691,2552
1875.741741,2635
1876.710331,2601
1877.678463,2498
1878.646136,2720
1879.613351,2641
1880.580108,2755
1881.546406,2778
1882.512247,2500
1883.47763,2747
1884.442555,2800
1885.407023,2455
1886.371033,2725
1887.334586,2699
1888.297683,2621
1889.260322,2675
1890.222505,2683
1891.184231,2422
1892.145501,2483
1893.106315,2462
1894.066673,2539
1895.026574,2457
1895.98602,2515
1896.945011,2301
1897.903546,2567
1898.861626,2525
1899.81925,2522
1900.77642,2691
1901.733135,2598
1902.689395,2447
1903.6452,2838
1904.600551,2487
1905.555448,2543
1906.509891,2540
1907.46388,2521
1908.417416,2776
1909.370498,2821
1910.323126,2841
1911.275301,2787
1912.227023,2636
1913.178292,2735
1914.129108,2666
1915.079471,2422
1916.029382,2669
1916.97884,2520
1917.927846,2321
1918.876401,2501
1919.824503,2517
1920.772153,2576
1921.719352,2863
1922.6661,2608
1923.612396,2400
1924.558241,2504
1925.503635,2478
1926.448578,2555
1927.39307,2665
1928.337112,2689
1929.280703,2538
1930.223844,2762
1931.166535,2683
1932.108776,2692
1933.050568,2910
1933.991909,2817
1934.932801,2546
1935.873244,2881
1936.813238,2565
1937.752782,2455
1938.691878,2796
1939.630525,2763
1940.568723,2812
1941.506473,2990
1942.443774,2673
1943.380627,2524
1944.317033,2673
1945.25299,2728
1946.1885,2569
1947.123562,2772
1948.058177,2774
1948.992344,2666
1949.926065,2618
1950.859338,2532
1951.792165,2865
1952.724545,2943
1953.656478,2849
1954.587965,2757
1955.519006,2903
1956.4496,2960
1957.379749,2627
1958.309452,2524
1959.238709,2618
1960.167521,2649
1961.095888,3010
1962.023809,2873
1962.951285,2789
1963.878317,2567
1964.804903,2710
1965.731045,2276
1966.656743,2954
1967.581996,2652
1968.506805,2921
1969.43117,2960
1970.355091,2963
1971.278568,2631
1972.201602,2840
1973.124192,2740
1974.046339,2620
1974.968043,2875
1975.889304,2695
1976.810122,2676
1977.730498,2737
1978.65043,2718
1979.569921,2661
1980.488969,2897
1981.407574,2541
1982.325738,2564
1983.24346,2599
1984.160741,2550
1985.077579,2680
1985.993977,2692
1986.909933,2994
1987.825448,2519
1988.740522,2534
1989.655155,2709
1990.569347,2574
1991.483099,2621
1992.396411,2747
1993.309282,2670
1994.221713,2782
1995.133704,2750
1996.045256,2640
1996.956367,2717
1997.867039,2681
1998.777272,2878
1999.687065,2618
2000.596419,2735
2001.505335,2860
2002.413811,3058
2003.321849,3049
2004.229448,2688
2005.136609,2937
2006.043331,2740
2006.949616,2825
2007.855462,2746
2008.760871,2787
2009.665841,2988
2010.570375,2920
2011.47447,2954
2012.378129,3057
2013.281351,2917
2014.184135,2994
2015.086483,2662
2015.988393,2727
2016.889868,2662
2017.790906,2622
2018.691507,2843
2019.591673,2922
2020.491402,3053
2021.390695,2717
2022.289553,3041
2023.187975,2873
2024.085962,2701
2024.983514,2790
2025.88063,3050
2026.777311,2996
2027.673557,2906
2028.569369,3038
2029.464746,3068
2030.359688,2949
2031.254197,3052
2032.148271,3006
2033.04191,2748
2033.935116,2723
2034.827889,3104
2035.720227,3005
2036.612132,2715
2037.503604,2837
2038.394642,2963
2039.285248,3087
2040.17542,3006
2041.06516,2857
2041.954466,2798
2042.843341,2967
2043.731783,2819
2044.619792,2870
2045.50737,2732
2046.394516,2860
2047.281229,2971
2048.167511,2773
2049.053362,2733
2049.938781,2700
2050.823768,2845
2051.708325,2923
2052.59245,2938
2053.476145,2828
2054.359409,2955
2055.242242,2818
2056.124645,2663
2057.006617,3004
2057.888159,2697
2058.769271,2759
2059.649953,2986
2060.530206,2569
2061.410028,2990
2062.289421,2720
2063.168385,2829
2064.046919,2745
2064.925025,2734
2065.802701,2906
2066.679949,2758
2067.556767,3040
2068.433157,3128
2069.309119,3064
2070.184652,2755
2071.059758,2997
2071.934435,2953
2072.808684,2786
2073.682505,3183
2074.555899,2715
2075.428865,2816
2076.301404,3158
2077.173516,2796
2078.0452,2687
2078.916458,3257
2079.787289,2811
2080.657693,3194
2081.52767,3097
2082.397221,2971
2083.266346,3078
2084.135044,2691
2085.003316,3008
2085.871163,2870
2086.738584,3001
2087.605579,2929
2088.472148,2795
2089.338292,2986
2090.204011,2866
2091.069305,2810
2091.934174,2956
2092.798618,3025
2093.662637,2669
2094.526231,2885
2095.389402,2954
2096.252147,2768
2097.114469,2804
2097.976366,2704
2098.83784,2918
2099.69889,3010
2100.559516,2843
2101.419719,2827
2102.279498,2865
2103.138854,3005
2103.997786,2794
2104.856296,2797
2105.714383,3053
2106.572047,2922
2107.429289,2744
2108.286108,2944
2109.142504,2724
2109.998479,2724
2110.854031,2921
2111.709161,2604
2112.56387,2720
2113.418156,2918
2114.272021,2560
2115.125465,2582
2115.978487,2990
2116.831089,2925
2117.683269,2823
2118.535028,2833
2119.386366,2740
2120.237284,2554
2121.087781,2634
2121.937857,2981
2122.787514,2750
2123.63675,2683
2124.485566,2607
2125.333962,2777
2126.181939,2804
2127.029496,2756
2127.876633,2761
2128.723351,2615
2129.569649,2614
2130.415529,2691
2131.260989,2529
2132.106031,2576
2132.950654,2625
2133.794858,2673
2134.638643,2513
2135.482011,2582
2136.32496,2472
2137.167491,2484
2138.009604,2698
2138.851299,2644
2139.692576,2552
2140.533436,2576
2141.373878,2397
2142.213903,2658
2143.05351,2433
2143.892701,2602
2144.731474,2668
2145.569831,2376
2146.407771,2347
2147.245294,2448
2148.082401,2419
2148.919091,2677
2149.755365,2337
2150.591224,2137
2151.426666,2377
2152.261692,2379
2153.096302,2508
2153.930497,2466
2154.764277,2318
2155.597641,2220
2156.43059,2371
2157.263124,2681
2158.095242,2245
2158.926946,2343
2159.758236,2292
2160.58911,2101
2161.41957,2236
2162.249616,2318
2163.079248,2399
2163.908465,2312
2164.737269,2160
2165.565658,2243
2166.393634,2046
2167.221196,2113
2168.048345,2012
2168.87508,2521
2169.701402,2143
2170.527311,2081
2171.352807,2374
2172.177891,2134
2173.002561,2176
2173.826819,2261
2174.650664,2538
2175.474097,2186
2176.297117,2168
2177.119726,2555
2177.941922,2120
2178.763707,2263
2179.58508,2274
2180.406041,2063
2181.22659,2269
2182.046729,2189
2182.866456,2185
2183.685771,2243
2184.504676,2161
2185.32317,2208
2186.141253,2176
2186.958925,2094
2187.776187,2081
2188.593038,2026
2189.409479,2314
2190.22551,2008
2191.041131,2142
2191.856342,1950
2192.671143,2173
2193.485534,2005
2194.299516,1988
2195.113088,2116
2195.926251,1877
2196.739005,1958
2197.551349,1968
2198.363285,1870
2199.174812,1933
2199.98593,1726
2200.796639,1489
2201.60694,2149
2202.416832,1959
2203.226317,2166
2204.035393,1906
2204.844061,1964
2205.652321,2034
2206.460173,1977
2207.267618,1965
2208.074655,1718
2208.881285,1701
2209.687507,1943
2210.493322,1888
2211.29873,1996
2212.103732,1905
2212.908326,1580
2213.712513,1675
2214.516294,1741
2215.319669,1823
2216.122637,1736
2216.925199,1528
2217.727355,1673
2218.529105,1718
2219.330449,1655
2220.131387,2020
2220.931919,1558
2221.732046,1584
2222.531768,1638
2223.331084,1707
2224.129995,1784
2224.928501,1640
2225.726602,1775
2226.524298,1419
2227.321589,1745
2228.118476,1555
2228.914959,1716
2229.711037,1429
2230.50671,1641
2231.30198,1688
2232.096846,1827
2232.891307,1932
2233.685365,1748
2234.479019,1674
2235.27227,1501
2236.065117,1819
2236.857561,1744
2237.649602,1370
2238.441239,1451
2239.232474,1500
2240.023306,1729
2240.813735,1746
2241.603761,1575
2242.393385,1405
2243.182607,1543
2243.971426,1718
2244.759843,1668
2245.547858,1611
2246.335471,1794
2247.122682,1475
2247.909492,1625
2248.6959,1453
2249.481906,1501
2250.267511,1268
2251.052715,1593
2251.837518,1358
2252.621919,1454
2253.40592,1486
2254.18952,1289
2254.972719,1384
2255.755518,1619
2256.537916,1297
2257.319914,1452
2258.101512,1434
2258.88271,1368
2259.663507,1655
2260.443905,1374
2261.223903,1546
2262.003501,1378
2262.7827,1387
2263.561499,1257
2264.339899,1254
2265.1179,1313
2265.895501,1498
2266.672704,1241
2267.449508,1478
2268.225913,1279
2269.001919,1440
2269.777527,1003
2270.552737,1290
2271.327548,1228
2272.101961,1097
2272.875975,1504
2273.649592,1399
2274.422811,1271
2275.195632,1064
2275.968056,1380
2276.740082,1284
2277.511711,1539
2278.282942,1355
2279.053776,1234
2279.824213,1104
2280.594253,962
2281.363897,1321
2282.133143,1337
2282.901993,1210
2283.670446,1366
2284.438503,1182
2285.206164,1050
2285.973428,1016
2286.740296,1172
2287.506769,1010
2288.272845,1287
2289.038526,977
2289.803811,1333
2290.5687,1326
2291.333194,1313
2292.097293,1391
2292.860997,938
2293.624305,1256
2294.387219,1164
2295.149737,1022
2295.911861,1055
2296.67359,1100
2297.434925,1052
2298.195865,1166
2298.956411,778
2299.716562,1287
2300.47632,1074
2301.235683,1080
2301.994653,1157
2302.753229,1357
2303.511411,1273
2304.269199,1207
2305.026594,908
2305.783596,1116
2306.540204,984
2307.29642,914
2308.052242,1183
2308.807671,1209
2309.562708,1067
2310.317351,1418
2311.071603,1080
2311.825461,1071
2312.578928,1398
2313.332002,1055
2314.084684,1063
2314.836973,804
2315.588871,1057
2316.340377,984
2317.091491,927
2317.842214,1005
2318.592545,1161
2319.342485,1124
2320.092033,1042
2320.84119,993
2321.589956,926
2322.338331,1010
2323.086315,876
2323.833908,1025
2324.581111,1230
2325.327923,1042
2326.074345,1126
2326.820376,1488
2327.566017,1090
2328.311268,967
2329.056129,1057
2329.800599,980
2330.54468,991
2331.288372,825
2332.031673,1085
2332.774585,1054
2333.517108,1252
2334.259242,1087
2335.000986,956
2335.742341,948
2336.483307,884
2337.223884,995
2337.964073,807
2338.703872,813
2339.443283,1004
2340.182306,956
2340.92094,1061
2341.659187,1069
2342.397044,656
2343.134514,959
2343.871596,1139
2344.60829,738
2345.344597,628
2346.080515,1021
2346.816046,763
2347.55119,1103
2348.285946,798
2349.020316,804
2349.754298,798
2350.487893,761
2351.221101,1225
2351.953922,1081
2352.686356,880
2353.418404,872
2354.150066,934
2354.881341,916
2355.61223,1132
2356.342732,866
2357.072849,843
2357.802579,766
2358.531924,543
2359.260883,769
2359.989456,909
2360.717643,1129
2361.445445,734
2362.172862,1065
2362.899893,756
2363.626539,798
2364.352801,868
2365.078677,934
2365.804168,852
2366.529275,896
2367.253996,826
2367.978334,566
2368.702286,1150
2369.425855,602
2370.149039,830
2370.871839,545
2371.594255,867
2372.316287,701
2373.037935,984
2373.7592,813
2374.48008,1002
2375.200578,937
2375.920691,928
2376.640422,873
2377.359769,440
2378.078733,651
2378.797314,538
2379.515511,599
2380.233327,446
2380.950759,1003
2381.667808,699
2382.384476,811
2383.10076,849
2383.816663,813
2384.532183,641
2385.24732,509
2385.962076,731
2386.67645,566
2387.390442,518
2388.104052,486
2388.817281,520
2389.530128,669
2390.242593,690
2390.954677,674
2391.66638,758
2392.377702,752
2393.088643,622
2393.799202,584
2394.509381,460
2395.219179,768
2395.928596,630
2396.637633,568
2397.346289,435
2398.054565,590
2398.762461,513
2399.469976,569
2400.177111,301
2400.883867,371
2401.590242,777
2402.296238,160
2403.001854,414
2403.70709,622
2404.411947,479
2405.116424,616
2405.820522,579
2406.524241,527
2407.227581,512
2407.930542,379
2408.633123,1711
2409.335326,473
2410.037151,295
