Wave shift,Intensity
-31.722347,9988
-29.886687,11747
-28.051868,12984
-26.217889,14904
-24.384749,17803
-22.552448,20074
-20.720985,23060
-18.890361,25648
-17.060575,29028
-15.231626,33145
-13.403514,38583
-11.576239,44474
-9.749799,47840
-7.924195,45621
-6.099426,37535
-4.275492,37136
-2.452392,41476
-0.630127,37118
1.191306,33940
3.011906,33105
4.831672,38554
6.650607,41330
8.46871,28185
10.285982,24256
12.102423,22018
13.918034,19656
15.732815,18586
17.546766,18718
19.359888,18044
21.172181,14279
22.983647,12314
24.794284,11311
26.604094,10167
28.413077,9382
30.221233,8303
32.028563,6715
33.835068,5471
35.640747,5007
37.445602,4725
39.249632,4228
41.052838,3958
42.855221,4122
44.656781,3802
46.457517,3944
48.257432,3752
50.056525,3531
51.854796,3705
53.652246,3323
55.448876,3634
57.244685,3680
59.039675,3908
60.833846,3671
62.627197,3972
64.41973,4287
66.211446,4228
68.002343,4144
69.792423,4378
71.581687,4534
73.370134,4993
75.157765,5664
76.944581,6084
78.730581,6553
80.515767,7593
82.300139,8001
84.083697,9302
85.866441,9946
87.648372,11362
89.429491,12461
91.209797,14317
92.989292,15915
94.767976,18755
96.545848,21833
98.32291,25841
100.099162,31151
101.874604,28715
103.649237,32686
105.423061,32738
107.196077,37452
108.968284,36378
110.739684,35429
112.510277,33807
114.280063,33165
116.049042,33192
117.817216,36791
119.584584,43706
121.351147,39257
123.116905,37634
124.881859,38506
126.646009,29677
128.409356,42427
130.171899,41284
131.93364,38975
133.694578,28223
135.454715,35222
137.21405,34143
138.972584,30012
140.730317,44175
142.48725,37099
144.243384,26831
145.998718,35723
147.753252,30228
149.506989,35771
151.259927,37415
153.012067,43371
154.76341,33757
156.513956,40836
158.263705,36711
160.012659,37689
161.760816,31269
163.508178,37064
165.254745,34876
167.000518,37589
168.745496,38906
170.489681,36374
172.233072,36756
173.975671,43210
175.717476,29476
177.45849,38103
179.198712,30797
180.938142,36624
182.676782,31127
184.414631,37880
186.15169,34891
187.887959,30052
189.623439,40492
191.35813,31515
193.092032,36038
194.825147,34607
196.557473,33976
198.289012,35784
200.019764,33985
201.74973,32547
203.478909,36057
205.207303,36460
206.934911,38510
208.661735,39094
210.387773,33269
212.113028,31992
213.837499,31614
215.561186,35035
217.28409,35719
219.006212,33244
220.727552,33836
222.44811,38349
224.167886,38075
225.886881,33983
227.605096,35260
229.32253,32580
231.039185,32782
232.75506,31011
234.470156,24527
236.184473,33486
237.898012,29766
239.610773,30111
241.322757,37893
243.033964,37165
244.744393,29721
246.454047,35215
248.162924,32177
249.871026,32186
251.578353,35048
253.284905,31834
254.990683,40799
256.695686,32794
258.399916,36083
260.103373,36898
261.806057,36671
263.507968,39495
265.209107,33761
266.909475,32751
268.609071,33717
270.307897,29295
272.005952,34827
273.703236,35628
275.399751,34317
277.095497,32972
278.790473,38947
280.484681,31799
282.178121,34290
283.870793,39154
285.562697,31236
287.253835,40779
288.944205,39191
290.633809,31511
292.322648,32889
294.010721,36926
295.698028,38977
297.384571,40365
299.070349,38361
300.755364,39884
302.439614,35287
304.123102,35228
305.805826,37498
307.487788,35934
309.168988,35576
310.849426,40461
312.529103,33606
314.208018,33515
315.886173,23447
317.563568,36750
319.240203,37890
320.916079,40281
322.591195,36903
324.265552,39057
325.939151,35665
327.611993,35395
329.284076,36042
330.955402,37165
332.625972,42538
334.295785,37492
335.964841,35003
337.633142,32237
339.300688,38778
340.967479,31025
342.633515,38290
344.298796,36249
345.963324,37076
347.627098,36031
349.29012,40860
350.952388,36179
352.613904,37942
354.274668,34732
355.93468,34237
357.593941,38662
359.252451,38941
360.910211,31647
362.56722,37228
364.22348,33916
365.87899,30987
367.533751,41172
369.187763,35857
370.841027,34234
372.493543,37310
374.145311,42567
375.796332,38334
377.446607,23658
379.096134,42707
380.744916,35095
382.392952,32153
384.040242,38189
385.686787,47037
387.332588,37439
388.977645,40521
390.621957,36872
392.265526,42266
393.908351,32024
395.550434,40393
397.191775,38454
398.832373,29386
400.472229,40021
402.111344,43784
403.749718,43532
405.387351,39693
407.024244,30849
408.660397,38522
410.295811,40850
411.930485,41908
413.56442,40404
415.197617,48084
416.830076,26953
418.461796,41299
420.09278,40902
421.723026,37318
423.352536,30542
424.981309,33072
426.609346,38273
428.236648,36453
429.863214,41905
431.489046,44333
433.114143,30404
434.738505,40658
436.362134,33652
437.98503,32010
439.607192,36554
441.228621,33556
442.849318,39109
444.469283,32090
446.088516,38011
447.707018,33409
449.324789,28778
450.941829,36050
452.558139,32633
454.173719,38819
455.78857,8142
457.402691,37031
459.016083,39185
460.628747,38582
462.240682,39991
463.85189,39819
465.46237,37033
467.072124,40084
468.68115,32249
470.28945,40179
471.897024,34501
473.503872,34798
475.109995,40556
476.715393,35748
478.320066,40731
479.924015,34904
481.52724,37063
483.129741,36152
484.731519,33472
486.332575,39277
487.932907,28076
489.532517,37909
491.131406,31744
492.729573,31594
494.327019,37370
495.923744,37624
497.519748,29708
499.115033,36122
500.709597,39711
502.303442,38807
503.896568,37186
505.488976,35530
507.080665,38973
508.671635,38563
510.261889,29939
511.851424,37133
513.440243,33553
515.028345,38744
516.615731,39515
518.202401,37695
519.788355,35636
521.373593,42614
522.958117,36388
524.541926,29925
526.125021,36853
527.707402,30758
529.28907,37619
530.870024,26040
532.450265,31022
534.029794,36140
535.60861,35199
537.186715,42483
538.764108,33020
540.340789,30405
541.91676,39282
543.492021,40005
545.066571,34045
546.640411,35412
548.213542,32298
549.785964,31787
551.357676,40578
552.928681,35874
554.498977,44776
556.068565,33041
557.637446,41535
559.20562,44409
560.773087,40611
562.339847,36734
563.905901,34174
565.47125,32737
567.035893,31668
568.599831,32991
570.163064,37463
571.725593,37041
573.287417,38212
574.848538,42046
576.408955,36097
577.968669,33797
579.52768,36640
581.085989,32062
582.643596,39867
584.200501,37546
585.756704,32826
587.312207,42660
588.867008,39359
590.42111,39423
591.974511,34849
593.527212,35901
595.079214,31234
596.630516,39393
598.18112,40023
599.731025,25310
601.280232,36526
602.828742,39713
604.376554,37346
605.923668,39329
607.470086,33751
609.015808,41004
610.560833,36856
612.105162,39269
613.648796,36258
615.191735,35383
616.733979,33734
618.275528,40293
619.816383,33032
621.356544,31763
622.896012,37877
624.434787,39125
625.972868,33625
627.510257,34394
629.046954,39237
630.582959,33672
632.118272,33838
633.652894,39113
635.186825,37747
636.720066,38102
638.252616,33808
639.784476,38454
641.315647,31750
642.846128,30351
644.37592,33525
645.905024,33698
647.433439,28659
648.961166,37468
650.488206,37172
652.014558,31492
653.540223,33043
655.065201,36113
656.589493,36678
658.113099,35689
659.636019,35922
661.158253,35355
662.679803,36052
664.200668,35837
665.720848,35511
667.240344,35415
668.759156,35374
670.277284,35024
671.79473,34712
673.311492,35050
674.827572,34813
676.34297,34483
677.857686,34225
679.37172,34706
680.885072,28804
682.397744,33527
683.909735,33783
685.421046,33927
686.931677,33515
688.441628,31366
689.950899,33140
691.459492,33105
692.967406,33259
694.474641,32978
695.981198,33098
697.487078,17651
698.992279,32497
700.496804,32823
702.000652,32521
703.503823,30204
705.006318,30937
706.508137,32756
708.00928,32151
709.509748,32359
711.009541,32191
712.50866,32167
714.007104,31935
715.504874,30484
717.00197,31957
718.498393,31654
719.994142,31912
721.489219,31723
722.983624,31505
724.477356,31398
725.970416,30353
727.462805,31202
728.954522,31321
730.445569,26220
731.935944,31199
733.42565,31291
734.914685,30757
736.403051,31170
737.890748,30760
739.377775,30823
740.864133,28628
742.349823,30740
743.834845,30237
745.319199,30644
746.802886,30343
748.285905,30513
749.768257,30396
751.249943,30312
752.730962,30782
754.211315,30326
755.691003,29765
757.170025,30010
758.648382,30208
760.126075,29881
761.603102,29651
763.079466,29798
764.555166,29563
766.030202,29616
767.504575,29528
768.978285,29359
770.451332,29479
771.923717,29462
773.39544,29076
774.866501,29076
776.3369,28906
777.806639,28750
779.275716,28799
780.744134,28114
782.21189,28196
783.678987,27847
785.145425,27275
786.611203,27574
788.076322,27469
789.540782,26952
791.004583,27230
792.467727,27124
793.930213,26613
795.392041,26330
796.853212,26132
798.313726,26089
799.773584,26174
801.232785,25868
802.69133,25897
804.14922,25202
805.606454,25205
807.063032,25403
808.518956,25364
809.974226,25082
811.428841,24915
812.882802,24540
814.33611,24574
815.788764,24520
817.240766,23763
818.692114,24358
820.14281,24112
821.592854,24027
823.042246,24228
824.490986,23661
825.939075,23421
827.386514,23664
828.833301,23504
830.279438,23518
831.724925,23072
833.169762,23216
834.61395,23022
836.057488,23348
837.500378,22653
838.942619,23068
840.384212,23106
841.825156,22797
843.265453,23208
844.705102,17951
846.144105,23152
847.58246,22515
849.020169,22629
850.457231,22388
851.893648,22332
853.329418,22286
854.764544,21966
856.199024,22439
857.632859,21956
859.06605,21724
860.498597,21891
861.9305,21869
863.361759,21452
864.792374,21420
866.222347,21464
867.651677,20944
869.080364,21011
870.508409,21050
871.935812,20754
873.362574,20730
874.788694,20196
876.214173,20426
877.639011,20281
879.063209,20367
880.486766,20251
881.909684,20136
883.331962,20061
884.753601,19753
886.174601,20006
887.594961,20005
889.014684,19650
890.433768,20058
891.852214,20044
893.270023,20083
894.687194,19952
896.103729,19631
897.519626,19653
898.934887,19940
900.349512,19623
901.763501,19530
903.176854,19254
904.589572,18971
906.001655,18830
907.413103,18720
908.823917,18621
910.234096,18273
911.643642,18785
913.052554,18739
914.460832,18392
915.868477,18514
917.27549,18154
918.68187,17980
920.087618,18111
921.492734,17952
922.897218,17557
924.301071,17733
925.704292,17506
927.106883,17215
928.508844,17024
929.910174,16776
931.310874,16840
932.710944,17035
934.110385,16294
935.509197,16402
936.907379,16396
938.304934,16446
939.70186,16182
941.098158,15861
942.493828,15933
943.88887,16062
945.283286,15751
946.677075,15855
948.070236,15575
949.462772,15744
950.854681,15809
952.245965,16046
953.636623,15581
955.026656,16022
956.416064,15594
957.804847,15692
959.193006,15723
960.58054,15374
961.967451,15507
963.353738,15161
964.739402,15862
966.124442,15010
967.50886,15261
968.892656,15388
970.275829,15300
971.65838,15071
973.04031,15067
974.421618,15276
975.802305,14994
977.182371,15202
978.561816,15429
979.940641,15309
981.318846,15422
982.696432,15541
984.073398,14743
985.449744,15063
986.825472,15100
988.200581,15447
989.575072,15557
990.948944,15352
992.322199,15441
993.694836,15480
995.066855,15168
996.438258,15267
997.809044,15232
999.179213,15142
1000.548766,15174
1001.917703,15538
1003.286024,15271
1004.65373,15332
1006.020821,15445
1007.387297,15665
1008.753158,15705
1010.118405,15327
1011.483038,15584
1012.847057,15640
1014.210462,15808
1015.573254,15617
1016.935433,15473
1018.296999,15912
1019.657953,15680
1021.018295,15684
1022.378025,15540
1023.737143,15531
1025.095649,15376
1026.453544,15454
1027.810829,15240
1029.167503,15158
1030.523566,15353
1031.87902,15046
1033.233863,15837
1034.588097,15478
1035.941722,15559
1037.294738,15538
1038.647145,15739
1039.998943,15566
1041.350133,15825
1042.700716,15361
1044.05069,15533
1045.400057,15413
1046.748817,15529
1048.09697,15424
1049.444516,15879
1050.791456,15927
1052.13779,16036
1053.483518,15765
1054.82864,16184
1056.173157,16366
1057.517069,16157
1058.860376,16558
1060.203079,16631
1061.545177,16606
1062.886671,16605
1064.227562,16709
1065.567848,16585
1066.907532,16595
1068.246613,16339
1069.585091,16153
1070.922966,16247
1072.260239,16116
1073.596911,15607
1074.93298,15720
1076.268448,15576
1077.603315,15467
1078.937581,15876
1080.271247,15348
1081.604312,15324
1082.936776,14942
1084.268641,14921
1085.599907,14622
1086.930573,14360
1088.260639,14394
1089.590107,14471
1090.918977,14173
1092.247248,14489
1093.574921,14236
1094.901996,14329
1096.228474,14496
1097.554354,14506
1098.879637,14548
1100.204323,14660
1101.528413,14725
1102.851907,15108
1104.174804,15179
1105.497106,14800
1106.818812,15362
1108.139923,14892
1109.460439,15336
1110.78036,15219
1112.099687,15550
1113.41842,15107
1114.736558,15382
1116.054103,15342
1117.371054,15511
1118.687412,15781
1120.003177,15805
1121.318349,15987
1122.632929,15833
1123.946916,15998
1125.260312,15943
1126.573116,15742
1127.885328,15573
1129.196949,15628
1130.507979,15327
1131.818419,15216
1133.128268,15071
1134.437527,14679
1135.746195,14498
1137.054275,14385
1138.361764,13964
1139.668665,13603
1140.974976,13582
1142.280699,13713
1143.585833,13377
1144.890379,13140
1146.194337,12966
1147.497708,12995
1148.800491,13003
1150.102687,12518
1151.404295,12662
1152.705318,12733
1154.005753,12774
1155.305603,12861
1156.604866,12721
1157.903544,13001
1159.201636,12763
1160.499143,12719
1161.796065,12429
1163.092402,12690
1164.388155,12330
1165.683324,12572
1166.977908,11987
1168.271909,12069
1169.565326,12355
1170.85816,12189
1172.150411,12376
1173.44208,12110
1174.733165,12397
1176.023669,12280
1177.31359,11837
1178.60293,11920
1179.891688,11643
1181.179865,11576
1182.467461,11720
1183.754476,11677
1185.04091,11846
1186.326765,11969
1187.612039,11866
1188.896733,11746
1190.180848,11982
1191.464383,11971
1192.747339,11763
1194.029717,12195
1195.311515,12095
1196.592736,11881
1197.873378,12089
1199.153442,12026
1200.432929,11955
1201.711838,12327
1202.990171,11938
1204.267926,12216
1205.545105,11905
1206.821707,12085
1208.097733,11821
1209.373183,12075
1210.648057,11748
1211.922356,12054
1213.196079,11898
1214.469228,11981
1215.741802,12179
1217.013801,12268
1218.285226,11905
1219.556077,11537
1220.826355,12185
1222.096058,11891
1223.365189,11872
1224.633746,11776
1225.90173,11618
1227.169142,11797
1228.435982,11894
1229.702249,11898
1230.967945,11628
1232.233069,11551
1233.497621,11642
1234.761602,11457
1236.025013,11785
1237.287852,11042
1238.550121,11613
1239.81182,11411
1241.072949,11377
1242.333509,11657
1243.593498,11341
1244.852919,11686
1246.11177,11626
1247.370053,11466
1248.627767,11451
1249.884912,11516
1251.14149,11361
1252.397499,11663
1253.652942,11717
1254.907816,11685
1256.162124,11734
1257.415864,11436
1258.669038,11591
1259.921646,11841
1261.173687,11712
1262.425162,11363
1263.676071,11920
1264.926415,11728
1266.176194,11682
1267.425408,11810
1268.674056,11963
1269.92214,11750
1271.16966,11656
1272.416616,11169
1273.663008,11925
1274.908836,11675
1276.1541,11499
1277.398802,11634
1278.64294,11379
1279.886516,11104
1281.129529,11615
1282.37198,11348
1283.613869,11139
1284.855196,11109
1286.095962,11144
1287.336166,10593
1288.575809,10920
1289.814891,11074
1291.053413,10923
1292.291374,11012
1293.528775,10975
1294.765616,10922
1296.001897,11063
1297.237618,11036
1298.472781,10874
1299.707384,10624
1300.941428,11145
1302.174914,10773
1303.407842,11202
1304.640211,11019
1305.872022,11072
1307.103276,11095
1308.333972,10917
1309.564111,10819
1310.793693,10931
1312.022719,10876
1313.251187,10908
1314.4791,11262
1315.706456,10797
1316.933256,11002
1318.159501,11094
1319.38519,11416
1320.610324,11243
1321.834903,11119
1323.058928,11387
1324.282398,11567
1325.505313,11448
1326.727675,11421
1327.949482,11269
1329.170736,11357
1330.391437,11322
1331.611584,11260
1332.831179,11269
1334.050221,11605
1335.26871,11118
1336.486647,11175
1337.704032,11644
1338.920865,11231
1340.137147,11277
1341.352877,11061
1342.568056,11191
1343.782684,11090
1344.996761,11176
1346.210288,10817
1347.423265,11205
1348.635691,10957
1349.847568,11091
1351.058895,10870
1352.269673,11243
1353.479901,10708
1354.689581,10638
1355.898712,11057
1357.107294,11145
1358.315329,11291
1359.522815,11214
1360.729753,11453
1361.936144,11122
1363.141987,10872
1364.347283,11241
1365.552032,11225
1366.756235,11084
1367.959891,10825
1369.163,11006
1370.365564,11077
1371.567582,11085
1372.769054,11032
1373.96998,10897
1375.170362,10989
1376.370198,10924
1377.56949,10513
1378.768237,10594
1379.96644,10905
1381.164099,10516
1382.361214,10806
1383.557785,10395
1384.753813,10473
1385.949297,10513
1387.144239,10836
1388.338637,10403
1389.532493,10434
1390.725807,10426
1391.918579,10361
1393.110808,10292
1394.302496,9864
1395.493643,9609
1396.684248,10179
1397.874312,9932
1399.063835,9886
1400.252818,9974
1401.44126,9474
1402.629162,9896
1403.816524,9556
1405.003346,9579
1406.189629,9587
1407.375372,9599
1408.560576,9296
1409.745241,9618
1410.929368,9499
1412.112956,9535
1413.296006,9583
1414.478517,9600
1415.660491,9531
1416.841927,9322
1418.022826,9396
1419.203188,9498
1420.383012,9214
1421.5623,9268
1422.741051,9295
1423.919266,9488
1425.096945,9251
1426.274088,9303
1427.450695,9350
1428.626766,9302
1429.802302,9322
1430.977303,9435
1432.15177,9167
1433.325701,9607
1434.499098,9555
1435.671961,9573
1436.84429,9326
1438.016085,9671
1439.187347,9121
1440.358075,9101
1441.528269,9268
1442.697931,9187
1443.86706,9404
1445.035657,9225
1446.203721,9124
1447.371253,9336
1448.538253,9077
1449.704721,9346
1450.870658,9263
1452.036064,9158
1453.200938,9162
1454.365282,9409
1455.529094,9511
1456.692377,9467
1457.855129,9377
1459.017351,9707
1460.179043,9266
1461.340206,9470
1462.500839,9235
1463.660943,9234
1464.820517,9238
1465.979563,8953
1467.138081,8
1468.29607,9048
1469.453531,8781
1470.610464,8821
1471.766869,8735
1472.922746,8716
1474.078096,8732
1475.232919,8534
1476.387215,8581
1477.540985,8193
1478.694227,8080
1479.846944,8502
1480.999134,8143
1482.150798,8263
1483.301937,8324
1484.45255,8296
1485.602637,8539
1486.7522,8487
1487.901238,8172
1489.049751,8596
1490.197739,8356
1491.345203,8282
1492.492144,8431
1493.63856,8234
1494.784452,8042
1495.929821,8298
1497.074667,8457
1498.21899,8775
1499.36279,8493
1500.506067,8599
1501.648821,8515
1502.791054,8529
1503.932764,8606
1505.073953,8683
1506.21462,8106
1507.354765,8623
1508.494389,8654
1509.633492,8547
1510.772074,8436
1511.910136,8495
1513.047677,8496
1514.184698,8647
1515.321198,8641
1516.457179,8614
1517.592641,8719
1518.727582,8714
1519.862005,8616
1520.995909,8621
1522.129293,8463
1523.262159,8679
1524.394507,8843
1525.526336,8826
1526.657647,8898
1527.788441,8726
1528.918717,9003
1530.048475,8858
1531.177716,8747
1532.30644,9039
1533.434647,8889
1534.562338,9105
1535.689512,8879
1536.816169,9121
1537.942311,9143
1539.067937,9271
1540.193047,9172
1541.317642,9070
1542.441721,9246
1543.565285,9085
1544.688335,9242
1545.81087,9034
1546.93289,9291
1548.054396,9537
1549.175388,9480
1550.295866,9645
1551.41583,9703
1552.535281,9779
1553.654218,9737
1554.772643,9916
1555.890554,9867
1557.007953,9716
1558.124839,9645
1559.241213,9442
1560.357075,10026
1561.472424,9998
1562.587262,9738
1563.701589,10128
1564.815404,10079
1565.928708,10077
1567.041501,10071
1568.153783,10143
1569.265555,9892
1570.376816,10328
1571.487567,10338
1572.597808,10025
1573.707539,10258
1574.816761,10348
1575.925473,10618
1577.033676,10701
1578.14137,10342
1579.248555,10739
1580.355231,10770
1581.461399,10757
1582.567059,10585
1583.672211,10897
1584.776854,10954
1585.88099,11117
1586.984619,11144
1588.08774,11186
1589.190354,11347
1590.292462,11327
1591.394062,12051
1592.495156,12020
1593.595744,11747
1594.695825,11957
1595.795401,11745
1596.89447,12099
1597.993034,12062
1599.091093,12262
1600.188647,12095
1601.285695,12701
1602.382239,12810
1603.478278,12797
1604.573812,12793
1605.668843,13077
1606.763369,13220
1607.857391,13373
1608.95091,13641
1610.043925,13382
1611.136437,13657
1612.228446,13680
1613.319952,14200
1614.410955,13883
1615.501455,14031
1616.591453,14231
1617.680949,14218
1618.769943,14136
1619.858435,14561
1620.946426,14772
1622.033915,14891
1623.120903,15253
1624.20739,14934
1625.293376,14975
1626.378861,15128
1627.463845,15044
1628.54833,15200
1629.632314,15143
1630.715799,15315
1631.798783,15016
1632.881268,15212
1633.963254,15482
1635.04474,15130
1636.125728,15409
1637.206216,15466
1638.286206,15304
1639.365698,15339
1640.444691,15257
1641.523187,15211
1642.601184,14817
1643.678683,15228
1644.755686,15374
1645.83219,14729
1646.908198,14894
1647.983708,15090
1649.058722,14974
1650.133239,14987
1651.20726,14902
1652.280785,14719
1653.353813,14353
1654.426346,14613
1655.498383,14348
1656.569924,14679
1657.64097,14221
1658.711521,14298
1659.781577,13781
1660.851139,13648
1661.920205,13982
1662.988777,13450
1664.056855,13687
1665.124439,13461
1666.191529,13116
1667.258126,13223
1668.324229,12607
1669.389838,12588
1670.454955,12438
1671.519578,12468
1672.583709,12397
1673.647347,11987
1674.710493,11992
1675.773147,11635
1676.835308,11624
1677.896978,11467
1678.958155,11203
1680.018842,11048
1681.079037,10806
1682.138741,10666
1683.197954,10298
1684.256676,10401
1685.314908,9880
1686.372649,9923
1687.4299,9691
1688.48666,9451
1689.542931,9330
1690.598713,9490
1691.654004,9346
1692.708807,9216
1693.76312,9105
1694.816944,9067
1695.870279,8993
1696.923126,8813
1697.975484,8228
1699.027354,8598
1700.078736,8721
1701.12963,8129
1702.180036,8206
1703.229955,8020
1704.279386,8003
1705.32833,8207
1706.376787,7522
1707.424757,7521
1708.47224,7378
1709.519237,7349
1710.565748,7200
1711.611772,7073
1712.65731,6671
1713.702363,7151
1714.74693,7041
1715.791011,7018
1716.834608,6745
1717.877719,6641
1718.920345,6719
1719.962486,6448
1721.004143,6653
1722.045316,6139
1723.086004,6410
1724.126208,6155
1725.165929,6200
1726.205165,6081
1727.243918,5886
1728.282188,5995
1729.319975,5778
1730.357278,5808
1731.394099,5673
1732.430437,5497
1733.466293,5635
1734.501666,5739
1735.536557,5608
1736.570967,5505
1737.604894,5394
1738.63834,5325
1739.671304,5456
1740.703787,5164
1741.735789,5181
1742.767311,5273
1743.798351,5210
1744.828911,5142
1745.85899,4866
1746.888589,4790
1747.917708,5113
1748.946348,4893
1749.974507,4781
1751.002187,4629
1752.029388,4397
1753.056109,4774
1754.082351,4548
1755.108115,4805
1756.1334,4605
1757.158206,4434
1758.182534,4567
1759.206384,4384
1760.229755,4595
1761.252649,4367
1762.275065,4503
1763.297004,4190
1764.318466,4008
1765.33945,4163
1766.359957,4262
1767.379988,4013
1768.399542,4021
1769.418619,3744
1770.43722,3921
1771.455345,3777
1772.472994,3983
1773.490167,3698
1774.506865,3648
1775.523087,3721
1776.538834,3463
1777.554106,3654
1778.568902,3733
1779.583224,3642
1780.597072,3598
1781.610444,3891
1782.623343,3425
1783.635768,3448
1784.647718,3409
1785.659195,3387
1786.670198,3407
1787.680728,3688
1788.690784,3536
1789.700368,3369
1790.709478,3378
1791.718116,3618
1792.726281,3344
1793.733973,3426
1794.741194,3517
1795.747942,3505
1796.754218,3425
1797.760023,3364
1798.765356,3423
1799.770217,3538
1800.774607,3524
1801.778526,3075
1802.781974,3260
1803.784952,3142
1804.787458,3149
1805.789495,3262
1806.791061,3092
1807.792156,3408
1808.792782,3499
1809.792938,3337
1810.792625,3351
1811.791842,3342
1812.79059,3178
1813.788868,3166
1814.786678,3121
1815.784019,3392
1816.780891,2991
1817.777295,3193
1818.77323,3069
1819.768697,3131
1820.763697,3352
1821.758228,3421
1822.752292,3012
1823.745888,3176
1824.739017,3058
1825.731679,3066
1826.723874,3230
1827.715602,2974
1828.706863,3034
1829.697658,3027
1830.687986,3073
1831.677848,3319
1832.667244,3037
1833.656175,2881
1834.644639,3079
1835.632638,3081
1836.620172,3019
1837.60724,3166
1838.593844,3025
1839.579982,2858
1840.565656,3191
1841.550865,3066
1842.53561,2939
1843.51989,2856
1844.503706,2773
1845.487059,2948
1846.469947,2675
1847.452372,3130
1848.434334,3150
1849.415832,3212
1850.396867,3144
1851.377439,2957
1852.357549,2977
1853.337195,2615
1854.31638,3022
1855.295101,2916
1856.273361,2778
1857.251159,2978
1858.228494,3042
1859.205369,2999
1860.181781,2958
1861.157732,2743
1862.133222,2891
1863.108251,2857
1864.082819,3119
1865.056926,2643
1866.030573,2829
1867.003759,3101
1867.976485,2823
1868.948751,2505
1869.920556,2790
1870.891902,2901
1871.862789,2726
1872.833216,2759
1873.803183,2807
1874.772691,2753
1875.741741,2667
1876.710331,2737
1877.678463,2615
1878.646136,2492
1879.613351,2810
1880.580108,2671
1881.546406,2712
1882.512247,2369
1883.47763,2736
1884.442555,2717
1885.407023,2508
1886.371033,2618
1887.334586,2676
1888.297683,2822
1889.260322,2530
1890.222505,2560
1891.184231,2649
1892.145501,2672
1893.106315,2495
1894.066673,2503
1895.026574,2626
1895.98602,2555
1896.945011,2768
1897.903546,2620
1898.861626,2410
1899.81925,2673
1900.77642,2587
1901.733135,2562
1902.689395,2728
1903.6452,2507
1904.600551,2375
1905.555448,2885
1906.509891,2445
1907.46388,2458
1908.417416,2785
1909.370498,2478
1910.323126,2948
1911.275301,2660
1912.227023,2723
1913.178292,2722
1914.129108,2647
1915.079471,2510
1916.029382,2794
1916.97884,2626
1917.927846,2491
1918.876401,2670
1919.824503,2441
1920.772153,2649
1921.719352,2757
1922.6661,2536
1923.612396,2415
1924.558241,2624
1925.503635,2535
1926.448578,2691
1927.39307,2662
1928.337112,2803
1929.280703,2360
1930.223844,2867
1931.166535,2698
1932.108776,2625
1933.050568,2757
1933.991909,2974
1934.932801,2619
1935.873244,2737
1936.813238,2876
1937.752782,2563
1938.691878,2833
1939.630525,2496
1940.568723,2805
1941.506473,2942
1942.443774,2513
1943.380627,2815
1944.317033,2892
1945.25299,2741
1946.1885,2757
1947.123562,2734
1948.058177,2522
1948.992344,2872
1949.926065,2855
1950.859338,2457
1951.792165,2927
1952.724545,2765
1953.656478,2720
1954.587965,2900
1955.519006,2772
1956.4496,2960
1957.379749,2694
1958.309452,2778
1959.238709,2620
1960.167521,2528
1961.095888,2824
1962.023809,2659
1962.951285,2713
1963.878317,2774
1964.804903,2618
1965.731045,2618
1966.656743,2766
1967.581996,2610
1968.506805,2863
1969.43117,2661
1970.355091,2855
1971.278568,3003
1972.201602,2703
1973.124192,2892
1974.046339,2895
1974.968043,2921
1975.889304,2723
1976.810122,2760
1977.730498,2698
1978.65043,2754
1979.569921,2800
1980.488969,2726
1981.407574,2542
1982.325738,2675
1983.24346,2691
1984.160741,2742
1985.077579,2863
1985.993977,3041
1986.909933,2932
1987.825448,2764
1988.740522,2551
1989.655155,2703
1990.569347,2441
1991.483099,2582
1992.396411,2958
1993.309282,2913
1994.221713,2686
1995.133704,2812
1996.045256,3081
1996.956367,2553
1997.867039,2567
1998.777272,3001
1999.687065,2484
2000.596419,2812
2001.505335,2856
2002.413811,2891
2003.321849,2981
2004.229448,2848
2005.136609,2698
2006.043331,2886
2006.949616,2782
2007.855462,2837
2008.760871,2920
2009.665841,3071
2010.570375,2927
2011.47447,2851
2012.378129,3189
2013.281351,2898
2014.184135,3084
2015.086483,2718
2015.988393,2674
2016.889868,2649
2017.790906,2913
2018.691507,2794
2019.591673,3647
2020.491402,3011
2021.390695,2841
2022.289553,2933
2023.187975,2941
2024.085962,2684
2024.983514,2939
2025.88063,3279
2026.777311,2886
2027.673557,2889
2028.569369,3130
2029.464746,3243
2030.359688,2994
2031.254197,3089
2032.148271,2910
2033.04191,3307
2033.935116,3043
2034.827889,3169
2035.720227,2848
2036.612132,2789
2037.503604,2973
2038.394642,3004
2039.285248,2974
2040.17542,2928
2041.06516,3061
2041.954466,2700
2042.843341,2892
2043.731783,2867
2044.619792,3094
2045.50737,2826
2046.394516,2694
2047.281229,3202
2048.167511,2539
2049.053362,2897
2049.938781,2867
2050.823768,2949
2051.708325,3069
2052.59245,3025
2053.476145,3008
2054.359409,3063
2055.242242,2995
2056.124645,2678
2057.006617,3000
2057.888159,2528
2058.769271,2767
2059.649953,2767
2060.530206,2921
2061.410028,2826
2062.289421,2788
2063.168385,2818
2064.046919,2862
2064.925025,2698
2065.802701,2983
2066.679949,2792
2067.556767,2825
2068.433157,2993
2069.309119,3125
2070.184652,2968
2071.059758,2892
2071.934435,2998
2072.808684,2803
2073.682505,3142
2074.555899,2582
2075.428865,2814
2076.301404,3091
2077.173516,2795
2078.0452,2677
2078.916458,2875
2079.787289,3005
2080.657693,3055
2081.52767,2923
2082.397221,2831
2083.266346,3188
2084.135044,2826
2085.003316,3013
2085.871163,3014
2086.738584,2805
2087.605579,3102
2088.472148,2985
2089.338292,2779
2090.204011,2901
2091.069305,2883
2091.934174,3329
2092.798618,3246
2093.662637,2652
2094.526231,2787
2095.389402,3261
2096.252147,2773
2097.114469,2961
2097.976366,2826
2098.83784,2970
2099.69889,3076
2100.559516,2784
2101.419719,2786
2102.279498,2687
2103.138854,2883
2103.997786,3068
2104.856296,2830
2105.714383,2973
2106.572047,2927
2107.429289,2917
2108.286108,2834
2109.142504,2971
2109.998479,2818
2110.854031,2994
2111.709161,2703
2112.56387,2727
2113.418156,2754
2114.272021,2695
2115.125465,2873
2115.978487,2892
2116.831089,2705
2117.683269,2815
2118.535028,3003
2119.386366,2686
2120.237284,3004
2121.087781,2361
2121.937857,2931
2122.787514,2834
2123.63675,2563
2124.485566,2498
2125.333962,2881
2126.181939,2585
2127.029496,3063
2127.876633,2996
2128.723351,2667
2129.569649,2748
2130.415529,2624
2131.260989,2665
2132.106031,2836
2132.950654,2434
2133.794858,2470
2134.638643,2706
2135.482011,2404
2136.32496,2542
2137.167491,2529
2138.009604,2677
2138.851299,2671
2139.692576,2674
2140.533436,2699
2141.373878,2362
2142.213903,2774
2143.05351,2293
2143.892701,2493
2144.731474,2796
2145.569831,2513
2146.407771,2669
2147.245294,2400
2148.082401,2527
2148.919091,2616
2149.755365,2376
2150.591224,2308
2151.426666,2462
2152.261692,2539
2153.096302,2418
2153.930497,2434
2154.764277,2316
2155.597641,2257
2156.43059,2455
2157.263124,2569
2158.095242,2327
2158.926946,2232
2159.758236,2315
2160.58911,2312
2161.41957,2360
2162.249616,2445
2163.079248,2254
2163.908465,2480
2164.737269,2206
2165.565658,2284
2166.393634,2202
2167.221196,1965
2168.048345,2176
2168.87508,2359
2169.701402,2178
2170.527311,2305
2171.352807,2266
2172.177891,2212
2173.002561,2319
2173.826819,2333
2174.650664,2509
2175.474097,2293
2176.297117,2220
2177.119726,2553
2177.941922,2240
2178.763707,2247
2179.58508,2232
2180.406041,1988
2181.22659,2090
2182.046729,2212
2182.866456,2161
2183.685771,2342
2184.504676,2270
2185.32317,2253
2186.141253,2324
2186.958925,2057
2187.776187,2265
2188.593038,2245
2189.409479,2223
2190.22551,2050
2191.041131,1852
2191.856342,2029
2192.671143,2267
2193.485534,2334
2194.299516,1983
2195.113088,2278
2195.926251,1803
2196.739005,2097
2197.551349,1845
2198.363285,2028
2199.174812,1915
2199.98593,1972
2200.796639,1663
2201.60694,2000
2202.416832,1854
2203.226317,2124
2204.035393,1970
2204.844061,1859
2205.652321,2168
2206.460173,2141
2207.267618,1880
2208.074655,2007
2208.881285,1655
2209.687507,1886
2210.493322,1945
2211.29873,1766
2212.103732,1990
2212.908326,1675
2213.712513,1745
2214.516294,1938
2215.319669,2025
2216.122637,1687
2216.925199,1850
2217.727355,1627
2218.529105,1919
2219.330449,1619
2220.131387,1982
2220.931919,1651
2221.732046,1706
2222.531768,1711
2223.331084,1512
2224.129995,1513
2224.928501,1753
2225.726602,1723
2226.524298,1560
2227.321589,1686
2228.118476,1556
2228.914959,1615
2229.711037,1840
2230.50671,1568
2231.30198,1777
2232.096846,1844
2232.891307,1670
2233.685365,1774
2234.479019,1732
2235.27227,1570
2236.065117,1818
2236.857561,1873
2237.649602,1693
2238.441239,1588
2239.232474,1615
2240.023306,1657
2240.813735,1687
2241.603761,1429
2242.393385,1682
2243.182607,1499
2243.971426,1651
2244.759843,1689
2245.547858,1605
2246.335471,1697
2247.122682,1250
2247.909492,1632
2248.6959,1248
2249.481906,1484
2250.267511,1062
2251.052715,1547
2251.837518,1668
2252.621919,1532
2253.40592,1316
2254.18952,1449
2254.972719,1391
2255.755518,1574
2256.537916,1464
2257.319914,1556
2258.101512,1419
2258.88271,1240
2259.663507,1631
2260.443905,1290
2261.223903,1626
2262.003501,1443
2262.7827,1420
2263.561499,1244
2264.339899,1353
2265.1179,1265
2265.895501,1575
2266.672704,1334
2267.449508,1334
2268.225913,1301
2269.001919,1436
2269.777527,1038
2270.552737,1421
2271.327548,1377
2272.101961,1187
2272.875975,1298
2273.649592,1367
2274.422811,1427
2275.195632,1039
2275.968056,1208
2276.740082,1303
2277.511711,1483
2278.282942,1498
2279.053776,1258
2279.824213,1162
2280.594253,1346
2281.363897,1104
2282.133143,1267
2282.901993,1269
2283.670446,1349
2284.438503,1265
2285.206164,890
2285.973428,1114
2286.740296,1172
2287.506769,896
2288.272845,1225
2289.038526,1191
2289.803811,1275
2290.5687,1192
2291.333194,1196
2292.097293,1289
2292.860997,811
2293.624305,1396
2294.387219,1052
2295.149737,1150
2295.911861,1063
2296.67359,1233
2297.434925,1000
2298.195865,1150
2298.956411,989
2299.716562,1417
2300.47632,1083
2301.235683,1046
2301.994653,1463
2302.753229,1329
2303.511411,1033
2304.269199,1386
2305.026594,1073
2305.783596,1199
2306.540204,1067
2307.29642,1011
2308.052242,1243
2308.807671,1098
2309.562708,1361
2310.317351,1468
2311.071603,981
2311.825461,1207
2312.578928,1087
2313.332002,1373
2314.084684,1066
2314.836973,821
2315.588871,864
2316.340377,909
2317.091491,973
2317.842214,1099
2318.592545,1116
2319.342485,1518
2320.092033,1059
2320.84119,1269
2321.589956,886
2322.338331,1296
2323.086315,885
2323.833908,1002
2324.581111,1116
2325.327923,965
2326.074345,1012
2326.820376,1219
2327.566017,1083
2328.311268,986
2329.056129,983
2329.800599,1316
2330.54468,995
2331.288372,814
2332.031673,925
2332.774585,1177
2333.517108,1178
2334.259242,1167
2335.000986,1007
2335.742341,1075
2336.483307,660
2337.223884,1231
2337.964073,928
2338.703872,1077
2339.443283,942
2340.182306,1028
2340.92094,1084
2341.659187,1108
2342.397044,942
2343.134514,883
2343.871596,762
2344.60829,850
2345.344597,700
2346.080515,811
2346.816046,837
2347.55119,1329
2348.285946,801
2349.020316,858
2349.754298,684
2350.487893,846
2351.221101,1246
2351.953922,1075
2352.686356,767
2353.418404,898
2354.150066,1181
2354.881341,1013
2355.61223,1111
2356.342732,800
2357.072849,819
2357.802579,834
2358.531924,698
2359.260883,821
2359.989456,870
2360.717643,1020
2361.445445,943
2362.172862,1009
2362.899893,621
2363.626539,769
2364.352801,1014
2365.078677,847
2365.804168,935
2366.529275,823
2367.253996,1080
2367.978334,765
2368.702286,1005
2369.425855,648
2370.149039,994
2370.871839,932
2371.594255,863
2372.316287,785
2373.037935,940
2373.7592,831
2374.48008,898
2375.200578,942
2375.920691,848
2376.640422,762
2377.359769,556
2378.078733,451
2378.797314,697
2379.515511,650
2380.233327,571
2380.950759,800
2381.667808,884
2382.384476,921
2383.10076,747
2383.816663,994
2384.532183,818
2385.24732,464
2385.962076,475
2386.67645,711
2387.390442,877
2388.104052,535
2388.817281,480
2389.530128,736
2390.242593,787
2390.954677,786
2391.66638,613
2392.377702,700
2393.088643,550
2393.799202,705
2394.509381,575
2395.219179,802
2395.928596,620
2396.637633,499
2397.346289,402
2398.054565,522
2398.762461,545
2399.469976,462
2400.177111,391
2400.883867,557
2401.590242,729
2402.296238,345
2403.001854,563
2403.70709,722
2404.411947,411
2405.116424,569
2405.820522,632
2406.524241,542
2407.227581,473
2407.930542,227
2408.633123,772
2409.335326,236
2410.037151,195
