Wave shift,Intensity
-31.722347,9891
-29.886687,11321
-28.051868,13174
-26.217889,14812
-24.384749,17522
-22.552448,20102
-20.720985,22441
-18.890361,25810
-17.060575,29104
-15.231626,33319
-13.403514,38652
-11.576239,44859
-9.749799,47769
-7.924195,45550
-6.099426,37464
-4.275492,37065
-2.452392,41405
-0.630127,37047
1.191306,33869
3.011906,33034
4.831672,38483
6.650607,41259
8.46871,25310
10.285982,21383
12.102423,19488
13.918034,17646
15.732815,15862
17.546766,16477
19.359888,15654
21.172181,13927
22.983647,11465
24.794284,9691
26.604094,9341
28.413077,8792
30.221233,7742
32.028563,6459
33.835068,4990
35.640747,4741
37.445602,4219
39.249632,4332
41.052838,3644
42.855221,3930
44.656781,3577
46.457517,3534
48.257432,3314
50.056525,3381
51.854796,3455
53.652246,3357
55.448876,3348
57.244685,3444
59.039675,3835
60.833846,3722
62.627197,3765
64.41973,4070
66.211446,3895
68.002343,3990
69.792423,4322
71.581687,4243
73.370134,4739
75.157765,5434
76.944581,5737
78.730581,6381
80.515767,7212
82.300139,8098
84.083697,9000
85.866441,9867
87.648372,10695
89.429491,12429
91.209797,14004
92.989292,15930
94.767976,18624
96.545848,21458
98.32291,25379
100.099162,30713
101.874604,28644
103.649237,32615
105.423061,32667
107.196077,37381
108.968284,36307
110.739684,35358
112.510277,33736
114.280063,33094
116.049042,33121
117.817216,36720
119.584584,43635
121.351147,39186
123.116905,37563
124.881859,38435
126.646009,29606
128.409356,42356
130.171899,41213
131.93364,38904
133.694578,28152
135.454715,35151
137.21405,34072
138.972584,29941
140.730317,44104
142.48725,37028
144.243384,26760
145.998718,35652
147.753252,30157
149.506989,35700
151.259927,37344
153.012067,43300
154.76341,33686
156.513956,40765
158.263705,36640
160.012659,37618
161.760816,31198
163.508178,36993
165.254745,34805
167.000518,37518
168.745496,38835
170.489681,36303
172.233072,36685
173.975671,43139
175.717476,29405
177.45849,38032
179.198712,30726
180.938142,36553
182.676782,31056
184.414631,37809
186.15169,34820
187.887959,29981
189.623439,40421
191.35813,31444
193.092032,35967
194.825147,34536
196.557473,33905
198.289012,35713
200.019764,33914
201.74973,32476
203.478909,35986
205.207303,36389
206.934911,38439
208.661735,39023
210.387773,33198
212.113028,31921
213.837499,31543
215.561186,34964
217.28409,35648
219.006212,33173
220.727552,33765
222.44811,38278
224.167886,38004
225.886881,33912
227.605096,35189
229.32253,32509
231.039185,32711
232.75506,30940
234.470156,24456
236.184473,33415
237.898012,29695
239.610773,30040
241.322757,37822
243.033964,37094
244.744393,29650
246.454047,35144
248.162924,32106
249.871026,32115
251.578353,34977
253.284905,31763
254.990683,40728
256.695686,32723
258.399916,36012
260.103373,36827
261.806057,36600
263.507968,39424
265.209107,33690
266.909475,32680
268.609071,33646
270.307897,29224
272.005952,34756
273.703236,35557
275.399751,34246
277.095497,32901
278.790473,38876
280.484681,31728
282.178121,34219
283.870793,39083
285.562697,31165
287.253835,40708
288.944205,39120
290.633809,31440
292.322648,32818
294.010721,36855
295.698028,38906
297.384571,40294
299.070349,38290
300.755364,39813
302.439614,35216
304.123102,35157
305.805826,37427
307.487788,35863
309.168988,35505
310.849426,40390
312.529103,33535
314.208018,33444
315.886173,23376
317.563568,36679
319.240203,37819
320.916079,40210
322.591195,36832
324.265552,38986
325.939151,35594
327.611993,35324
329.284076,35971
330.955402,37094
332.625972,42467
334.295785,37421
335.964841,34932
337.633142,32166
339.300688,38707
340.967479,30954
342.633515,38219
344.298796,36178
345.963324,37005
347.627098,35960
349.29012,40789
350.952388,36108
352.613904,37871
354.274668,34661
355.93468,34166
357.593941,38591
359.252451,38870
360.910211,31576
362.56722,37157
364.22348,33845
365.87899,30916
367.533751,41101
369.187763,35786
370.841027,34163
372.493543,37239
374.145311,42496
375.796332,38263
377.446607,23587
379.096134,42636
380.744916,35024
382.392952,32082
384.040242,38118
385.686787,46966
387.332588,37368
388.977645,40450
390.621957,36801
392.265526,42195
393.908351,31953
395.550434,40322
397.191775,38383
398.832373,29315
400.472229,39950
402.111344,43713
403.749718,43461
405.387351,39622
407.024244,30778
408.660397,38451
410.295811,40779
411.930485,41837
413.56442,40333
415.197617,48013
416.830076,26882
418.461796,41228
420.09278,40831
421.723026,37247
423.352536,30471
424.981309,33001
426.609346,38202
428.236648,36382
429.863214,41834
431.489046,44262
433.114143,30333
434.738505,40587
436.362134,33581
437.98503,31939
439.607192,36483
441.228621,33485
442.849318,39038
444.469283,32019
446.088516,37940
447.707018,33338
449.324789,28707
450.941829,35979
452.558139,32562
454.173719,38748
455.78857,8071
457.402691,36960
459.016083,39114
460.628747,38511
462.240682,39920
463.85189,39748
465.46237,36962
467.072124,40013
468.68115,32178
470.28945,40108
471.897024,34430
473.503872,34727
475.109995,40485
476.715393,35677
478.320066,40660
479.924015,34833
481.52724,36992
483.129741,36081
484.731519,33401
486.332575,39206
487.932907,28005
489.532517,37838
491.131406,31673
492.729573,31523
494.327019,37299
495.923744,37553
497.519748,29637
499.115033,36051
500.709597,39640
502.303442,38736
503.896568,37115
505.488976,35459
507.080665,38902
508.671635,38492
510.261889,29868
511.851424,37062
513.440243,33482
515.028345,38673
516.615731,39444
518.202401,37624
519.788355,35565
521.373593,42543
522.958117,36317
524.541926,29854
526.125021,36782
527.707402,30687
529.28907,37548
530.870024,25969
532.450265,30951
534.029794,36069
535.60861,35128
537.186715,42412
538.764108,32949
540.340789,30334
541.91676,39211
543.492021,39934
545.066571,33974
546.640411,35341
548.213542,32227
549.785964,31716
551.357676,40507
552.928681,35803
554.498977,44705
556.068565,32970
557.637446,41464
559.20562,44338
560.773087,40540
562.339847,36663
563.905901,34103
565.47125,32666
567.035893,31597
568.599831,32920
570.163064,37392
571.725593,36970
573.287417,38141
574.848538,41975
576.408955,36026
577.968669,33726
579.52768,36569
581.085989,31991
582.643596,39796
584.200501,37475
585.756704,32755
587.312207,42589
588.867008,39288
590.42111,39352
591.974511,34778
593.527212,35830
595.079214,31163
596.630516,39322
598.18112,39952
599.731025,25239
601.280232,36455
602.828742,39642
604.376554,37275
605.923668,39258
607.470086,33680
609.015808,41710
610.560833,36785
612.105162,39198
613.648796,36187
615.191735,35312
616.733979,33663
618.275528,42819
619.816383,32961
621.356544,31692
622.896012,37806
624.434787,39054
625.972868,33554
627.510257,34323
629.046954,39166
630.582959,33601
632.118272,33767
633.652894,41289
635.186825,37676
636.720066,38031
638.252616,33737
639.784476,40632
641.315647,31679
642.846128,30280
644.37592,33454
645.905024,33627
647.433439,28588
648.961166,39887
650.488206,39823
652.014558,31421
653.540223,32972
655.065201,36042
656.589493,37996
658.113099,35618
659.636019,35851
661.158253,35284
662.679803,38459
664.200668,36318
665.720848,38105
667.240344,38251
668.759156,35308
670.277284,34953
671.79473,37521
673.311492,36129
674.827572,37184
676.34297,36984
677.857686,34235
679.37172,37229
680.885072,28733
682.397744,35879
683.909735,36544
685.421046,34500
686.931677,36167
688.441628,31295
689.950899,35884
691.459492,35684
692.967406,35557
694.474641,35456
695.981198,35556
697.487078,17580
698.992279,35429
700.496804,35157
702.000652,35011
703.503823,30133
705.006318,30866
706.508137,35021
708.00928,32693
709.509748,35004
711.009541,34502
712.50866,34860
714.007104,31864
715.504874,30413
717.00197,34644
718.498393,34484
719.994142,34665
721.489219,34429
722.983624,33998
724.477356,34382
725.970416,30282
727.462805,33859
728.954522,32592
730.445569,26149
731.935944,33694
733.42565,33742
734.914685,33724
736.403051,33840
737.890748,33583
739.377775,33343
740.864133,28557
742.349823,33055
743.834845,33116
745.319199,33170
746.802886,33078
748.285905,33045
749.768257,33239
751.249943,33138
752.730962,33150
754.211315,32766
755.691003,32377
757.170025,32734
758.648382,30443
760.126075,32390
761.603102,32190
763.079466,32567
764.555166,32030
766.030202,32278
767.504575,31866
768.978285,31955
770.451332,31932
771.923717,31776
773.39544,31639
774.866501,31758
776.3369,31500
777.806639,31479
779.275716,31319
780.744134,30684
782.21189,30502
783.678987,30505
785.145425,29938
786.611203,30106
788.076322,29752
789.540782,29737
791.004583,29077
792.467727,29344
793.930213,28975
795.392041,28490
796.853212,28647
798.313726,28553
799.773584,28249
801.232785,28360
802.69133,28381
804.14922,27476
805.606454,27453
807.063032,27899
808.518956,27621
809.974226,27425
811.428841,27544
812.882802,27091
814.33611,26820
815.788764,26947
817.240766,26569
818.692114,26685
820.14281,25628
821.592854,26502
823.042246,26342
824.490986,26259
825.939075,26011
827.386514,25982
828.833301,25672
830.279438,25703
831.724925,25338
833.169762,25428
834.61395,25493
836.057488,25512
837.500378,24594
838.942619,25663
840.384212,25504
841.825156,24917
843.265453,25202
844.705102,17880
846.144105,25382
847.58246,24582
849.020169,24759
850.457231,24528
851.893648,24294
853.329418,24588
854.764544,24398
856.199024,24404
857.632859,24254
859.06605,23657
860.498597,24220
861.9305,23897
863.361759,23649
864.792374,23601
866.222347,23559
867.651677,23383
869.080364,23075
870.508409,22939
871.935812,23345
873.362574,22830
874.788694,22338
876.214173,22700
877.639011,22294
879.063209,22505
880.486766,22129
881.909684,22481
883.331962,22087
884.753601,22454
886.174601,22131
887.594961,21981
889.014684,21883
890.433768,22018
891.852214,22173
893.270023,21774
894.687194,22109
896.103729,21504
897.519626,21619
898.934887,21731
900.349512,21451
901.763501,21469
903.176854,21135
904.589572,21052
906.001655,20880
907.413103,20260
908.823917,20667
910.234096,20126
911.643642,20486
913.052554,20152
914.460832,20183
915.868477,20284
917.27549,20063
918.68187,19903
920.087618,20340
921.492734,19744
922.897218,19305
924.301071,19656
925.704292,19654
927.106883,19152
928.508844,19044
929.910174,19115
931.310874,18962
932.710944,18751
934.110385,18753
935.509197,18338
936.907379,18700
938.304934,18238
939.70186,18408
941.098158,17943
942.493828,18137
943.88887,18284
945.283286,18106
946.677075,18033
948.070236,17916
949.462772,17761
950.854681,17723
952.245965,18340
953.636623,17803
955.026656,18037
956.416064,17755
957.804847,17958
959.193006,17881
960.58054,17728
961.967451,17999
963.353738,17430
964.739402,17891
966.124442,17531
967.50886,17578
968.892656,17706
970.275829,17725
971.65838,17250
973.04031,17536
974.421618,17421
975.802305,17448
977.182371,17349
978.561816,17257
979.940641,17340
981.318846,17451
982.696432,17777
984.073398,17319
985.449744,17267
986.825472,17562
988.200581,17570
989.575072,18021
990.948944,17702
992.322199,17508
993.694836,17430
995.066855,17134
996.438258,17569
997.809044,17345
999.179213,17208
1000.548766,17323
1001.917703,17877
1003.286024,17161
1004.65373,17257
1006.020821,17405
1007.387297,17596
1008.753158,17529
1010.118405,17311
1011.483038,17335
1012.847057,17301
1014.210462,17470
1015.573254,17169
1016.935433,17314
1018.296999,17400
1019.657953,17403
1021.018295,17091
1022.378025,17213
1023.737143,17018
1025.095649,17045
1026.453544,17070
1027.810829,16978
1029.167503,16921
1030.523566,17163
1031.87902,17085
1033.233863,17126
1034.588097,17127
1035.941722,16901
1037.294738,16926
1038.647145,16761
1039.998943,16867
1041.350133,16966
1042.700716,16753
1044.05069,16798
1045.400057,16891
1046.748817,17022
1048.09697,16773
1049.444516,17007
1050.791456,17178
1052.13779,17178
1053.483518,16910
1054.82864,17367
1056.173157,17080
1057.517069,17573
1058.860376,17881
1060.203079,17694
1061.545177,17866
1062.886671,17764
1064.227562,17709
1065.567848,17725
1066.907532,17623
1068.246613,17471
1069.585091,17247
1070.922966,17447
1072.260239,17209
1073.596911,16896
1074.93298,16982
1076.268448,16570
1077.603315,16472
1078.937581,16973
1080.271247,16515
1081.604312,16528
1082.936776,16256
1084.268641,16194
1085.599907,15887
1086.930573,16134
1088.260639,15955
1089.590107,15987
1090.918977,15674
1092.247248,16162
1093.574921,15850
1094.901996,15940
1096.228474,15964
1097.554354,15959
1098.879637,15843
1100.204323,15757
1101.528413,16271
1102.851907,16212
1104.174804,16082
1105.497106,16132
1106.818812,16311
1108.139923,16112
1109.460439,16806
1110.78036,16359
1112.099687,16470
1113.41842,16330
1114.736558,16358
1116.054103,16299
1117.371054,16492
1118.687412,16353
1120.003177,16599
1121.318349,16648
1122.632929,16676
1123.946916,16797
1125.260312,16567
1126.573116,16548
1127.885328,16366
1129.196949,16284
1130.507979,15965
1131.818419,15674
1133.128268,15978
1134.437527,15660
1135.746195,15312
1137.054275,15347
1138.361764,15243
1139.668665,14961
1140.974976,14959
1142.280699,14845
1143.585833,14706
1144.890379,14460
1146.194337,14449
1147.497708,14414
1148.800491,14213
1150.102687,14155
1151.404295,14132
1152.705318,14091
1154.005753,14330
1155.305603,14409
1156.604866,14004
1157.903544,14274
1159.201636,14198
1160.499143,14083
1161.796065,13843
1163.092402,13998
1164.388155,13845
1165.683324,14248
1166.977908,13906
1168.271909,13608
1169.565326,14105
1170.85816,13839
1172.150411,13906
1173.44208,13850
1174.733165,13985
1176.023669,13711
1177.31359,13786
1178.60293,13547
1179.891688,13649
1181.179865,13523
1182.467461,13570
1183.754476,13468
1185.04091,13798
1186.326765,13541
1187.612039,13546
1188.896733,13564
1190.180848,13656
1191.464383,13907
1192.747339,13543
1194.029717,13990
1195.311515,13719
1196.592736,13610
1197.873378,13752
1199.153442,13884
1200.432929,14009
1201.711838,13862
1202.990171,13423
1204.267926,13770
1205.545105,13551
1206.821707,13655
1208.097733,13587
1209.373183,13482
1210.648057,13376
1211.922356,13890
1213.196079,13558
1214.469228,13334
1215.741802,13865
1217.013801,13553
1218.285226,13444
1219.556077,13374
1220.826355,13626
1222.096058,13327
1223.365189,13841
1224.633746,13348
1225.90173,13475
1227.169142,13272
1228.435982,13436
1229.702249,13359
1230.967945,13092
1232.233069,12724
1233.497621,13410
1234.761602,12713
1236.025013,13204
1237.287852,12918
1238.550121,13180
1239.81182,13180
1241.072949,12719
1242.333509,12631
1243.593498,13056
1244.852919,12892
1246.11177,12845
1247.370053,13100
1248.627767,12764
1249.884912,12998
1251.14149,12826
1252.397499,13113
1253.652942,12721
1254.907816,12884
1256.162124,12999
1257.415864,12885
1258.669038,13057
1259.921646,13155
1261.173687,13064
1262.425162,12984
1263.676071,13311
1264.926415,13285
1266.176194,12792
1267.425408,13309
1268.674056,13298
1269.92214,12918
1271.16966,12679
1272.416616,12704
1273.663008,13107
1274.908836,12879
1276.1541,13009
1277.398802,12904
1278.64294,12901
1279.886516,12470
1281.129529,12862
1282.37198,12715
1283.613869,12511
1284.855196,12681
1286.095962,12516
1287.336166,12269
1288.575809,12268
1289.814891,12264
1291.053413,12741
1292.291374,12176
1293.528775,12565
1294.765616,12435
1296.001897,12186
1297.237618,12407
1298.472781,12155
1299.707384,12309
1300.941428,12202
1302.174914,12209
1303.407842,12436
1304.640211,12468
1305.872022,12667
1307.103276,12554
1308.333972,12165
1309.564111,12347
1310.793693,12168
1312.022719,12186
1313.251187,12430
1314.4791,12427
1315.706456,12272
1316.933256,12389
1318.159501,12393
1319.38519,12525
1320.610324,12380
1321.834903,12375
1323.058928,12537
1324.282398,12471
1325.505313,12421
1326.727675,12548
1327.949482,12852
1329.170736,12371
1330.391437,12658
1331.611584,12529
1332.831179,12479
1334.050221,12715
1335.26871,12286
1336.486647,12513
1337.704032,12503
1338.920865,12416
1340.137147,12366
1341.352877,12314
1342.568056,12277
1343.782684,12394
1344.996761,12459
1346.210288,11944
1347.423265,12076
1348.635691,12159
1349.847568,11741
1351.058895,12154
1352.269673,11915
1353.479901,11762
1354.689581,11758
1355.898712,11963
1357.107294,12085
1358.315329,12254
1359.522815,12229
1360.729753,12244
1361.936144,12416
1363.141987,11855
1364.347283,12237
1365.552032,12023
1366.756235,11604
1367.959891,11908
1369.163,11874
1370.365564,11843
1371.567582,11804
1372.769054,11838
1373.96998,11947
1375.170362,11961
1376.370198,11722
1377.56949,11843
1378.768237,11717
1379.96644,11772
1381.164099,11459
1382.361214,12053
1383.557785,11340
1384.753813,11595
1385.949297,11467
1387.144239,11646
1388.338637,11535
1389.532493,11415
1390.725807,11348
1391.918579,11474
1393.110808,11436
1394.302496,10976
1395.493643,11140
1396.684248,11308
1397.874312,11409
1399.063835,11009
1400.252818,11057
1401.44126,10646
1402.629162,10721
1403.816524,10577
1405.003346,10797
1406.189629,10685
1407.375372,10773
1408.560576,10693
1409.745241,10829
1410.929368,10613
1412.112956,10891
1413.296006,10711
1414.478517,10637
1415.660491,10697
1416.841927,10473
1418.022826,10600
1419.203188,10722
1420.383012,10435
1421.5623,10703
1422.741051,10573
1423.919266,10464
1425.096945,10696
1426.274088,10626
1427.450695,10402
1428.626766,10641
1429.802302,10489
1430.977303,10652
1432.15177,10637
1433.325701,10513
1434.499098,10553
1435.671961,10753
1436.84429,10561
1438.016085,10727
1439.187347,10203
1440.358075,10289
1441.528269,10423
1442.697931,10603
1443.86706,10490
1445.035657,10250
1446.203721,10515
1447.371253,10498
1448.538253,10418
1449.704721,10264
1450.870658,10454
1452.036064,10398
1453.200938,10421
1454.365282,10176
1455.529094,10528
1456.692377,10477
1457.855129,10597
1459.017351,10469
1460.179043,10230
1461.340206,10345
1462.500839,10545
1463.660943,10391
1464.820517,10423
1465.979563,9929
1467.138081,-63
1468.29607,10325
1469.453531,9928
1470.610464,9832
1471.766869,9725
1472.922746,9803
1474.078096,9641
1475.232919,9806
1476.387215,9317
1477.540985,9371
1478.694227,9118
1479.846944,9359
1480.999134,9229
1482.150798,9561
1483.301937,9570
1484.45255,9352
1485.602637,9660
1486.7522,9753
1487.901238,9589
1489.049751,9846
1490.197739,9399
1491.345203,9545
1492.492144,9411
1493.63856,9563
1494.784452,9552
1495.929821,9668
1497.074667,9697
1498.21899,9768
1499.36279,9564
1500.506067,9708
1501.648821,9267
1502.791054,9823
1503.932764,9711
1505.073953,9611
1506.21462,9443
1507.354765,9814
1508.494389,9808
1509.633492,9666
1510.772074,9748
1511.910136,9924
1513.047677,9580
1514.184698,9567
1515.321198,9919
1516.457179,9829
1517.592641,9954
1518.727582,9877
1519.862005,9900
1520.995909,9776
1522.129293,9503
1523.262159,10027
1524.394507,9981
1525.526336,9860
1526.657647,10204
1527.788441,10152
1528.918717,10124
1530.048475,9889
1531.177716,10121
1532.30644,10294
1533.434647,10142
1534.562338,10152
1535.689512,10315
1536.816169,10391
1537.942311,10469
1539.067937,10414
1540.193047,10622
1541.317642,10060
1542.441721,10476
1543.565285,10631
1544.688335,10288
1545.81087,10335
1546.93289,10547
1548.054396,10664
1549.175388,10404
1550.295866,10666
1551.41583,10744
1552.535281,10900
1553.654218,10959
1554.772643,10818
1555.890554,10890
1557.007953,10783
1558.124839,10948
1559.241213,10470
1560.357075,11200
1561.472424,11218
1562.587262,10894
1563.701589,11068
1564.815404,11026
1565.928708,11070
1567.041501,11217
1568.153783,11370
1569.265555,11247
1570.376816,11246
1571.487567,11345
1572.597808,11031
1573.707539,11354
1574.816761,11282
1575.925473,11885
1577.033676,11425
1578.14137,11474
1579.248555,11719
1580.355231,11573
1581.461399,11817
1582.567059,11933
1583.672211,11929
1584.776854,11894
1585.88099,11927
1586.984619,12113
1588.08774,12287
1589.190354,12467
1590.292462,12451
1591.394062,12730
1592.495156,12777
1593.595744,13046
1594.695825,13076
1595.795401,12702
1596.89447,13089
1597.993034,13181
1599.091093,13230
1600.188647,13295
1601.285695,13626
1602.382239,13533
1603.478278,13747
1604.573812,13985
1605.668843,13948
1606.763369,14015
1607.857391,14317
1608.95091,14644
1610.043925,14475
1611.136437,14377
1612.228446,14738
1613.319952,15037
1614.410955,15051
1615.501455,15318
1616.591453,15315
1617.680949,15110
1618.769943,15293
1619.858435,15810
1620.946426,15322
1622.033915,15632
1623.120903,15843
1624.20739,15967
1625.293376,15578
1626.378861,15830
1627.463845,16149
1628.54833,15836
1629.632314,16044
1630.715799,16309
1631.798783,16209
1632.881268,16325
1633.963254,16281
1635.04474,16093
1636.125728,16251
1637.206216,16371
1638.286206,16179
1639.365698,16165
1640.444691,15939
1641.523187,16074
1642.601184,15868
1643.678683,16062
1644.755686,16399
1645.83219,15946
1646.908198,15874
1647.983708,15922
1649.058722,15865
1650.133239,15846
1651.20726,15499
1652.280785,15433
1653.353813,15673
1654.426346,15501
1655.498383,15344
1656.569924,15644
1657.64097,15121
1658.711521,15229
1659.781577,14819
1660.851139,14831
1661.920205,14971
1662.988777,14379
1664.056855,14357
1665.124439,14170
1666.191529,14256
1667.258126,14108
1668.324229,13686
1669.389838,13503
1670.454955,13297
1671.519578,13334
1672.583709,13040
1673.647347,12899
1674.710493,12716
1675.773147,12325
1676.835308,12356
1677.896978,11807
1678.958155,12350
1680.018842,11938
1681.079037,11617
1682.138741,11486
1683.197954,11262
1684.256676,11135
1685.314908,10827
1686.372649,11033
1687.4299,10635
1688.48666,10688
1689.542931,10302
1690.598713,10220
1691.654004,10061
1692.708807,10278
1693.76312,10044
1694.816944,9771
1695.870279,10018
1696.923126,9347
1697.975484,9361
1699.027354,9352
1700.078736,9496
1701.12963,9066
1702.180036,9022
1703.229955,8611
1704.279386,8611
1705.32833,8809
1706.376787,8527
1707.424757,8603
1708.47224,8002
1709.519237,8230
1710.565748,8121
1711.611772,7932
1712.65731,7802
1713.702363,7942
1714.74693,7884
1715.791011,7825
1716.834608,7481
1717.877719,7823
1718.920345,7503
1719.962486,7476
1721.004143,7531
1722.045316,6975
1723.086004,7064
1724.126208,7132
1725.165929,6897
1726.205165,6674
1727.243918,6746
1728.282188,6782
1729.319975,6509
1730.357278,6841
1731.394099,6574
1732.430437,6450
1733.466293,6579
1734.501666,6419
1735.536557,6319
1736.570967,6336
1737.604894,6063
1738.63834,6018
1739.671304,6234
1740.703787,5880
1741.735789,5999
1742.767311,5980
1743.798351,5869
1744.828911,6033
1745.85899,5603
1746.888589,5850
1747.917708,5767
1748.946348,5549
1749.974507,5719
1751.002187,5624
1752.029388,5372
1753.056109,5616
1754.082351,5255
1755.108115,5376
1756.1334,5403
1757.158206,5472
1758.182534,5218
1759.206384,5224
1760.229755,5613
1761.252649,5070
1762.275065,5297
1763.297004,4920
1764.318466,4790
1765.33945,4789
1766.359957,4894
1767.379988,4827
1768.399542,4704
1769.418619,4580
1770.43722,4491
1771.455345,4575
1772.472994,4696
1773.490167,4436
1774.506865,4482
1775.523087,4410
1776.538834,4380
1777.554106,4587
1778.568902,4322
1779.583224,4492
1780.597072,4255
1781.610444,4506
1782.623343,4394
1783.635768,4233
1784.647718,4422
1785.659195,4034
1786.670198,4153
1787.680728,4517
1788.690784,4091
1789.700368,4164
1790.709478,4214
1791.718116,4447
1792.726281,4289
1793.733973,4198
1794.741194,4143
1795.747942,4274
1796.754218,4128
1797.760023,4029
1798.765356,4285
1799.770217,4414
1800.774607,4477
1801.778526,4101
1802.781974,4117
1803.784952,3961
1804.787458,3959
1805.789495,3947
1806.791061,3859
1807.792156,3975
1808.792782,4169
1809.792938,3794
1810.792625,4164
1811.791842,4104
1812.79059,3954
1813.788868,3909
1814.786678,4012
1815.784019,4123
1816.780891,3773
1817.777295,3846
1818.77323,3893
1819.768697,4151
1820.763697,4134
1821.758228,4109
1822.752292,4153
1823.745888,3793
1824.739017,3872
1825.731679,3753
1826.723874,3787
1827.715602,3735
1828.706863,3523
1829.697658,3805
1830.687986,4019
1831.677848,3890
1832.667244,3600
1833.656175,3804
1834.644639,3633
1835.632638,3896
1836.620172,3785
1837.60724,3926
1838.593844,4013
1839.579982,3513
1840.565656,3927
1841.550865,3855
1842.53561,3677
1843.51989,3669
1844.503706,3459
1845.487059,3766
1846.469947,3586
1847.452372,3753
1848.434334,3715
1849.415832,3712
1850.396867,3871
1851.377439,3547
1852.357549,3733
1853.337195,3458
1854.31638,3742
1855.295101,3526
1856.273361,3646
1857.251159,3771
1858.228494,3636
1859.205369,3770
1860.181781,3722
1861.157732,3493
1862.133222,3712
1863.108251,3667
1864.082819,3713
1865.056926,3535
1866.030573,3501
1867.003759,3778
1867.976485,3378
1868.948751,3275
1869.920556,3608
1870.891902,3379
1871.862789,3495
1872.833216,3297
1873.803183,3486
1874.772691,3206
1875.741741,3382
1876.710331,3188
1877.678463,3179
1878.646136,3434
1879.613351,3223
1880.580108,3517
1881.546406,3594
1882.512247,2954
1883.47763,3447
1884.442555,3304
1885.407023,3249
1886.371033,3242
1887.334586,3451
1888.297683,3500
1889.260322,3164
1890.222505,3451
1891.184231,3143
1892.145501,3364
1893.106315,3409
1894.066673,3302
1895.026574,3048
1895.98602,3028
1896.945011,2932
1897.903546,3253
1898.861626,3798
1899.81925,3249
1900.77642,3338
1901.733135,3395
1902.689395,3099
1903.6452,3440
1904.600551,3011
1905.555448,3317
1906.509891,3194
1907.46388,3048
1908.417416,3518
1909.370498,3336
1910.323126,3623
1911.275301,3341
1912.227023,3306
1913.178292,3525
1914.129108,3275
1915.079471,2992
1916.029382,3127
1916.97884,3288
1917.927846,3047
1918.876401,3214
1919.824503,3405
1920.772153,3292
1921.719352,3388
1922.6661,3354
1923.612396,3071
1924.558241,3391
1925.503635,2921
1926.448578,3243
1927.39307,3475
1928.337112,3342
1929.280703,3192
1930.223844,3225
1931.166535,3402
1932.108776,3050
1933.050568,3415
1933.991909,3615
1934.932801,3095
1935.873244,3327
1936.813238,3299
1937.752782,3114
1938.691878,3514
1939.630525,3202
1940.568723,3394
1941.506473,3690
1942.443774,3413
1943.380627,3260
1944.317033,3324
1945.25299,3274
1946.1885,3332
1947.123562,3361
1948.058177,3361
1948.992344,3348
1949.926065,3306
1950.859338,3075
1951.792165,3505
1952.724545,3381
1953.656478,3107
1954.587965,3732
1955.519006,3396
1956.4496,3433
1957.379749,3253
1958.309452,3088
1959.238709,3344
1960.167521,3174
1961.095888,3419
1962.023809,3465
1962.951285,3536
1963.878317,3035
1964.804903,3077
1965.731045,3064
1966.656743,3625
1967.581996,3126
1968.506805,3222
1969.43117,3585
1970.355091,3240
1971.278568,3331
1972.201602,3368
1973.124192,3396
1974.046339,3245
1974.968043,3528
1975.889304,3250
1976.810122,3039
1977.730498,3126
1978.65043,3037
1979.569921,3316
1980.488969,3480
1981.407574,3032
1982.325738,3376
1983.24346,3427
1984.160741,3249
1985.077579,3241
1985.993977,3353
1986.909933,3687
1987.825448,3276
1988.740522,3101
1989.655155,3265
1990.569347,3073
1991.483099,3318
1992.396411,3324
1993.309282,3141
1994.221713,3171
1995.133704,3339
1996.045256,3389
1996.956367,3231
1997.867039,3049
1998.777272,3450
1999.687065,2944
2000.596419,3299
2001.505335,3412
2002.413811,3545
2003.321849,3450
2004.229448,3418
2005.136609,3278
2006.043331,3291
2006.949616,3383
2007.855462,3170
2008.760871,3413
2009.665841,3587
2010.570375,3314
2011.47447,3260
2012.378129,3572
2013.281351,3389
2014.184135,3314
2015.086483,3192
2015.988393,3101
2016.889868,2997
2017.790906,3459
2018.691507,3232
2019.591673,3212
2020.491402,3503
2021.390695,3167
2022.289553,3632
2023.187975,3472
2024.085962,3217
2024.983514,3230
2025.88063,3476
2026.777311,3430
2027.673557,3379
2028.569369,3247
2029.464746,3417
2030.359688,3553
2031.254197,3558
2032.148271,3346
2033.04191,3708
2033.935116,3323
2034.827889,3447
2035.720227,3089
2036.612132,3342
2037.503604,3270
2038.394642,3610
2039.285248,3460
2040.17542,3493
2041.06516,3670
2041.954466,3503
2042.843341,3100
2043.731783,3151
2044.619792,3483
2045.50737,3161
2046.394516,3168
2047.281229,3426
2048.167511,3040
2049.053362,3440
2049.938781,3063
2050.823768,3458
2051.708325,3376
2052.59245,3396
2053.476145,3428
2054.359409,3130
2055.242242,3256
2056.124645,3124
2057.006617,3290
2057.888159,2890
2058.769271,3151
2059.649953,3420
2060.530206,2895
2061.410028,3176
2062.289421,3390
2063.168385,3246
2064.046919,3081
2064.925025,3360
2065.802701,3248
2066.679949,3152
2067.556767,3392
2068.433157,3397
2069.309119,3446
2070.184652,3393
2071.059758,3505
2071.934435,3396
2072.808684,3113
2073.682505,3447
2074.555899,3077
2075.428865,3355
2076.301404,3375
2077.173516,3221
2078.0452,3098
2078.916458,3519
2079.787289,3506
2080.657693,3454
2081.52767,3219
2082.397221,3278
2083.266346,3322
2084.135044,3245
2085.003316,3291
2085.871163,3218
2086.738584,3201
2087.605579,3132
2088.472148,3329
2089.338292,3298
2090.204011,3357
2091.069305,3277
2091.934174,3421
2092.798618,3203
2093.662637,2972
2094.526231,3215
2095.389402,3393
2096.252147,3329
2097.114469,3114
2097.976366,3209
2098.83784,3376
2099.69889,3243
2100.559516,3125
2101.419719,3401
2102.279498,3155
2103.138854,3243
2103.997786,3136
2104.856296,3279
2105.714383,3457
2106.572047,3466
2107.429289,3192
2108.286108,3362
2109.142504,3308
2109.998479,3257
2110.854031,3358
2111.709161,2871
2112.56387,2834
2113.418156,3075
2114.272021,3247
2115.125465,3002
2115.978487,3284
2116.831089,3145
2117.683269,3178
2118.535028,3378
2119.386366,3005
2120.237284,3204
2121.087781,2949
2121.937857,3119
2122.787514,2948
2123.63675,3013
2124.485566,3167
2125.333962,3101
2126.181939,3140
2127.029496,3192
2127.876633,3203
2128.723351,3012
2129.569649,3125
2130.415529,3070
2131.260989,2818
2132.106031,2924
2132.950654,2877
2133.794858,2689
2134.638643,2850
2135.482011,2755
2136.32496,2765
2137.167491,3069
2138.009604,2809
2138.851299,3013
2139.692576,2974
2140.533436,3315
2141.373878,2435
2142.213903,3021
2143.05351,2793
2143.892701,2726
2144.731474,2880
2145.569831,2890
2146.407771,2767
2147.245294,2867
2148.082401,3152
2148.919091,2912
2149.755365,2689
2150.591224,2548
2151.426666,2684
2152.261692,2674
2153.096302,2797
2153.930497,2715
2154.764277,2505
2155.597641,2520
2156.43059,2827
2157.263124,2977
2158.095242,2684
2158.926946,2723
2159.758236,2431
2160.58911,2554
2161.41957,2823
2162.249616,2686
2163.079248,2576
2163.908465,2744
2164.737269,2658
2165.565658,2340
2166.393634,2519
2167.221196,2436
2168.048345,2423
2168.87508,2663
2169.701402,2539
2170.527311,2544
2171.352807,2838
2172.177891,2482
2173.002561,2590
2173.826819,2650
2174.650664,2781
2175.474097,2537
2176.297117,2315
2177.119726,2501
2177.941922,2651
2178.763707,2589
2179.58508,2641
2180.406041,2544
2181.22659,2449
2182.046729,2444
2182.866456,2417
2183.685771,2675
2184.504676,2386
2185.32317,2655
2186.141253,2314
2186.958925,2317
2187.776187,2220
2188.593038,2246
2189.409479,2550
2190.22551,2426
2191.041131,2461
2191.856342,2169
2192.671143,2690
2193.485534,2400
2194.299516,2182
2195.113088,2481
2195.926251,2259
2196.739005,2147
2197.551349,2245
2198.363285,2192
2199.174812,1989
2199.98593,2072
2200.796639,1948
2201.60694,2287
2202.416832,2085
2203.226317,2319
2204.035393,2182
2204.844061,2100
2205.652321,2250
2206.460173,2425
2207.267618,1932
2208.074655,2035
2208.881285,1964
2209.687507,2146
2210.493322,2287
2211.29873,2182
2212.103732,2142
2212.908326,1964
2213.712513,1990
2214.516294,2088
2215.319669,2197
2216.122637,1958
2216.925199,1811
2217.727355,2090
2218.529105,2055
2219.330449,1987
2220.131387,2122
2220.931919,1846
2221.732046,2072
2222.531768,1642
2223.331084,1880
2224.129995,1850
2224.928501,1877
2225.726602,2204
2226.524298,1764
2227.321589,2049
2228.118476,1957
2228.914959,1699
2229.711037,1729
2230.50671,1812
2231.30198,1931
2232.096846,1859
2232.891307,1920
2233.685365,2141
2234.479019,1942
2235.27227,1698
2236.065117,2114
2236.857561,1969
2237.649602,1545
2238.441239,1802
2239.232474,1554
2240.023306,2129
2240.813735,1833
2241.603761,1751
2242.393385,1758
2243.182607,1861
2243.971426,1919
2244.759843,1865
2245.547858,1762
2246.335471,1878
2247.122682,1717
2247.909492,1966
2248.6959,1673
2249.481906,1851
2250.267511,1667
2251.052715,1663
2251.837518,1688
2252.621919,1899
2253.40592,1646
2254.18952,1858
2254.972719,1858
2255.755518,1771
2256.537916,1398
2257.319914,1841
2258.101512,1456
2258.88271,1608
2259.663507,1998
2260.443905,1473
2261.223903,1737
2262.003501,1576
2262.7827,1690
2263.561499,1648
2264.339899,1497
2265.1179,1231
2265.895501,1496
2266.672704,1523
2267.449508,1690
2268.225913,1495
2269.001919,1550
2269.777527,1209
2270.552737,1450
2271.327548,1603
2272.101961,1420
2272.875975,1718
2273.649592,1243
2274.422811,1434
2275.195632,1280
2275.968056,1387
2276.740082,1390
2277.511711,1786
2278.282942,1548
2279.053776,1413
2279.824213,1472
2280.594253,1464
2281.363897,1556
2282.133143,1630
2282.901993,1643
2283.670446,1567
2284.438503,1390
2285.206164,1066
2285.973428,1374
2286.740296,1444
2287.506769,1312
2288.272845,1372
2289.038526,1354
2289.803811,1545
2290.5687,1525
2291.333194,1471
2292.097293,1639
2292.860997,1081
2293.624305,1297
2294.387219,1411
2295.149737,1090
2295.911861,1292
2296.67359,1339
2297.434925,1361
2298.195865,1298
2298.956411,1035
2299.716562,1712
2300.47632,1180
2301.235683,1305
2301.994653,1426
2302.753229,1518
2303.511411,1335
2304.269199,1411
2305.026594,1125
2305.783596,1265
2306.540204,1400
2307.29642,1098
2308.052242,1452
2308.807671,1315
2309.562708,1361
2310.317351,1551
2311.071603,1181
2311.825461,1308
2312.578928,1080
2313.332002,1345
2314.084684,1270
2314.836973,1153
2315.588871,1177
2316.340377,992
2317.091491,1143
2317.842214,1235
2318.592545,1205
2319.342485,1363
2320.092033,1251
2320.84119,1072
2321.589956,1052
2322.338331,1471
2323.086315,882
2323.833908,1080
2324.581111,1166
2325.327923,1134
2326.074345,1150
2326.820376,1570
2327.566017,1155
2328.311268,1016
2329.056129,1114
2329.800599,1345
2330.54468,1341
2331.288372,1142
2332.031673,1077
2332.774585,1413
2333.517108,1175
2334.259242,1435
2335.000986,1102
2335.742341,1149
2336.483307,1093
2337.223884,1078
2337.964073,1090
2338.703872,1017
2339.443283,1253
2340.182306,1051
2340.92094,1190
2341.659187,1017
2342.397044,889
2343.134514,1171
2343.871596,868
2344.60829,861
2345.344597,821
2346.080515,1123
2346.816046,1050
2347.55119,1591
2348.285946,1033
2349.020316,713
2349.754298,998
2350.487893,683
2351.221101,1092
2351.953922,1327
2352.686356,975
2353.418404,1019
2354.150066,1070
2354.881341,1121
2355.61223,1040
2356.342732,978
2357.072849,1068
2357.802579,989
2358.531924,879
2359.260883,770
2359.989456,840
2360.717643,1293
2361.445445,827
2362.172862,1130
2362.899893,1016
2363.626539,1071
2364.352801,1107
2365.078677,1122
2365.804168,1186
2366.529275,1055
2367.253996,1072
2367.978334,910
2368.702286,1013
2369.425855,700
2370.149039,966
2370.871839,783
2371.594255,1008
2372.316287,767
2373.037935,1042
2373.7592,842
2374.48008,1112
2375.200578,1171
2375.920691,970
2376.640422,735
2377.359769,590
2378.078733,487
2378.797314,808
2379.515511,773
2380.233327,804
2380.950759,957
2381.667808,1026
2382.384476,969
2383.10076,1037
2383.816663,921
2384.532183,859
2385.24732,799
2385.962076,549
2386.67645,523
2387.390442,1003
2388.104052,690
2388.817281,622
2389.530128,839
2390.242593,820
2390.954677,1020
2391.66638,651
2392.377702,854
2393.088643,592
2393.799202,840
2394.509381,754
2395.219179,926
2395.928596,866
2396.637633,770
2397.346289,690
2398.054565,888
2398.762461,457
2399.469976,470
2400.177111,555
2400.883867,399
2401.590242,713
2402.296238,629
2403.001854,489
2403.70709,746
2404.411947,470
2405.116424,641
2405.820522,655
2406.524241,653
2407.227581,553
2407.930542,201
2408.633123,813
2409.335326,400
2410.037151,329
