Wave shift,Intensity
-31.722347,9812
-29.886687,11071
-28.051868,12781
-26.217889,14337
-24.384749,16708
-22.552448,19323
-20.720985,21935
-18.890361,24676
-17.060575,27839
-15.231626,31293
-13.403514,36897
-11.576239,42500
-9.749799,47746
-7.924195,45527
-6.099426,37441
-4.275492,37042
-2.452392,41382
-0.630127,37024
1.191306,33846
3.011906,33011
4.831672,38460
6.650607,41236
8.46871,28850
10.285982,24350
12.102423,22210
13.918034,20627
15.732815,18703
17.546766,18568
19.359888,18328
21.172181,15482
22.983647,12600
24.794284,10850
26.604094,10495
28.413077,9991
30.221233,8632
32.028563,7053
33.835068,5576
35.640747,5166
37.445602,4807
39.249632,4511
41.052838,4124
42.855221,4045
44.656781,3608
46.457517,3692
48.257432,3718
50.056525,3459
51.854796,3831
53.652246,3281
55.448876,3479
57.244685,3560
59.039675,3829
60.833846,3513
62.627197,3954
64.41973,3816
66.211446,3989
68.002343,4171
69.792423,4468
71.581687,4518
73.370134,4773
75.157765,5492
76.944581,5854
78.730581,6213
80.515767,7332
82.300139,7732
84.083697,8857
85.866441,9566
87.648372,10973
89.429491,12217
91.209797,14021
92.989292,15885
94.767976,18444
96.545848,21661
98.32291,25100
100.099162,30578
101.874604,28621
103.649237,32592
105.423061,32644
107.196077,37358
108.968284,36284
110.739684,35335
112.510277,33713
114.280063,33071
116.049042,33098
117.817216,36697
119.584584,43612
121.351147,39163
123.116905,37540
124.881859,38412
126.646009,29583
128.409356,42333
130.171899,41190
131.93364,38881
133.694578,28129
135.454715,35128
137.21405,34049
138.972584,29918
140.730317,44081
142.48725,37005
144.243384,26737
145.998718,35629
147.753252,30134
149.506989,35677
151.259927,37321
153.012067,43277
154.76341,33663
156.513956,40742
158.263705,36617
160.012659,37595
161.760816,31175
163.508178,36970
165.254745,34782
167.000518,37495
168.745496,38812
170.489681,36280
172.233072,36662
173.975671,43116
175.717476,29382
177.45849,38009
179.198712,30703
180.938142,36530
182.676782,31033
184.414631,37786
186.15169,34797
187.887959,29958
189.623439,40398
191.35813,31421
193.092032,35944
194.825147,34513
196.557473,33882
198.289012,35690
200.019764,33891
201.74973,32453
203.478909,35963
205.207303,36366
206.934911,38416
208.661735,39000
210.387773,33175
212.113028,31898
213.837499,31520
215.561186,34941
217.28409,35625
219.006212,33150
220.727552,33742
222.44811,38255
224.167886,37981
225.886881,33889
227.605096,35166
229.32253,32486
231.039185,32688
232.75506,30917
234.470156,24433
236.184473,33392
237.898012,29672
239.610773,30017
241.322757,37799
243.033964,37071
244.744393,29627
246.454047,35121
248.162924,32083
249.871026,32092
251.578353,34954
253.284905,31740
254.990683,40705
256.695686,32700
258.399916,35989
260.103373,36804
261.806057,36577
263.507968,39401
265.209107,33667
266.909475,32657
268.609071,33623
270.307897,29201
272.005952,34733
273.703236,35534
275.399751,34223
277.095497,32878
278.790473,38853
280.484681,31705
282.178121,34196
283.870793,39060
285.562697,31142
287.253835,40685
288.944205,39097
290.633809,31417
292.322648,32795
294.010721,36832
295.698028,38883
297.384571,40271
299.070349,38267
300.755364,39790
302.439614,35193
304.123102,35134
305.805826,37404
307.487788,35840
309.168988,35482
310.849426,40367
312.529103,33512
314.208018,33421
315.886173,23353
317.563568,36656
319.240203,37796
320.916079,40187
322.591195,36809
324.265552,38963
325.939151,35571
327.611993,35301
329.284076,35948
330.955402,37071
332.625972,42444
334.295785,37398
335.964841,34909
337.633142,32143
339.300688,38684
340.967479,30931
342.633515,38196
344.298796,36155
345.963324,36982
347.627098,35937
349.29012,40766
350.952388,36085
352.613904,37848
354.274668,34638
355.93468,34143
357.593941,38568
359.252451,38847
360.910211,31553
362.56722,37134
364.22348,33822
365.87899,30893
367.533751,41078
369.187763,35763
370.841027,34140
372.493543,37216
374.145311,42473
375.796332,38240
377.446607,23564
379.096134,42613
380.744916,35001
382.392952,32059
384.040242,38095
385.686787,46943
387.332588,37345
388.977645,40427
390.621957,36778
392.265526,42172
393.908351,31930
395.550434,40299
397.191775,38360
398.832373,29292
400.472229,39927
402.111344,43690
403.749718,43438
405.387351,39599
407.024244,30755
408.660397,38428
410.295811,40756
411.930485,41814
413.56442,40310
415.197617,47990
416.830076,26859
418.461796,41205
420.09278,40808
421.723026,37224
423.352536,30448
424.981309,32978
426.609346,38179
428.236648,36359
429.863214,41811
431.489046,44239
433.114143,30310
434.738505,40564
436.362134,33558
437.98503,31916
439.607192,36460
441.228621,33462
442.849318,39015
444.469283,31996
446.088516,37917
447.707018,33315
449.324789,28684
450.941829,35956
452.558139,32539
454.173719,38725
455.78857,8048
457.402691,36937
459.016083,39091
460.628747,38488
462.240682,39897
463.85189,39725
465.46237,36939
467.072124,39990
468.68115,32155
470.28945,40085
471.897024,34407
473.503872,34704
475.109995,40462
476.715393,35654
478.320066,40637
479.924015,34810
481.52724,36969
483.129741,36058
484.731519,33378
486.332575,39183
487.932907,27982
489.532517,37815
491.131406,31650
492.729573,31500
494.327019,37276
495.923744,37530
497.519748,29614
499.115033,36028
500.709597,39617
502.303442,38713
503.896568,37092
505.488976,35436
507.080665,38879
508.671635,38469
510.261889,29845
511.851424,37039
513.440243,33459
515.028345,38650
516.615731,39421
518.202401,37601
519.788355,35542
521.373593,42520
522.958117,36294
524.541926,29831
526.125021,36759
527.707402,30664
529.28907,37525
530.870024,25946
532.450265,30928
534.029794,36046
535.60861,35105
537.186715,42389
538.764108,32926
540.340789,30311
541.91676,39188
543.492021,39911
545.066571,33951
546.640411,35318
548.213542,32204
549.785964,31693
551.357676,40484
552.928681,35780
554.498977,44682
556.068565,32947
557.637446,41441
559.20562,44315
560.773087,40517
562.339847,36640
563.905901,34080
565.47125,32643
567.035893,31574
568.599831,32897
570.163064,37369
571.725593,36947
573.287417,38118
574.848538,41952
576.408955,36003
577.968669,33703
579.52768,36546
581.085989,31968
582.643596,39773
584.200501,37452
585.756704,32732
587.312207,42566
588.867008,39265
590.42111,39329
591.974511,34755
593.527212,35807
595.079214,31140
596.630516,39299
598.18112,39929
599.731025,25216
601.280232,36432
602.828742,39619
604.376554,37252
605.923668,39235
607.470086,33657
609.015808,41687
610.560833,36762
612.105162,39175
613.648796,36164
615.191735,35289
616.733979,33640
618.275528,42517
619.816383,32938
621.356544,31669
622.896012,37783
624.434787,39031
625.972868,33531
627.510257,34300
629.046954,39143
630.582959,33578
632.118272,33744
633.652894,40908
635.186825,37653
636.720066,38008
638.252616,33714
639.784476,40521
641.315647,31656
642.846128,30257
644.37592,33431
645.905024,33604
647.433439,28565
648.961166,39510
650.488206,39341
652.014558,31398
653.540223,32949
655.065201,36019
656.589493,37973
658.113099,35595
659.636019,35828
661.158253,35261
662.679803,37949
664.200668,36295
665.720848,37581
667.240344,37572
668.759156,35285
670.277284,34930
671.79473,37188
673.311492,36106
674.827572,36609
676.34297,36824
677.857686,34212
679.37172,36539
680.885072,28710
682.397744,35856
683.909735,35871
685.421046,34477
686.931677,35793
688.441628,31272
689.950899,35349
691.459492,35320
692.967406,35473
694.474641,35304
695.981198,35200
697.487078,17557
698.992279,34817
700.496804,35081
702.000652,34693
703.503823,30110
705.006318,30843
706.508137,34473
708.00928,32670
709.509748,34738
711.009541,34531
712.50866,34428
714.007104,31841
715.504874,30390
717.00197,34132
718.498393,33927
719.994142,34019
721.489219,33858
722.983624,33585
724.477356,33703
725.970416,30259
727.462805,33503
728.954522,32569
730.445569,26126
731.935944,33279
733.42565,33137
734.914685,33270
736.403051,33190
737.890748,32931
739.377775,33044
740.864133,28534
742.349823,32954
743.834845,32534
745.319199,32921
746.802886,33101
748.285905,32610
749.768257,32778
751.249943,32618
752.730962,32906
754.211315,32532
755.691003,31934
757.170025,32630
758.648382,30420
760.126075,31982
761.603102,31637
763.079466,32102
764.555166,31686
766.030202,31639
767.504575,31608
768.978285,31285
770.451332,31352
771.923717,31420
773.39544,31522
774.866501,31187
776.3369,31196
777.806639,30817
779.275716,30781
780.744134,30354
782.21189,30439
783.678987,30129
785.145425,29306
786.611203,29744
788.076322,29562
789.540782,29510
791.004583,29054
792.467727,28790
793.930213,28805
795.392041,28088
796.853212,28322
798.313726,28412
799.773584,28336
801.232785,27861
802.69133,28041
804.14922,27634
805.606454,27375
807.063032,27133
808.518956,27302
809.974226,27211
811.428841,26736
812.882802,26388
814.33611,26570
815.788764,26618
817.240766,26058
818.692114,26383
820.14281,25605
821.592854,26082
823.042246,26084
824.490986,25806
825.939075,25781
827.386514,25792
828.833301,25754
830.279438,25231
831.724925,25070
833.169762,25371
834.61395,25347
836.057488,25224
837.500378,24798
838.942619,24844
840.384212,24882
841.825156,24710
843.265453,25011
844.705102,17857
846.144105,24721
847.58246,24300
849.020169,24532
850.457231,24465
851.893648,23939
853.329418,24126
854.764544,23811
856.199024,24101
857.632859,23705
859.06605,23654
860.498597,23678
861.9305,23724
863.361759,23384
864.792374,23165
866.222347,23202
867.651677,22928
869.080364,22805
870.508409,22815
871.935812,22576
873.362574,22234
874.788694,22547
876.214173,22076
877.639011,21873
879.063209,22121
880.486766,21746
881.909684,22108
883.331962,21825
884.753601,21844
886.174601,21964
887.594961,21482
889.014684,21455
890.433768,21935
891.852214,21585
893.270023,21187
894.687194,21788
896.103729,21465
897.519626,20920
898.934887,21458
900.349512,21226
901.763501,20991
903.176854,20834
904.589572,20491
906.001655,20448
907.413103,20214
908.823917,20091
910.234096,19934
911.643642,20072
913.052554,19929
914.460832,19776
915.868477,19916
917.27549,19654
918.68187,19755
920.087618,19819
921.492734,19345
922.897218,18963
924.301071,19664
925.704292,19245
927.106883,18714
928.508844,18757
929.910174,18548
931.310874,18629
932.710944,18453
934.110385,18554
935.509197,18211
936.907379,18331
938.304934,18314
939.70186,18002
941.098158,17652
942.493828,17816
943.88887,17956
945.283286,17668
946.677075,17674
948.070236,17491
949.462772,17807
950.854681,17709
952.245965,17859
953.636623,17740
955.026656,17859
956.416064,17578
957.804847,17915
959.193006,17161
960.58054,17427
961.967451,17333
963.353738,17272
964.739402,17580
966.124442,17230
967.50886,17190
968.892656,17246
970.275829,17099
971.65838,17225
973.04031,17228
974.421618,17164
975.802305,16934
977.182371,17072
978.561816,17037
979.940641,17221
981.318846,17467
982.696432,17506
984.073398,16775
985.449744,17170
986.825472,17191
988.200581,16959
989.575072,17468
990.948944,17203
992.322199,16994
993.694836,17325
995.066855,17081
996.438258,16927
997.809044,17032
999.179213,17040
1000.548766,16841
1001.917703,17303
1003.286024,17136
1004.65373,17021
1006.020821,16945
1007.387297,17186
1008.753158,17375
1010.118405,17325
1011.483038,17321
1012.847057,17029
1014.210462,17370
1015.573254,16961
1016.935433,16751
1018.296999,17070
1019.657953,17068
1021.018295,16856
1022.378025,16797
1023.737143,16815
1025.095649,16892
1026.453544,16781
1027.810829,16483
1029.167503,16643
1030.523566,16778
1031.87902,16889
1033.233863,16826
1034.588097,16404
1035.941722,16802
1037.294738,16324
1038.647145,16722
1039.998943,16590
1041.350133,16767
1042.700716,16632
1044.05069,16567
1045.400057,16572
1046.748817,16436
1048.09697,16694
1049.444516,16937
1050.791456,16983
1052.13779,17057
1053.483518,16863
1054.82864,17110
1056.173157,17128
1057.517069,17370
1058.860376,17409
1060.203079,17363
1061.545177,17818
1062.886671,17333
1064.227562,17548
1065.567848,17219
1066.907532,17148
1068.246613,17176
1069.585091,17046
1070.922966,17069
1072.260239,17256
1073.596911,16503
1074.93298,16827
1076.268448,16662
1077.603315,16249
1078.937581,16689
1080.271247,16313
1081.604312,16195
1082.936776,15996
1084.268641,16009
1085.599907,15805
1086.930573,15507
1088.260639,15747
1089.590107,15531
1090.918977,15638
1092.247248,16224
1093.574921,15425
1094.901996,15581
1096.228474,15873
1097.554354,15614
1098.879637,15853
1100.204323,15629
1101.528413,15830
1102.851907,16165
1104.174804,15894
1105.497106,16036
1106.818812,15962
1108.139923,15986
1109.460439,16169
1110.78036,16106
1112.099687,16259
1113.41842,15936
1114.736558,16104
1116.054103,16017
1117.371054,16112
1118.687412,16484
1120.003177,16113
1121.318349,16551
1122.632929,16090
1123.946916,16439
1125.260312,16421
1126.573116,16233
1127.885328,16202
1129.196949,16028
1130.507979,15994
1131.818419,15692
1133.128268,15307
1134.437527,15580
1135.746195,15251
1137.054275,15182
1138.361764,14993
1139.668665,14638
1140.974976,14689
1142.280699,14841
1143.585833,14232
1144.890379,14266
1146.194337,13934
1147.497708,14386
1148.800491,14024
1150.102687,13885
1151.404295,13848
1152.705318,13972
1154.005753,14054
1155.305603,14171
1156.604866,13967
1157.903544,14005
1159.201636,14183
1160.499143,13684
1161.796065,13679
1163.092402,13972
1164.388155,13551
1165.683324,13971
1166.977908,13639
1168.271909,13483
1169.565326,13841
1170.85816,13622
1172.150411,13880
1173.44208,13339
1174.733165,13747
1176.023669,13724
1177.31359,13600
1178.60293,13431
1179.891688,13504
1181.179865,13354
1182.467461,13071
1183.754476,13199
1185.04091,13249
1186.326765,13407
1187.612039,13182
1188.896733,13327
1190.180848,13586
1191.464383,13459
1192.747339,13375
1194.029717,13440
1195.311515,13515
1196.592736,13652
1197.873378,13270
1199.153442,13643
1200.432929,13535
1201.711838,13486
1202.990171,13395
1204.267926,13418
1205.545105,13529
1206.821707,13344
1208.097733,13598
1209.373183,13596
1210.648057,12950
1211.922356,13635
1213.196079,13195
1214.469228,13202
1215.741802,13503
1217.013801,13302
1218.285226,13121
1219.556077,13139
1220.826355,13330
1222.096058,13408
1223.365189,13222
1224.633746,12883
1225.90173,12872
1227.169142,13060
1228.435982,13163
1229.702249,13086
1230.967945,12904
1232.233069,12883
1233.497621,13035
1234.761602,12451
1236.025013,12830
1237.287852,12585
1238.550121,12864
1239.81182,12715
1241.072949,12823
1242.333509,12718
1243.593498,12624
1244.852919,12737
1246.11177,12841
1247.370053,12642
1248.627767,12574
1249.884912,12963
1251.14149,12487
1252.397499,13019
1253.652942,12698
1254.907816,12700
1256.162124,12872
1257.415864,12660
1258.669038,12814
1259.921646,12804
1261.173687,12883
1262.425162,12511
1263.676071,12847
1264.926415,13156
1266.176194,12991
1267.425408,13047
1268.674056,12834
1269.92214,12736
1271.16966,12863
1272.416616,12784
1273.663008,12825
1274.908836,12828
1276.1541,12671
1277.398802,12872
1278.64294,12791
1279.886516,12453
1281.129529,12731
1282.37198,12463
1283.613869,12619
1284.855196,12556
1286.095962,12332
1287.336166,12134
1288.575809,12197
1289.814891,12023
1291.053413,12407
1292.291374,12125
1293.528775,12090
1294.765616,12304
1296.001897,12104
1297.237618,12139
1298.472781,12068
1299.707384,12092
1300.941428,12289
1302.174914,12223
1303.407842,12589
1304.640211,12031
1305.872022,12311
1307.103276,12416
1308.333972,11981
1309.564111,12084
1310.793693,12108
1312.022719,12049
1313.251187,12035
1314.4791,12311
1315.706456,12107
1316.933256,12131
1318.159501,12319
1319.38519,12582
1320.610324,12335
1321.834903,12043
1323.058928,12401
1324.282398,12123
1325.505313,12334
1326.727675,12326
1327.949482,12400
1329.170736,12403
1330.391437,12569
1331.611584,12302
1332.831179,12258
1334.050221,12595
1335.26871,11988
1336.486647,12135
1337.704032,12338
1338.920865,12238
1340.137147,12403
1341.352877,12061
1342.568056,12158
1343.782684,12116
1344.996761,12150
1346.210288,11811
1347.423265,11824
1348.635691,12044
1349.847568,11849
1351.058895,11712
1352.269673,11887
1353.479901,11689
1354.689581,11773
1355.898712,11719
1357.107294,11757
1358.315329,11772
1359.522815,11959
1360.729753,11862
1361.936144,12048
1363.141987,11795
1364.347283,11963
1365.552032,12048
1366.756235,11640
1367.959891,11509
1369.163,11822
1370.365564,11851
1371.567582,11801
1372.769054,11665
1373.96998,11610
1375.170362,11784
1376.370198,11558
1377.56949,11754
1378.768237,11499
1379.96644,11706
1381.164099,11765
1382.361214,11758
1383.557785,11262
1384.753813,11605
1385.949297,11538
1387.144239,11543
1388.338637,11250
1389.532493,11438
1390.725807,11113
1391.918579,11370
1393.110808,11251
1394.302496,10732
1395.493643,11084
1396.684248,10855
1397.874312,10902
1399.063835,10687
1400.252818,10891
1401.44126,10605
1402.629162,10587
1403.816524,10366
1405.003346,10699
1406.189629,10530
1407.375372,10545
1408.560576,10727
1409.745241,10402
1410.929368,10322
1412.112956,10466
1413.296006,10811
1414.478517,10497
1415.660491,10462
1416.841927,10430
1418.022826,10382
1419.203188,10823
1420.383012,10387
1421.5623,10368
1422.741051,10326
1423.919266,10320
1425.096945,10335
1426.274088,10316
1427.450695,10169
1428.626766,10574
1429.802302,10255
1430.977303,10464
1432.15177,10561
1433.325701,10341
1434.499098,10648
1435.671961,10574
1436.84429,10533
1438.016085,10375
1439.187347,10339
1440.358075,9953
1441.528269,10422
1442.697931,10433
1443.86706,10443
1445.035657,10155
1446.203721,10385
1447.371253,10092
1448.538253,10119
1449.704721,10301
1450.870658,10493
1452.036064,10004
1453.200938,10207
1454.365282,10163
1455.529094,10415
1456.692377,10363
1457.855129,10365
1459.017351,10240
1460.179043,10118
1461.340206,10471
1462.500839,10054
1463.660943,10263
1464.820517,10341
1465.979563,9726
1467.138081,-86
1468.29607,10094
1469.453531,9658
1470.610464,9667
1471.766869,9420
1472.922746,9571
1474.078096,9610
1475.232919,9580
1476.387215,9397
1477.540985,9139
1478.694227,9244
1479.846944,9376
1480.999134,9243
1482.150798,9330
1483.301937,9364
1484.45255,9481
1485.602637,9621
1486.7522,9570
1487.901238,9248
1489.049751,9361
1490.197739,9662
1491.345203,9234
1492.492144,9296
1493.63856,9435
1494.784452,9350
1495.929821,9542
1497.074667,9204
1498.21899,9521
1499.36279,9479
1500.506067,9718
1501.648821,9330
1502.791054,9367
1503.932764,9558
1505.073953,9423
1506.21462,9338
1507.354765,9736
1508.494389,9570
1509.633492,9274
1510.772074,9737
1511.910136,9668
1513.047677,9751
1514.184698,9414
1515.321198,9898
1516.457179,9656
1517.592641,9793
1518.727582,9717
1519.862005,9754
1520.995909,9820
1522.129293,9345
1523.262159,9907
1524.394507,9727
1525.526336,9752
1526.657647,9911
1527.788441,10072
1528.918717,9834
1530.048475,9917
1531.177716,9883
1532.30644,9768
1533.434647,9999
1534.562338,10018
1535.689512,10155
1536.816169,10264
1537.942311,10241
1539.067937,10329
1540.193047,10216
1541.317642,10157
1542.441721,10065
1543.565285,10461
1544.688335,10216
1545.81087,10285
1546.93289,10140
1548.054396,10493
1549.175388,10467
1550.295866,10591
1551.41583,10502
1552.535281,10687
1553.654218,10844
1554.772643,10972
1555.890554,10895
1557.007953,10788
1558.124839,10614
1559.241213,10437
1560.357075,11175
1561.472424,11131
1562.587262,10755
1563.701589,11168
1564.815404,11002
1565.928708,10960
1567.041501,10936
1568.153783,11253
1569.265555,11061
1570.376816,11280
1571.487567,11093
1572.597808,11069
1573.707539,11378
1574.816761,10959
1575.925473,11769
1577.033676,11554
1578.14137,11427
1579.248555,11744
1580.355231,11288
1581.461399,11446
1582.567059,11676
1583.672211,11564
1584.776854,11801
1585.88099,11925
1586.984619,12212
1588.08774,12313
1589.190354,12199
1590.292462,12507
1591.394062,12778
1592.495156,12685
1593.595744,12541
1594.695825,12714
1595.795401,12426
1596.89447,12886
1597.993034,12804
1599.091093,13134
1600.188647,13252
1601.285695,13470
1602.382239,13258
1603.478278,13531
1604.573812,13900
1605.668843,13717
1606.763369,13926
1607.857391,14314
1608.95091,14279
1610.043925,14457
1611.136437,14398
1612.228446,14262
1613.319952,14702
1614.410955,14913
1615.501455,14943
1616.591453,15190
1617.680949,14854
1618.769943,15278
1619.858435,15233
1620.946426,15325
1622.033915,15588
1623.120903,15726
1624.20739,15940
1625.293376,15724
1626.378861,15622
1627.463845,15767
1628.54833,15880
1629.632314,16017
1630.715799,16053
1631.798783,15888
1632.881268,16148
1633.963254,16019
1635.04474,15642
1636.125728,16059
1637.206216,16015
1638.286206,16109
1639.365698,16127
1640.444691,15738
1641.523187,15843
1642.601184,15841
1643.678683,16047
1644.755686,15927
1645.83219,15712
1646.908198,15559
1647.983708,15701
1649.058722,15538
1650.133239,15582
1651.20726,15719
1652.280785,15358
1653.353813,15215
1654.426346,15308
1655.498383,14922
1656.569924,15123
1657.64097,14914
1658.711521,14916
1659.781577,14725
1660.851139,14682
1661.920205,14867
1662.988777,14194
1664.056855,14327
1665.124439,14090
1666.191529,14050
1667.258126,13907
1668.324229,13716
1669.389838,13521
1670.454955,13074
1671.519578,13188
1672.583709,12972
1673.647347,12695
1674.710493,12694
1675.773147,12318
1676.835308,12367
1677.896978,12237
1678.958155,12150
1680.018842,11688
1681.079037,11432
1682.138741,11396
1683.197954,11176
1684.256676,11078
1685.314908,10667
1686.372649,10709
1687.4299,10591
1688.48666,10569
1689.542931,10190
1690.598713,10184
1691.654004,9984
1692.708807,10131
1693.76312,9655
1694.816944,9550
1695.870279,9723
1696.923126,9371
1697.975484,9404
1699.027354,9252
1700.078736,9302
1701.12963,9031
1702.180036,8754
1703.229955,8911
1704.279386,8533
1705.32833,8328
1706.376787,8410
1707.424757,8364
1708.47224,7827
1709.519237,8019
1710.565748,8057
1711.611772,7884
1712.65731,7879
1713.702363,7503
1714.74693,7719
1715.791011,7661
1716.834608,7451
1717.877719,7580
1718.920345,7464
1719.962486,7178
1721.004143,7284
1722.045316,6713
1723.086004,7239
1724.126208,7039
1725.165929,7016
1726.205165,6567
1727.243918,6664
1728.282188,6688
1729.319975,6681
1730.357278,6535
1731.394099,6565
1732.430437,6321
1733.466293,6379
1734.501666,6329
1735.536557,6140
1736.570967,6344
1737.604894,5913
1738.63834,6086
1739.671304,5988
1740.703787,5827
1741.735789,5701
1742.767311,6039
1743.798351,5934
1744.828911,5721
1745.85899,5471
1746.888589,5641
1747.917708,5773
1748.946348,5632
1749.974507,5453
1751.002187,5506
1752.029388,5174
1753.056109,5417
1754.082351,5077
1755.108115,5158
1756.1334,5146
1757.158206,5382
1758.182534,5089
1759.206384,5097
1760.229755,5192
1761.252649,5004
1762.275065,5086
1763.297004,4666
1764.318466,4619
1765.33945,4923
1766.359957,4873
1767.379988,4682
1768.399542,4640
1769.418619,4559
1770.43722,4442
1771.455345,4455
1772.472994,4634
1773.490167,4457
1774.506865,4492
1775.523087,4432
1776.538834,4213
1777.554106,4450
1778.568902,4361
1779.583224,4333
1780.597072,4061
1781.610444,4409
1782.623343,4176
1783.635768,4231
1784.647718,4043
1785.659195,4072
1786.670198,4197
1787.680728,4397
1788.690784,4271
1789.700368,4239
1790.709478,4095
1791.718116,4332
1792.726281,4234
1793.733973,4047
1794.741194,4035
1795.747942,4077
1796.754218,4173
1797.760023,4004
1798.765356,4154
1799.770217,4172
1800.774607,4181
1801.778526,3930
1802.781974,4127
1803.784952,4058
1804.787458,4089
1805.789495,3740
1806.791061,3710
1807.792156,4106
1808.792782,3924
1809.792938,3680
1810.792625,3713
1811.791842,3984
1812.79059,3960
1813.788868,3869
1814.786678,3887
1815.784019,3900
1816.780891,3657
1817.777295,3781
1818.77323,3666
1819.768697,4023
1820.763697,4073
1821.758228,3885
1822.752292,3825
1823.745888,3726
1824.739017,3767
1825.731679,3609
1826.723874,3897
1827.715602,3845
1828.706863,3486
1829.697658,3747
1830.687986,3990
1831.677848,4016
1832.667244,3499
1833.656175,3542
1834.644639,3754
1835.632638,3974
1836.620172,3697
1837.60724,3630
1838.593844,3748
1839.579982,3390
1840.565656,3832
1841.550865,3766
1842.53561,3714
1843.51989,3367
1844.503706,3442
1845.487059,3481
1846.469947,3534
1847.452372,3816
1848.434334,3637
1849.415832,3622
1850.396867,3647
1851.377439,3590
1852.357549,3553
1853.337195,3412
1854.31638,3730
1855.295101,3398
1856.273361,3436
1857.251159,3563
1858.228494,3737
1859.205369,3550
1860.181781,3640
1861.157732,3399
1862.133222,3628
1863.108251,3524
1864.082819,3698
1865.056926,3209
1866.030573,3402
1867.003759,3761
1867.976485,3381
1868.948751,3200
1869.920556,3328
1870.891902,3294
1871.862789,3355
1872.833216,3207
1873.803183,3271
1874.772691,3337
1875.741741,3246
1876.710331,3141
1877.678463,3350
1878.646136,3143
1879.613351,3133
1880.580108,3300
1881.546406,3303
1882.512247,3014
1883.47763,3240
1884.442555,3486
1885.407023,3253
1886.371033,3309
1887.334586,3432
1888.297683,3255
1889.260322,3440
1890.222505,3096
1891.184231,2993
1892.145501,3113
1893.106315,3073
1894.066673,3135
1895.026574,3019
1895.98602,2890
1896.945011,3149
1897.903546,3014
1898.861626,3003
1899.81925,3109
1900.77642,3256
1901.733135,3096
1902.689395,3160
1903.6452,3143
1904.600551,2942
1905.555448,3249
1906.509891,2999
1907.46388,2959
1908.417416,3372
1909.370498,3176
1910.323126,3321
1911.275301,3126
1912.227023,3220
1913.178292,3481
1914.129108,3191
1915.079471,3084
1916.029382,2878
1916.97884,3203
1917.927846,2896
1918.876401,3185
1919.824503,3105
1920.772153,3174
1921.719352,3236
1922.6661,3167
1923.612396,3297
1924.558241,3031
1925.503635,2960
1926.448578,3181
1927.39307,3478
1928.337112,3211
1929.280703,3121
1930.223844,3341
1931.166535,3150
1932.108776,3068
1933.050568,3258
1933.991909,3302
1934.932801,2939
1935.873244,3214
1936.813238,3267
1937.752782,3188
1938.691878,3258
1939.630525,3103
1940.568723,3244
1941.506473,3632
1942.443774,3255
1943.380627,3196
1944.317033,3217
1945.25299,3137
1946.1885,3311
1947.123562,3092
1948.058177,3195
1948.992344,3363
1949.926065,3382
1950.859338,3025
1951.792165,3217
1952.724545,3365
1953.656478,3173
1954.587965,3550
1955.519006,3371
1956.4496,3438
1957.379749,3311
1958.309452,3271
1959.238709,3206
1960.167521,3108
1961.095888,3334
1962.023809,3316
1962.951285,3236
1963.878317,3214
1964.804903,3095
1965.731045,2954
1966.656743,3437
1967.581996,3061
1968.506805,3052
1969.43117,3274
1970.355091,3328
1971.278568,3142
1972.201602,3284
1973.124192,3201
1974.046339,3386
1974.968043,3307
1975.889304,3236
1976.810122,3105
1977.730498,3225
1978.65043,3298
1979.569921,3262
1980.488969,3343
1981.407574,3281
1982.325738,3240
1983.24346,3074
1984.160741,3050
1985.077579,3353
1985.993977,3204
1986.909933,3313
1987.825448,3090
1988.740522,3220
1989.655155,3237
1990.569347,3009
1991.483099,3212
1992.396411,3364
1993.309282,3109
1994.221713,3082
1995.133704,3157
1996.045256,3175
1996.956367,3005
1997.867039,3038
1998.777272,3436
1999.687065,2989
2000.596419,3160
2001.505335,3253
2002.413811,3364
2003.321849,3399
2004.229448,3191
2005.136609,3215
2006.043331,3248
2006.949616,3199
2007.855462,3143
2008.760871,3222
2009.665841,3474
2010.570375,3235
2011.47447,3282
2012.378129,3295
2013.281351,3308
2014.184135,3212
2015.086483,3143
2015.988393,3266
2016.889868,3087
2017.790906,3223
2018.691507,3217
2019.591673,3166
2020.491402,3484
2021.390695,3335
2022.289553,3259
2023.187975,3389
2024.085962,3182
2024.983514,3193
2025.88063,3485
2026.777311,3422
2027.673557,3512
2028.569369,3216
2029.464746,3523
2030.359688,3598
2031.254197,3366
2032.148271,3219
2033.04191,3571
2033.935116,3236
2034.827889,3336
2035.720227,3152
2036.612132,3313
2037.503604,3320
2038.394642,3519
2039.285248,3455
2040.17542,3227
2041.06516,3242
2041.954466,3307
2042.843341,3297
2043.731783,3397
2044.619792,3400
2045.50737,3138
2046.394516,3118
2047.281229,3217
2048.167511,3145
2049.053362,3283
2049.938781,2988
2050.823768,3172
2051.708325,3440
2052.59245,3143
2053.476145,3320
2054.359409,3371
2055.242242,3269
2056.124645,3127
2057.006617,3378
2057.888159,2941
2058.769271,3180
2059.649953,3039
2060.530206,3101
2061.410028,3252
2062.289421,3080
2063.168385,3103
2064.046919,3013
2064.925025,3137
2065.802701,3375
2066.679949,3187
2067.556767,3201
2068.433157,3385
2069.309119,3369
2070.184652,3211
2071.059758,3423
2071.934435,3103
2072.808684,3066
2073.682505,3467
2074.555899,3092
2075.428865,3095
2076.301404,3491
2077.173516,2984
2078.0452,3069
2078.916458,3307
2079.787289,3204
2080.657693,3522
2081.52767,3277
2082.397221,3202
2083.266346,3293
2084.135044,3191
2085.003316,3346
2085.871163,3250
2086.738584,3010
2087.605579,3220
2088.472148,3226
2089.338292,3124
2090.204011,3192
2091.069305,3262
2091.934174,3413
2092.798618,3322
2093.662637,2849
2094.526231,3289
2095.389402,3212
2096.252147,3018
2097.114469,3078
2097.976366,3316
2098.83784,3238
2099.69889,3167
2100.559516,3024
2101.419719,3148
2102.279498,3075
2103.138854,3410
2103.997786,3190
2104.856296,3239
2105.714383,3263
2106.572047,3472
2107.429289,3054
2108.286108,3180
2109.142504,3142
2109.998479,3162
2110.854031,3115
2111.709161,2952
2112.56387,2907
2113.418156,2986
2114.272021,3324
2115.125465,2971
2115.978487,3207
2116.831089,3098
2117.683269,3198
2118.535028,3221
2119.386366,2886
2120.237284,2948
2121.087781,3050
2121.937857,3044
2122.787514,2992
2123.63675,2834
2124.485566,2993
2125.333962,3088
2126.181939,3095
2127.029496,2969
2127.876633,3364
2128.723351,2778
2129.569649,3041
2130.415529,2820
2131.260989,2923
2132.106031,2779
2132.950654,2830
2133.794858,2830
2134.638643,3067
2135.482011,2632
2136.32496,2749
2137.167491,2794
2138.009604,2982
2138.851299,2804
2139.692576,2741
2140.533436,3012
2141.373878,2370
2142.213903,2702
2143.05351,2813
2143.892701,2810
2144.731474,2939
2145.569831,2664
2146.407771,2866
2147.245294,2667
2148.082401,2796
2148.919091,2670
2149.755365,2651
2150.591224,2532
2151.426666,2508
2152.261692,2775
2153.096302,2688
2153.930497,2624
2154.764277,2581
2155.597641,2373
2156.43059,2580
2157.263124,2881
2158.095242,2639
2158.926946,2664
2159.758236,2376
2160.58911,2653
2161.41957,2775
2162.249616,2578
2163.079248,2499
2163.908465,2529
2164.737269,2382
2165.565658,2426
2166.393634,2418
2167.221196,2306
2168.048345,2522
2168.87508,2490
2169.701402,2676
2170.527311,2306
2171.352807,2554
2172.177891,2494
2173.002561,2498
2173.826819,2645
2174.650664,2710
2175.474097,2472
2176.297117,2526
2177.119726,2554
2177.941922,2499
2178.763707,2386
2179.58508,2595
2180.406041,2256
2181.22659,2422
2182.046729,2302
2182.866456,2306
2183.685771,2555
2184.504676,2237
2185.32317,2378
2186.141253,2294
2186.958925,2230
2187.776187,2568
2188.593038,2158
2189.409479,2486
2190.22551,2396
2191.041131,2134
2191.856342,2299
2192.671143,2402
2193.485534,2424
2194.299516,2099
2195.113088,2414
2195.926251,2083
2196.739005,2258
2197.551349,2257
2198.363285,2347
2199.174812,2114
2199.98593,2245
2200.796639,1640
2201.60694,2241
2202.416832,1987
2203.226317,2370
2204.035393,1879
2204.844061,2323
2205.652321,2288
2206.460173,2046
2207.267618,2094
2208.074655,2086
2208.881285,1962
2209.687507,2351
2210.493322,2088
2211.29873,2304
2212.103732,2034
2212.908326,1806
2213.712513,1937
2214.516294,2027
2215.319669,2015
2216.122637,1710
2216.925199,1926
2217.727355,1806
2218.529105,2015
2219.330449,1817
2220.131387,1928
2220.931919,1828
2221.732046,2146
2222.531768,1850
2223.331084,1808
2224.129995,1775
2224.928501,2033
2225.726602,1756
2226.524298,1710
2227.321589,1813
2228.118476,1836
2228.914959,1944
2229.711037,1759
2230.50671,1848
2231.30198,2101
2232.096846,1743
2232.891307,1855
2233.685365,1857
2234.479019,1779
2235.27227,1619
2236.065117,1927
2236.857561,2093
2237.649602,1792
2238.441239,1575
2239.232474,1975
2240.023306,2080
2240.813735,1798
2241.603761,1553
2242.393385,1805
2243.182607,1762
2243.971426,1781
2244.759843,1692
2245.547858,1814
2246.335471,1724
2247.122682,1510
2247.909492,2026
2248.6959,1679
2249.481906,1610
2250.267511,1615
2251.052715,1876
2251.837518,1634
2252.621919,1674
2253.40592,1350
2254.18952,1716
2254.972719,1681
2255.755518,1528
2256.537916,1494
2257.319914,1554
2258.101512,1677
2258.88271,1482
2259.663507,1919
2260.443905,1454
2261.223903,1910
2262.003501,1581
2262.7827,1654
2263.561499,1501
2264.339899,1332
2265.1179,1430
2265.895501,1647
2266.672704,1618
2267.449508,1735
2268.225913,1455
2269.001919,1590
2269.777527,1219
2270.552737,1452
2271.327548,1548
2272.101961,1465
2272.875975,1620
2273.649592,1364
2274.422811,1361
2275.195632,1373
2275.968056,1354
2276.740082,1367
2277.511711,1479
2278.282942,1558
2279.053776,1258
2279.824213,1390
2280.594253,1377
2281.363897,1351
2282.133143,1338
2282.901993,1390
2283.670446,1524
2284.438503,1221
2285.206164,1138
2285.973428,1390
2286.740296,1186
2287.506769,1209
2288.272845,1260
2289.038526,1054
2289.803811,1526
2290.5687,1458
2291.333194,1474
2292.097293,1343
2292.860997,1196
2293.624305,1480
2294.387219,1228
2295.149737,1542
2295.911861,2033
2296.67359,3803
2297.434925,1055
2298.195865,1273
2298.956411,1090
2299.716562,1431
2300.47632,1275
2301.235683,1213
2301.994653,1566
2302.753229,1484
2303.511411,1225
2304.269199,1257
2305.026594,1012
2305.783596,1270
2306.540204,1117
2307.29642,1016
2308.052242,1358
2308.807671,1311
2309.562708,1524
2310.317351,1624
2311.071603,1193
2311.825461,1224
2312.578928,955
2313.332002,1173
2314.084684,1185
2314.836973,828
2315.588871,1055
2316.340377,1106
2317.091491,1052
2317.842214,1165
2318.592545,1173
2319.342485,1453
2320.092033,1110
2320.84119,1015
2321.589956,1018
2322.338331,1219
2323.086315,822
2323.833908,1242
2324.581111,1042
2325.327923,1196
2326.074345,1290
2326.820376,1532
2327.566017,1148
2328.311268,1186
2329.056129,1161
2329.800599,1198
2330.54468,1107
2331.288372,1027
2332.031673,1060
2332.774585,1201
2333.517108,1186
2334.259242,1148
2335.000986,1181
2335.742341,1119
2336.483307,1013
2337.223884,1212
2337.964073,1183
2338.703872,1031
2339.443283,1155
2340.182306,1334
2340.92094,1051
2341.659187,948
2342.397044,642
2343.134514,1292
2343.871596,1174
2344.60829,942
2345.344597,925
2346.080515,1048
2346.816046,1087
2347.55119,1226
2348.285946,964
2349.020316,860
2349.754298,1045
2350.487893,870
2351.221101,1166
2351.953922,1073
2352.686356,843
2353.418404,1091
2354.150066,1080
2354.881341,1098
2355.61223,1133
2356.342732,761
2357.072849,1010
2357.802579,737
2358.531924,902
2359.260883,779
2359.989456,1016
2360.717643,1102
2361.445445,861
2362.172862,1004
2362.899893,865
2363.626539,755
2364.352801,1046
2365.078677,1069
2365.804168,835
2366.529275,1044
2367.253996,936
2367.978334,734
2368.702286,1067
2369.425855,683
2370.149039,1245
2370.871839,785
2371.594255,864
2372.316287,929
2373.037935,1022
2373.7592,906
2374.48008,981
2375.200578,1023
2375.920691,963
2376.640422,782
2377.359769,854
2378.078733,822
2378.797314,625
2379.515511,672
2380.233327,636
2380.950759,952
2381.667808,816
2382.384476,944
2383.10076,779
2383.816663,915
2384.532183,809
2385.24732,629
2385.962076,629
2386.67645,762
2387.390442,873
2388.104052,720
2388.817281,651
2389.530128,844
2390.242593,956
2390.954677,813
2391.66638,503
2392.377702,781
2393.088643,633
2393.799202,743
2394.509381,581
2395.219179,820
2395.928596,860
2396.637633,561
2397.346289,546
2398.054565,586
2398.762461,467
2399.469976,415
2400.177111,399
2400.883867,436
2401.590242,612
2402.296238,495
2403.001854,582
2403.70709,765
2404.411947,541
2405.116424,611
2405.820522,586
2406.524241,706
2407.227581,521
2407.930542,309
2408.633123,666
2409.335326,250
2410.037151,478
