Wave shift,Intensity
-31.722347,10157
-29.886687,11554
-28.051868,12889
-26.217889,14713
-24.384749,17482
-22.552448,20062
-20.720985,22749
-18.890361,25570
-17.060575,29456
-15.231626,33222
-13.403514,39123
-11.576239,45196
-9.749799,47779
-7.924195,45560
-6.099426,37474
-4.275492,37075
-2.452392,41415
-0.630127,37057
1.191306,33879
3.011906,33044
4.831672,38493
6.650607,41269
8.46871,29273
10.285982,24438
12.102423,21755
13.918034,20127
15.732815,18361
17.546766,17976
19.359888,17427
21.172181,15009
22.983647,12483
24.794284,11002
26.604094,10380
28.413077,9571
30.221233,8458
32.028563,7071
33.835068,5576
35.640747,5159
37.445602,4659
39.249632,4521
41.052838,4013
42.855221,4156
44.656781,3703
46.457517,4129
48.257432,3620
50.056525,3630
51.854796,3699
53.652246,3577
55.448876,3426
57.244685,3576
59.039675,4051
60.833846,3935
62.627197,3886
64.41973,4330
66.211446,4184
68.002343,4187
69.792423,4513
71.581687,4712
73.370134,4980
75.157765,5618
76.944581,6367
78.730581,6688
80.515767,7621
82.300139,8194
84.083697,9185
85.866441,9923
87.648372,10969
89.429491,12342
91.209797,14181
92.989292,16166
94.767976,18757
96.545848,21848
98.32291,25697
100.099162,30858
101.874604,28654
103.649237,32625
105.423061,32677
107.196077,37391
108.968284,36317
110.739684,35368
112.510277,33746
114.280063,33104
116.049042,33131
117.817216,36730
119.584584,43645
121.351147,39196
123.116905,37573
124.881859,38445
126.646009,29616
128.409356,42366
130.171899,41223
131.93364,38914
133.694578,28162
135.454715,35161
137.21405,34082
138.972584,29951
140.730317,44114
142.48725,37038
144.243384,26770
145.998718,35662
147.753252,30167
149.506989,35710
151.259927,37354
153.012067,43310
154.76341,33696
156.513956,40775
158.263705,36650
160.012659,37628
161.760816,31208
163.508178,37003
165.254745,34815
167.000518,37528
168.745496,38845
170.489681,36313
172.233072,36695
173.975671,43149
175.717476,29415
177.45849,38042
179.198712,30736
180.938142,36563
182.676782,31066
184.414631,37819
186.15169,34830
187.887959,29991
189.623439,40431
191.35813,31454
193.092032,35977
194.825147,34546
196.557473,33915
198.289012,35723
200.019764,33924
201.74973,32486
203.478909,35996
205.207303,36399
206.934911,38449
208.661735,39033
210.387773,33208
212.113028,31931
213.837499,31553
215.561186,34974
217.28409,35658
219.006212,33183
220.727552,33775
222.44811,38288
224.167886,38014
225.886881,33922
227.605096,35199
229.32253,32519
231.039185,32721
232.75506,30950
234.470156,24466
236.184473,33425
237.898012,29705
239.610773,30050
241.322757,37832
243.033964,37104
244.744393,29660
246.454047,35154
248.162924,32116
249.871026,32125
251.578353,34987
253.284905,31773
254.990683,40738
256.695686,32733
258.399916,36022
260.103373,36837
261.806057,36610
263.507968,39434
265.209107,33700
266.909475,32690
268.609071,33656
270.307897,29234
272.005952,34766
273.703236,35567
275.399751,34256
277.095497,32911
278.790473,38886
280.484681,31738
282.178121,34229
283.870793,39093
285.562697,31175
287.253835,40718
288.944205,39130
290.633809,31450
292.322648,32828
294.010721,36865
295.698028,38916
297.384571,40304
299.070349,38300
300.755364,39823
302.439614,35226
304.123102,35167
305.805826,37437
307.487788,35873
309.168988,35515
310.849426,40400
312.529103,33545
314.208018,33454
315.886173,23386
317.563568,36689
319.240203,37829
320.916079,40220
322.591195,36842
324.265552,38996
325.939151,35604
327.611993,35334
329.284076,35981
330.955402,37104
332.625972,42477
334.295785,37431
335.964841,34942
337.633142,32176
339.300688,38717
340.967479,30964
342.633515,38229
344.298796,36188
345.963324,37015
347.627098,35970
349.29012,40799
350.952388,36118
352.613904,37881
354.274668,34671
355.93468,34176
357.593941,38601
359.252451,38880
360.910211,31586
362.56722,37167
364.22348,33855
365.87899,30926
367.533751,41111
369.187763,35796
370.841027,34173
372.493543,37249
374.145311,42506
375.796332,38273
377.446607,23597
379.096134,42646
380.744916,35034
382.392952,32092
384.040242,38128
385.686787,46976
387.332588,37378
388.977645,40460
390.621957,36811
392.265526,42205
393.908351,31963
395.550434,40332
397.191775,38393
398.832373,29325
400.472229,39960
402.111344,43723
403.749718,43471
405.387351,39632
407.024244,30788
408.660397,38461
410.295811,40789
411.930485,41847
413.56442,40343
415.197617,48023
416.830076,26892
418.461796,41238
420.09278,40841
421.723026,37257
423.352536,30481
424.981309,33011
426.609346,38212
428.236648,36392
429.863214,41844
431.489046,44272
433.114143,30343
434.738505,40597
436.362134,33591
437.98503,31949
439.607192,36493
441.228621,33495
442.849318,39048
444.469283,32029
446.088516,37950
447.707018,33348
449.324789,28717
450.941829,35989
452.558139,32572
454.173719,38758
455.78857,8081
457.402691,36970
459.016083,39124
460.628747,38521
462.240682,39930
463.85189,39758
465.46237,36972
467.072124,40023
468.68115,32188
470.28945,40118
471.897024,34440
473.503872,34737
475.109995,40495
476.715393,35687
478.320066,40670
479.924015,34843
481.52724,37002
483.129741,36091
484.731519,33411
486.332575,39216
487.932907,28015
489.532517,37848
491.131406,31683
492.729573,31533
494.327019,37309
495.923744,37563
497.519748,29647
499.115033,36061
500.709597,39650
502.303442,38746
503.896568,37125
505.488976,35469
507.080665,38912
508.671635,38502
510.261889,29878
511.851424,37072
513.440243,33492
515.028345,38683
516.615731,39454
518.202401,37634
519.788355,35575
521.373593,42553
522.958117,36327
524.541926,29864
526.125021,36792
527.707402,30697
529.28907,37558
530.870024,25979
532.450265,30961
534.029794,36079
535.60861,35138
537.186715,42422
538.764108,32959
540.340789,30344
541.91676,39221
543.492021,39944
545.066571,33984
546.640411,35351
548.213542,32237
549.785964,31726
551.357676,40517
552.928681,35813
554.498977,44715
556.068565,32980
557.637446,41474
559.20562,44348
560.773087,40550
562.339847,36673
563.905901,34113
565.47125,32676
567.035893,31607
568.599831,32930
570.163064,37402
571.725593,36980
573.287417,38151
574.848538,41985
576.408955,36036
577.968669,33736
579.52768,36579
581.085989,32001
582.643596,39806
584.200501,37485
585.756704,32765
587.312207,42599
588.867008,39298
590.42111,39362
591.974511,34788
593.527212,35840
595.079214,31173
596.630516,39332
598.18112,39962
599.731025,25249
601.280232,36465
602.828742,39652
604.376554,37285
605.923668,39268
607.470086,33690
609.015808,41720
610.560833,36795
612.105162,39208
613.648796,36197
615.191735,35322
616.733979,33673
618.275528,43585
619.816383,32971
621.356544,31702
622.896012,37816
624.434787,39064
625.972868,33564
627.510257,34333
629.046954,39176
630.582959,33611
632.118272,33777
633.652894,41299
635.186825,37686
636.720066,38041
638.252616,33747
639.784476,40642
641.315647,31689
642.846128,30290
644.37592,33464
645.905024,33637
647.433439,28598
648.961166,40978
650.488206,40660
652.014558,31431
653.540223,32982
655.065201,36052
656.589493,38006
658.113099,35628
659.636019,35861
661.158253,35294
662.679803,38523
664.200668,36328
665.720848,39135
667.240344,38796
668.759156,35318
670.277284,34963
671.79473,38186
673.311492,36139
674.827572,37909
676.34297,37809
677.857686,34245
679.37172,37733
680.885072,28743
682.397744,35889
683.909735,36784
685.421046,34510
686.931677,36387
688.441628,31305
689.950899,36542
691.459492,36255
692.967406,36293
694.474641,36399
695.981198,36388
697.487078,17590
698.992279,35915
700.496804,35908
702.000652,35817
703.503823,30143
705.006318,30876
706.508137,35583
708.00928,32703
709.509748,35674
711.009541,35429
712.50866,35567
714.007104,31874
715.504874,30423
717.00197,35146
718.498393,35032
719.994142,35169
721.489219,35474
722.983624,34063
724.477356,34586
725.970416,30292
727.462805,34778
728.954522,32602
730.445569,26159
731.935944,34139
733.42565,33959
734.914685,34152
736.403051,33850
737.890748,34299
739.377775,34021
740.864133,28567
742.349823,33065
743.834845,33770
745.319199,33839
746.802886,33650
748.285905,33836
749.768257,33834
751.249943,33927
752.730962,33745
754.211315,33791
755.691003,32910
757.170025,33244
758.648382,30453
760.126075,32590
761.603102,33003
763.079466,32876
764.555166,32764
766.030202,32944
767.504575,31876
768.978285,32245
770.451332,32587
771.923717,32648
773.39544,32551
774.866501,32585
776.3369,32286
777.806639,32009
779.275716,32112
780.744134,31271
782.21189,30512
783.678987,31457
785.145425,30398
786.611203,30878
788.076322,30379
789.540782,30158
791.004583,29087
792.467727,29773
793.930213,30002
795.392041,29041
796.853212,28941
798.313726,28906
799.773584,29210
801.232785,28834
802.69133,29008
804.14922,28486
805.606454,28229
807.063032,28437
808.518956,28101
809.974226,28029
811.428841,28050
812.882802,27692
814.33611,27604
815.788764,27450
817.240766,26852
818.692114,27031
820.14281,25638
821.592854,26911
823.042246,27071
824.490986,26605
825.939075,26669
827.386514,26760
828.833301,26531
830.279438,26429
831.724925,26258
833.169762,26186
834.61395,26331
836.057488,26789
837.500378,26070
838.942619,26538
840.384212,26396
841.825156,26687
843.265453,26628
844.705102,17890
846.144105,26556
847.58246,26475
849.020169,26507
850.457231,26296
851.893648,26010
853.329418,25884
854.764544,25803
856.199024,25891
857.632859,25925
859.06605,25410
860.498597,25265
861.9305,25747
863.361759,25281
864.792374,25172
866.222347,25265
867.651677,24626
869.080364,24423
870.508409,24504
871.935812,24256
873.362574,23998
874.788694,23667
876.214173,23685
877.639011,23512
879.063209,23756
880.486766,23434
881.909684,23513
883.331962,23174
884.753601,23428
886.174601,23558
887.594961,23606
889.014684,23536
890.433768,23832
891.852214,23961
893.270023,23849
894.687194,24048
896.103729,23962
897.519626,24053
898.934887,23996
900.349512,23816
901.763501,23802
903.176854,23201
904.589572,23126
906.001655,22862
907.413103,22674
908.823917,22535
910.234096,22646
911.643642,22620
913.052554,22688
914.460832,22323
915.868477,22477
917.27549,22034
918.68187,22479
920.087618,22045
921.492734,21711
922.897218,21324
924.301071,21284
925.704292,21077
927.106883,20624
928.508844,20503
929.910174,20055
931.310874,19973
932.710944,19732
934.110385,19310
935.509197,19347
936.907379,19345
938.304934,19196
939.70186,19072
941.098158,18707
942.493828,18735
943.88887,19054
945.283286,18460
946.677075,18506
948.070236,18717
949.462772,18595
950.854681,18647
952.245965,18692
953.636623,18600
955.026656,18608
956.416064,18565
957.804847,18645
959.193006,18246
960.58054,18381
961.967451,18250
963.353738,18090
964.739402,18290
966.124442,18073
967.50886,17932
968.892656,17809
970.275829,18330
971.65838,18109
973.04031,17958
974.421618,17909
975.802305,17984
977.182371,17920
978.561816,18220
979.940641,17994
981.318846,18556
982.696432,18422
984.073398,17874
985.449744,18210
986.825472,18206
988.200581,18340
989.575072,18657
990.948944,18403
992.322199,18574
993.694836,18241
995.066855,18198
996.438258,18530
997.809044,18361
999.179213,18248
1000.548766,18206
1001.917703,18836
1003.286024,18620
1004.65373,18848
1006.020821,18716
1007.387297,19363
1008.753158,19350
1010.118405,19575
1011.483038,19359
1012.847057,19853
1014.210462,19909
1015.573254,19531
1016.935433,19675
1018.296999,20033
1019.657953,19768
1021.018295,19512
1022.378025,19755
1023.737143,19647
1025.095649,19456
1026.453544,19359
1027.810829,19359
1029.167503,19547
1030.523566,19321
1031.87902,19754
1033.233863,20041
1034.588097,19691
1035.941722,19945
1037.294738,19806
1038.647145,20207
1039.998943,19950
1041.350133,20035
1042.700716,19836
1044.05069,19757
1045.400057,19831
1046.748817,19773
1048.09697,19923
1049.444516,20198
1050.791456,20212
1052.13779,20637
1053.483518,20510
1054.82864,20861
1056.173157,21287
1057.517069,21515
1058.860376,21950
1060.203079,22025
1061.545177,22264
1062.886671,22177
1064.227562,22169
1065.567848,21874
1066.907532,21794
1068.246613,21731
1069.585091,21186
1070.922966,21420
1072.260239,21006
1073.596911,20680
1074.93298,20543
1076.268448,20414
1077.603315,19901
1078.937581,20360
1080.271247,19998
1081.604312,19601
1082.936776,19351
1084.268641,18832
1085.599907,18689
1086.930573,18550
1088.260639,18414
1089.590107,18317
1090.918977,18424
1092.247248,18580
1093.574921,18219
1094.901996,18457
1096.228474,18432
1097.554354,18681
1098.879637,18659
1100.204323,18853
1101.528413,19154
1102.851907,19483
1104.174804,19384
1105.497106,19545
1106.818812,19968
1108.139923,19700
1109.460439,20397
1110.78036,20307
1112.099687,20584
1113.41842,20611
1114.736558,20763
1116.054103,20822
1117.371054,21081
1118.687412,21679
1120.003177,21699
1121.318349,21631
1122.632929,21649
1123.946916,21930
1125.260312,21723
1126.573116,21765
1127.885328,21741
1129.196949,21154
1130.507979,21124
1131.818419,20511
1133.128268,20502
1134.437527,19838
1135.746195,19550
1137.054275,18883
1138.361764,18543
1139.668665,18070
1140.974976,17771
1142.280699,17709
1143.585833,17167
1144.890379,17047
1146.194337,16721
1147.497708,16691
1148.800491,16680
1150.102687,16361
1151.404295,16361
1152.705318,16388
1154.005753,16387
1155.305603,16551
1156.604866,16256
1157.903544,16198
1159.201636,16140
1160.499143,16065
1161.796065,15799
1163.092402,15839
1164.388155,15508
1165.683324,15666
1166.977908,15286
1168.271909,14963
1169.565326,15299
1170.85816,14973
1172.150411,15116
1173.44208,14795
1174.733165,14919
1176.023669,14895
1177.31359,14710
1178.60293,14787
1179.891688,14561
1181.179865,14373
1182.467461,14133
1183.754476,14365
1185.04091,14497
1186.326765,14888
1187.612039,14684
1188.896733,14348
1190.180848,14626
1191.464383,14514
1192.747339,14536
1194.029717,14794
1195.311515,14812
1196.592736,14768
1197.873378,14978
1199.153442,14848
1200.432929,15164
1201.711838,14987
1202.990171,14645
1204.267926,15018
1205.545105,14992
1206.821707,14707
1208.097733,14629
1209.373183,14914
1210.648057,14461
1211.922356,14899
1213.196079,14727
1214.469228,14526
1215.741802,14676
1217.013801,14976
1218.285226,14495
1219.556077,14403
1220.826355,14827
1222.096058,14755
1223.365189,14653
1224.633746,14697
1225.90173,14347
1227.169142,14609
1228.435982,14655
1229.702249,14688
1230.967945,14364
1232.233069,14027
1233.497621,14678
1234.761602,14081
1236.025013,14640
1237.287852,14077
1238.550121,14365
1239.81182,14429
1241.072949,14286
1242.333509,14188
1243.593498,14148
1244.852919,14284
1246.11177,14328
1247.370053,14518
1248.627767,14560
1249.884912,14495
1251.14149,14185
1252.397499,14625
1253.652942,14675
1254.907816,14423
1256.162124,14589
1257.415864,14832
1258.669038,14620
1259.921646,14487
1261.173687,14813
1262.425162,14770
1263.676071,14882
1264.926415,14928
1266.176194,14927
1267.425408,15122
1268.674056,14696
1269.92214,14816
1271.16966,14822
1272.416616,14509
1273.663008,14705
1274.908836,14755
1276.1541,14675
1277.398802,14402
1278.64294,14262
1279.886516,14156
1281.129529,14203
1282.37198,14045
1283.613869,13955
1284.855196,14076
1286.095962,14254
1287.336166,13721
1288.575809,13738
1289.814891,13847
1291.053413,13864
1292.291374,13790
1293.528775,13772
1294.765616,13597
1296.001897,13717
1297.237618,13970
1298.472781,13545
1299.707384,13594
1300.941428,13664
1302.174914,13860
1303.407842,13897
1304.640211,13778
1305.872022,13876
1307.103276,13940
1308.333972,13788
1309.564111,13956
1310.793693,13860
1312.022719,13970
1313.251187,13992
1314.4791,14409
1315.706456,13897
1316.933256,14284
1318.159501,14494
1319.38519,14463
1320.610324,14386
1321.834903,14696
1323.058928,14574
1324.282398,14577
1325.505313,14967
1326.727675,14590
1327.949482,14973
1329.170736,14956
1330.391437,14636
1331.611584,14747
1332.831179,14523
1334.050221,15134
1335.26871,14417
1336.486647,14741
1337.704032,14699
1338.920865,14653
1340.137147,14607
1341.352877,14318
1342.568056,14540
1343.782684,14485
1344.996761,14428
1346.210288,14349
1347.423265,14571
1348.635691,14367
1349.847568,14422
1351.058895,14156
1352.269673,14764
1353.479901,14445
1354.689581,14363
1355.898712,14280
1357.107294,14703
1358.315329,14625
1359.522815,14680
1360.729753,14971
1361.936144,14729
1363.141987,14609
1364.347283,14842
1365.552032,14987
1366.756235,14485
1367.959891,14550
1369.163,14806
1370.365564,14545
1371.567582,14633
1372.769054,14594
1373.96998,14773
1375.170362,14550
1376.370198,14396
1377.56949,14250
1378.768237,14190
1379.96644,14174
1381.164099,13724
1382.361214,14135
1383.557785,13913
1384.753813,13977
1385.949297,13671
1387.144239,13739
1388.338637,13599
1389.532493,13624
1390.725807,13132
1391.918579,13265
1393.110808,13187
1394.302496,12791
1395.493643,13074
1396.684248,12659
1397.874312,12988
1399.063835,12611
1400.252818,12895
1401.44126,12444
1402.629162,12605
1403.816524,12164
1405.003346,12549
1406.189629,12127
1407.375372,12075
1408.560576,12018
1409.745241,12156
1410.929368,12272
1412.112956,12051
1413.296006,12401
1414.478517,12253
1415.660491,11960
1416.841927,12028
1418.022826,11789
1419.203188,12164
1420.383012,11892
1421.5623,11942
1422.741051,11767
1423.919266,11796
1425.096945,12006
1426.274088,12027
1427.450695,11657
1428.626766,11997
1429.802302,11958
1430.977303,11824
1432.15177,12089
1433.325701,11854
1434.499098,11894
1435.671961,12118
1436.84429,11874
1438.016085,11902
1439.187347,11838
1440.358075,11696
1441.528269,11872
1442.697931,11734
1443.86706,12059
1445.035657,11635
1446.203721,11703
1447.371253,11778
1448.538253,11748
1449.704721,11945
1450.870658,12045
1452.036064,11999
1453.200938,11972
1454.365282,12188
1455.529094,12268
1456.692377,12496
1457.855129,12447
1459.017351,12379
1460.179043,12107
1461.340206,12330
1462.500839,12063
1463.660943,12005
1464.820517,12177
1465.979563,11777
1467.138081,-53
1468.29607,11409
1469.453531,11248
1470.610464,11388
1471.766869,11134
1472.922746,11154
1474.078096,10852
1475.232919,10497
1476.387215,10806
1477.540985,10382
1478.694227,10012
1479.846944,10548
1480.999134,10178
1482.150798,10447
1483.301937,10350
1484.45255,10164
1485.602637,10218
1486.7522,10472
1487.901238,10183
1489.049751,10265
1490.197739,10242
1491.345203,10049
1492.492144,10167
1493.63856,10199
1494.784452,9902
1495.929821,10274
1497.074667,10202
1498.21899,10145
1499.36279,10475
1500.506067,10302
1501.648821,10169
1502.791054,10267
1503.932764,10292
1505.073953,10365
1506.21462,10235
1507.354765,10312
1508.494389,10333
1509.633492,10111
1510.772074,10258
1511.910136,10279
1513.047677,10236
1514.184698,10196
1515.321198,10261
1516.457179,10301
1517.592641,10197
1518.727582,10386
1519.862005,10376
1520.995909,10360
1522.129293,10230
1523.262159,10168
1524.394507,10662
1525.526336,10439
1526.657647,10459
1527.788441,10523
1528.918717,10479
1530.048475,10555
1531.177716,10659
1532.30644,10857
1533.434647,10615
1534.562338,10667
1535.689512,10889
1536.816169,10941
1537.942311,10846
1539.067937,11033
1540.193047,10937
1541.317642,10714
1542.441721,10856
1543.565285,10860
1544.688335,10938
1545.81087,10912
1546.93289,11257
1548.054396,11087
1549.175388,10951
1550.295866,11358
1551.41583,11278
1552.535281,11248
1553.654218,11551
1554.772643,11399
1555.890554,11631
1557.007953,11449
1558.124839,11327
1559.241213,10931
1560.357075,11431
1561.472424,11661
1562.587262,11412
1563.701589,11635
1564.815404,11651
1565.928708,11577
1567.041501,11886
1568.153783,11960
1569.265555,11637
1570.376816,11797
1571.487567,11892
1572.597808,11730
1573.707539,11894
1574.816761,11934
1575.925473,12294
1577.033676,12250
1578.14137,12168
1579.248555,12390
1580.355231,12160
1581.461399,12253
1582.567059,12423
1583.672211,12275
1584.776854,12389
1585.88099,12673
1586.984619,12592
1588.08774,12843
1589.190354,13005
1590.292462,12876
1591.394062,13570
1592.495156,13284
1593.595744,13375
1594.695825,13478
1595.795401,13511
1596.89447,13814
1597.993034,13466
1599.091093,14091
1600.188647,13961
1601.285695,14049
1602.382239,13861
1603.478278,14219
1604.573812,14391
1605.668843,14732
1606.763369,14608
1607.857391,14976
1608.95091,14839
1610.043925,15129
1611.136437,15120
1612.228446,15173
1613.319952,15475
1614.410955,15457
1615.501455,15524
1616.591453,15656
1617.680949,15704
1618.769943,15737
1619.858435,16012
1620.946426,15998
1622.033915,16327
1623.120903,16487
1624.20739,16298
1625.293376,16510
1626.378861,16445
1627.463845,16549
1628.54833,16377
1629.632314,16610
1630.715799,16864
1631.798783,16666
1632.881268,16720
1633.963254,16664
1635.04474,16273
1636.125728,16825
1637.206216,16737
1638.286206,16764
1639.365698,16830
1640.444691,16498
1641.523187,16400
1642.601184,16296
1643.678683,16701
1644.755686,16427
1645.83219,16249
1646.908198,16282
1647.983708,16253
1649.058722,16582
1650.133239,16105
1651.20726,16110
1652.280785,15868
1653.353813,15902
1654.426346,15776
1655.498383,15720
1656.569924,15761
1657.64097,15485
1658.711521,15626
1659.781577,15318
1660.851139,15298
1661.920205,15316
1662.988777,15008
1664.056855,14832
1665.124439,14877
1666.191529,14323
1667.258126,14354
1668.324229,14194
1669.389838,14076
1670.454955,13862
1671.519578,13789
1672.583709,13494
1673.647347,13392
1674.710493,13202
1675.773147,12869
1676.835308,12676
1677.896978,12749
1678.958155,12621
1680.018842,12268
1681.079037,12092
1682.138741,11895
1683.197954,11696
1684.256676,11618
1685.314908,11163
1686.372649,11441
1687.4299,10941
1688.48666,11056
1689.542931,10450
1690.598713,10815
1691.654004,10670
1692.708807,10522
1693.76312,10513
1694.816944,10056
1695.870279,10073
1696.923126,10163
1697.975484,9604
1699.027354,9580
1700.078736,9751
1701.12963,9392
1702.180036,9231
1703.229955,9243
1704.279386,9330
1705.32833,9265
1706.376787,8877
1707.424757,9061
1708.47224,8447
1709.519237,8638
1710.565748,8456
1711.611772,8378
1712.65731,8408
1713.702363,8165
1714.74693,8399
1715.791011,8271
1716.834608,8213
1717.877719,8163
1718.920345,8032
1719.962486,7849
1721.004143,7659
1722.045316,7426
1723.086004,7643
1724.126208,7599
1725.165929,7542
1726.205165,7347
1727.243918,7133
1728.282188,7281
1729.319975,6817
1730.357278,7004
1731.394099,6793
1732.430437,6742
1733.466293,6942
1734.501666,6638
1735.536557,6671
1736.570967,6788
1737.604894,6596
1738.63834,6632
1739.671304,6687
1740.703787,6347
1741.735789,6204
1742.767311,6475
1743.798351,6359
1744.828911,6239
1745.85899,6021
1746.888589,6203
1747.917708,6337
1748.946348,6223
1749.974507,6033
1751.002187,5698
1752.029388,5913
1753.056109,5802
1754.082351,5771
1755.108115,5714
1756.1334,5665
1757.158206,5876
1758.182534,5656
1759.206384,5407
1760.229755,5887
1761.252649,5474
1762.275065,5610
1763.297004,5388
1764.318466,5095
1765.33945,5315
1766.359957,5135
1767.379988,5190
1768.399542,5177
1769.418619,4779
1770.43722,4929
1771.455345,4881
1772.472994,5161
1773.490167,4886
1774.506865,4905
1775.523087,4812
1776.538834,4624
1777.554106,4962
1778.568902,4968
1779.583224,4714
1780.597072,4565
1781.610444,4809
1782.623343,4758
1783.635768,4549
1784.647718,4684
1785.659195,4678
1786.670198,4410
1787.680728,4864
1788.690784,4458
1789.700368,4738
1790.709478,4621
1791.718116,4931
1792.726281,4768
1793.733973,4539
1794.741194,4481
1795.747942,4360
1796.754218,4519
1797.760023,4482
1798.765356,4553
1799.770217,4628
1800.774607,4595
1801.778526,4257
1802.781974,4464
1803.784952,4620
1804.787458,4215
1805.789495,4195
1806.791061,4300
1807.792156,4281
1808.792782,4660
1809.792938,4299
1810.792625,4371
1811.791842,4227
1812.79059,4286
1813.788868,4238
1814.786678,4201
1815.784019,4157
1816.780891,4189
1817.777295,4221
1818.77323,4099
1819.768697,4362
1820.763697,4454
1821.758228,4420
1822.752292,4102
1823.745888,4059
1824.739017,4139
1825.731679,4036
1826.723874,4201
1827.715602,4100
1828.706863,4249
1829.697658,3965
1830.687986,4376
1831.677848,4336
1832.667244,4017
1833.656175,4052
1834.644639,4230
1835.632638,4198
1836.620172,4009
1837.60724,4102
1838.593844,4190
1839.579982,4011
1840.565656,4229
1841.550865,4078
1842.53561,3902
1843.51989,4178
1844.503706,3777
1845.487059,3954
1846.469947,3796
1847.452372,4163
1848.434334,4001
1849.415832,4196
1850.396867,4244
1851.377439,3983
1852.357549,4085
1853.337195,3868
1854.31638,4155
1855.295101,3815
1856.273361,3827
1857.251159,3950
1858.228494,4010
1859.205369,4013
1860.181781,3993
1861.157732,3725
1862.133222,3872
1863.108251,3807
1864.082819,4040
1865.056926,3680
1866.030573,3722
1867.003759,4121
1867.976485,3723
1868.948751,3661
1869.920556,3880
1870.891902,3755
1871.862789,3706
1872.833216,3949
1873.803183,3696
1874.772691,3593
1875.741741,3699
1876.710331,3629
1877.678463,3518
1878.646136,3698
1879.613351,3926
1880.580108,3525
1881.546406,3818
1882.512247,3346
1883.47763,3688
1884.442555,3705
1885.407023,3424
1886.371033,3681
1887.334586,3602
1888.297683,3684
1889.260322,3498
1890.222505,3512
1891.184231,3452
1892.145501,3563
1893.106315,3488
1894.066673,3468
1895.026574,3508
1895.98602,3582
1896.945011,3393
1897.903546,3436
1898.861626,3606
1899.81925,3524
1900.77642,3458
1901.733135,3428
1902.689395,3437
1903.6452,3385
1904.600551,3286
1905.555448,3618
1906.509891,3463
1907.46388,3404
1908.417416,3766
1909.370498,3639
1910.323126,3666
1911.275301,3481
1912.227023,3507
1913.178292,3676
1914.129108,3507
1915.079471,3483
1916.029382,3754
1916.97884,3683
1917.927846,3534
1918.876401,3633
1919.824503,3405
1920.772153,3522
1921.719352,3633
1922.6661,3431
1923.612396,3756
1924.558241,3410
1925.503635,3375
1926.448578,3474
1927.39307,3329
1928.337112,3631
1929.280703,3563
1930.223844,3563
1931.166535,3407
1932.108776,3452
1933.050568,3583
1933.991909,4037
1934.932801,3497
1935.873244,3703
1936.813238,3643
1937.752782,3467
1938.691878,3522
1939.630525,3590
1940.568723,3797
1941.506473,4115
1942.443774,3435
1943.380627,3561
1944.317033,3591
1945.25299,3540
1946.1885,3551
1947.123562,3839
1948.058177,3336
1948.992344,3803
1949.926065,3658
1950.859338,3469
1951.792165,3715
1952.724545,3548
1953.656478,3479
1954.587965,3953
1955.519006,3550
1956.4496,3815
1957.379749,3553
1958.309452,3533
1959.238709,3474
1960.167521,3440
1961.095888,3685
1962.023809,3794
1962.951285,3644
1963.878317,3399
1964.804903,3455
1965.731045,3326
1966.656743,3689
1967.581996,3351
1968.506805,3619
1969.43117,3559
1970.355091,3644
1971.278568,3756
1972.201602,3679
1973.124192,3639
1974.046339,3473
1974.968043,3721
1975.889304,3681
1976.810122,3515
1977.730498,3487
1978.65043,3430
1979.569921,3658
1980.488969,3672
1981.407574,3215
1982.325738,3559
1983.24346,3451
1984.160741,3329
1985.077579,3680
1985.993977,3597
1986.909933,3685
1987.825448,3531
1988.740522,3442
1989.655155,3461
1990.569347,3352
1991.483099,3612
1992.396411,3727
1993.309282,3574
1994.221713,3354
1995.133704,3581
1996.045256,3617
1996.956367,3481
1997.867039,3493
1998.777272,3604
1999.687065,3580
2000.596419,3552
2001.505335,3446
2002.413811,3738
2003.321849,3572
2004.229448,3529
2005.136609,3868
2006.043331,3449
2006.949616,3819
2007.855462,3718
2008.760871,3636
2009.665841,3599
2010.570375,3506
2011.47447,3665
2012.378129,3761
2013.281351,3767
2014.184135,3697
2015.086483,3597
2015.988393,3546
2016.889868,3390
2017.790906,3587
2018.691507,3428
2019.591673,3652
2020.491402,3736
2021.390695,3617
2022.289553,3759
2023.187975,3735
2024.085962,3538
2024.983514,3751
2025.88063,3754
2026.777311,3861
2027.673557,3691
2028.569369,3626
2029.464746,3903
2030.359688,3811
2031.254197,3530
2032.148271,3657
2033.04191,3684
2033.935116,3567
2034.827889,3679
2035.720227,3784
2036.612132,3544
2037.503604,3817
2038.394642,3873
2039.285248,3781
2040.17542,3676
2041.06516,3734
2041.954466,3546
2042.843341,3660
2043.731783,3844
2044.619792,3763
2045.50737,3466
2046.394516,3496
2047.281229,3791
2048.167511,3473
2049.053362,3561
2049.938781,3447
2050.823768,3563
2051.708325,3853
2052.59245,3572
2053.476145,3442
2054.359409,3577
2055.242242,3669
2056.124645,3464
2057.006617,3885
2057.888159,3206
2058.769271,3458
2059.649953,3688
2060.530206,3272
2061.410028,3660
2062.289421,3587
2063.168385,3477
2064.046919,3410
2064.925025,3339
2065.802701,3623
2066.679949,3567
2067.556767,3726
2068.433157,3628
2069.309119,3675
2070.184652,3397
2071.059758,3471
2071.934435,3746
2072.808684,3390
2073.682505,3575
2074.555899,3360
2075.428865,3439
2076.301404,3731
2077.173516,3574
2078.0452,3493
2078.916458,3834
2079.787289,3591
2080.657693,3675
2081.52767,3604
2082.397221,3550
2083.266346,3697
2084.135044,3539
2085.003316,3549
2085.871163,3438
2086.738584,3328
2087.605579,3536
2088.472148,3563
2089.338292,3730
2090.204011,3532
2091.069305,3616
2091.934174,3498
2092.798618,3567
2093.662637,3189
2094.526231,3536
2095.389402,3627
2096.252147,3351
2097.114469,3489
2097.976366,3524
2098.83784,3564
2099.69889,3525
2100.559516,3349
2101.419719,3412
2102.279498,3553
2103.138854,3406
2103.997786,3604
2104.856296,3452
2105.714383,3642
2106.572047,3726
2107.429289,3372
2108.286108,3649
2109.142504,3355
2109.998479,3362
2110.854031,3515
2111.709161,3220
2112.56387,3154
2113.418156,3477
2114.272021,3279
2115.125465,3357
2115.978487,3632
2116.831089,3186
2117.683269,3498
2118.535028,3599
2119.386366,3206
2120.237284,3351
2121.087781,3263
2121.937857,3460
2122.787514,3273
2123.63675,3232
2124.485566,3439
2125.333962,3275
2126.181939,3273
2127.029496,3288
2127.876633,3506
2128.723351,3317
2129.569649,3157
2130.415529,3156
2131.260989,3181
2132.106031,3445
2132.950654,3070
2133.794858,3066
2134.638643,3250
2135.482011,3120
2136.32496,2926
2137.167491,3120
2138.009604,3181
2138.851299,3282
2139.692576,3127
2140.533436,3221
2141.373878,3025
2142.213903,3084
2143.05351,3040
2143.892701,3229
2144.731474,3176
2145.569831,2980
2146.407771,3232
2147.245294,3103
2148.082401,3138
2148.919091,3045
2149.755365,2979
2150.591224,2807
2151.426666,2987
2152.261692,3110
2153.096302,2980
2153.930497,3193
2154.764277,2851
2155.597641,2729
2156.43059,2788
2157.263124,3385
2158.095242,2924
2158.926946,2911
2159.758236,2642
2160.58911,2776
2161.41957,2966
2162.249616,2859
2163.079248,2893
2163.908465,3059
2164.737269,2642
2165.565658,2606
2166.393634,2613
2167.221196,2750
2168.048345,2671
2168.87508,2850
2169.701402,2865
2170.527311,2788
2171.352807,2796
2172.177891,3101
2173.002561,2678
2173.826819,2670
2174.650664,2998
2175.474097,2673
2176.297117,2790
2177.119726,2850
2177.941922,2622
2178.763707,2753
2179.58508,2756
2180.406041,2532
2181.22659,2764
2182.046729,2702
2182.866456,2556
2183.685771,2670
2184.504676,2609
2185.32317,2475
2186.141253,2722
2186.958925,2660
2187.776187,2558
2188.593038,2492
2189.409479,2709
2190.22551,2471
2191.041131,2631
2191.856342,2613
2192.671143,2602
2193.485534,2538
2194.299516,2411
2195.113088,2713
2195.926251,2366
2196.739005,2450
2197.551349,2519
2198.363285,2453
2199.174812,2324
2199.98593,2395
2200.796639,2069
2201.60694,2429
2202.416832,2404
2203.226317,2548
2204.035393,2473
2204.844061,2430
2205.652321,2446
2206.460173,2421
2207.267618,2198
2208.074655,2222
2208.881285,2106
2209.687507,2383
2210.493322,2462
2211.29873,2380
2212.103732,2469
2212.908326,2174
2213.712513,2219
2214.516294,2338
2215.319669,2349
2216.122637,2168
2216.925199,2201
2217.727355,2195
2218.529105,2347
2219.330449,2182
2220.131387,2206
2220.931919,2100
2221.732046,2175
2222.531768,2165
2223.331084,1933
2224.129995,2159
2224.928501,2147
2225.726602,2135
2226.524298,2280
2227.321589,2042
2228.118476,1937
2228.914959,2069
2229.711037,2069
2230.50671,2169
2231.30198,2208
2232.096846,2092
2232.891307,2072
2233.685365,2288
2234.479019,2240
2235.27227,1877
2236.065117,2250
2236.857561,2308
2237.649602,1974
2238.441239,2042
2239.232474,2076
2240.023306,2064
2240.813735,2046
2241.603761,1923
2242.393385,2025
2243.182607,1933
2243.971426,2038
2244.759843,2178
2245.547858,1793
2246.335471,1926
2247.122682,1904
2247.909492,2167
2248.6959,1838
2249.481906,1870
2250.267511,1904
2251.052715,2093
2251.837518,1803
2252.621919,1874
2253.40592,1851
2254.18952,1855
2254.972719,1860
2255.755518,1741
2256.537916,1733
2257.319914,2125
2258.101512,1869
2258.88271,1696
2259.663507,2094
2260.443905,1732
2261.223903,1846
2262.003501,1868
2262.7827,1655
2263.561499,1697
2264.339899,1681
2265.1179,1701
2265.895501,1739
2266.672704,1891
2267.449508,1808
2268.225913,1770
2269.001919,1742
2269.777527,1519
2270.552737,1489
2271.327548,1819
2272.101961,1657
2272.875975,1681
2273.649592,1765
2274.422811,1734
2275.195632,1403
2275.968056,1736
2276.740082,1700
2277.511711,1896
2278.282942,1699
2279.053776,1555
2279.824213,1474
2280.594253,1598
2281.363897,1666
2282.133143,1717
2282.901993,1569
2283.670446,1509
2284.438503,1428
2285.206164,1106
2285.973428,1540
2286.740296,1346
2287.506769,1580
2288.272845,1566
2289.038526,1229
2289.803811,1743
2290.5687,1709
2291.333194,1824
2292.097293,1569
2292.860997,1624
2293.624305,1521
2294.387219,1404
2295.149737,1430
2295.911861,1286
2296.67359,1649
2297.434925,1484
2298.195865,1416
2298.956411,1392
2299.716562,1562
2300.47632,1518
2301.235683,1342
2301.994653,1634
2302.753229,1560
2303.511411,1661
2304.269199,1561
2305.026594,1355
2305.783596,1478
2306.540204,1296
2307.29642,1286
2308.052242,1556
2308.807671,1449
2309.562708,1488
2310.317351,1586
2311.071603,1390
2311.825461,1381
2312.578928,1240
2313.332002,1486
2314.084684,1303
2314.836973,1107
2315.588871,1154
2316.340377,1209
2317.091491,1261
2317.842214,1453
2318.592545,1249
2319.342485,1513
2320.092033,1280
2320.84119,1332
2321.589956,1214
2322.338331,1684
2323.086315,1002
2323.833908,1292
2324.581111,1209
2325.327923,1338
2326.074345,1383
2326.820376,1559
2327.566017,1496
2328.311268,1350
2329.056129,1175
2329.800599,1379
2330.54468,1457
2331.288372,1090
2332.031673,1171
2332.774585,1365
2333.517108,1401
2334.259242,1260
2335.000986,1139
2335.742341,1575
2336.483307,1158
2337.223884,1320
2337.964073,996
2338.703872,1309
2339.443283,1555
2340.182306,1279
2340.92094,1430
2341.659187,1159
2342.397044,1114
2343.134514,1321
2343.871596,1101
2344.60829,1256
2345.344597,943
2346.080515,1164
2346.816046,974
2347.55119,1848
2348.285946,1103
2349.020316,1039
2349.754298,1306
2350.487893,800
2351.221101,1445
2351.953922,1241
2352.686356,1017
2353.418404,1242
2354.150066,1184
2354.881341,1318
2355.61223,1222
2356.342732,990
2357.072849,1130
2357.802579,1079
2358.531924,1028
2359.260883,906
2359.989456,1129
2360.717643,1193
2361.445445,1137
2362.172862,1286
2362.899893,869
2363.626539,1140
2364.352801,1144
2365.078677,1146
2365.804168,1105
2366.529275,1140
2367.253996,1269
2367.978334,1098
2368.702286,1066
2369.425855,944
2370.149039,1276
2370.871839,1168
2371.594255,939
2372.316287,915
2373.037935,1041
2373.7592,1016
2374.48008,1225
2375.200578,1163
2375.920691,1037
2376.640422,1010
2377.359769,790
2378.078733,884
2378.797314,567
2379.515511,888
2380.233327,897
2380.950759,916
2381.667808,1134
2382.384476,951
2383.10076,1004
2383.816663,956
2384.532183,993
2385.24732,698
2385.962076,877
2386.67645,947
2387.390442,1120
2388.104052,846
2388.817281,812
2389.530128,1008
2390.242593,1045
2390.954677,937
2391.66638,908
2392.377702,916
2393.088643,770
2393.799202,1036
2394.509381,610
2395.219179,999
2395.928596,1050
2396.637633,676
2397.346289,399
2398.054565,849
2398.762461,555
2399.469976,731
2400.177111,505
2400.883867,657
2401.590242,814
2402.296238,445
2403.001854,829
2403.70709,632
2404.411947,634
2405.116424,717
2405.820522,650
2406.524241,804
2407.227581,609
2407.930542,416
2408.633123,970
2409.335326,639
2410.037151,545
