Wave shift,Intensity
-31.722347,11198
-29.886687,12737
-28.051868,14258
-26.217889,16433
-24.384749,19518
-22.552448,21910
-20.720985,25177
-18.890361,27710
-17.060575,31387
-15.231626,35783
-13.403514,41292
-11.576239,47829
-9.749799,47881
-7.924195,45662
-6.099426,37576
-4.275492,37177
-2.452392,41517
-0.630127,37159
1.191306,33981
3.011906,33146
4.831672,38595
6.650607,41371
8.46871,28786
10.285982,24537
12.102423,22045
13.918034,20248
15.732815,18838
17.546766,18913
19.359888,17897
21.172181,15103
22.983647,12910
24.794284,11103
26.604094,10473
28.413077,9763
30.221233,8720
32.028563,6923
33.835068,5822
35.640747,5549
37.445602,4812
39.249632,4781
41.052838,4170
42.855221,4520
44.656781,4061
46.457517,4134
48.257432,3889
50.056525,3734
51.854796,3786
53.652246,3823
55.448876,3734
57.244685,3925
59.039675,4048
60.833846,4234
62.627197,4282
64.41973,4263
66.211446,4463
68.002343,4332
69.792423,4764
71.581687,4807
73.370134,5320
75.157765,5616
76.944581,6418
78.730581,6716
80.515767,7766
82.300139,8121
84.083697,9509
85.866441,10425
87.648372,11252
89.429491,13006
91.209797,14845
92.989292,16395
94.767976,19187
96.545848,22642
98.32291,26242
100.099162,31759
101.874604,28756
103.649237,32727
105.423061,32779
107.196077,37493
108.968284,36419
110.739684,35470
112.510277,33848
114.280063,33206
116.049042,33233
117.817216,36832
119.584584,43747
121.351147,39298
123.116905,37675
124.881859,38547
126.646009,29718
128.409356,42468
130.171899,41325
131.93364,39016
133.694578,28264
135.454715,35263
137.21405,34184
138.972584,30053
140.730317,44216
142.48725,37140
144.243384,26872
145.998718,35764
147.753252,30269
149.506989,35812
151.259927,37456
153.012067,43412
154.76341,33798
156.513956,40877
158.263705,36752
160.012659,37730
161.760816,31310
163.508178,37105
165.254745,34917
167.000518,37630
168.745496,38947
170.489681,36415
172.233072,36797
173.975671,43251
175.717476,29517
177.45849,38144
179.198712,30838
180.938142,36665
182.676782,31168
184.414631,37921
186.15169,34932
187.887959,30093
189.623439,40533
191.35813,31556
193.092032,36079
194.825147,34648
196.557473,34017
198.289012,35825
200.019764,34026
201.74973,32588
203.478909,36098
205.207303,36501
206.934911,38551
208.661735,39135
210.387773,33310
212.113028,32033
213.837499,31655
215.561186,35076
217.28409,35760
219.006212,33285
220.727552,33877
222.44811,38390
224.167886,38116
225.886881,34024
227.605096,35301
229.32253,32621
231.039185,32823
232.75506,31052
234.470156,24568
236.184473,33527
237.898012,29807
239.610773,30152
241.322757,37934
243.033964,37206
244.744393,29762
246.454047,35256
248.162924,32218
249.871026,32227
251.578353,35089
253.284905,31875
254.990683,40840
256.695686,32835
258.399916,36124
260.103373,36939
261.806057,36712
263.507968,39536
265.209107,33802
266.909475,32792
268.609071,33758
270.307897,29336
272.005952,34868
273.703236,35669
275.399751,34358
277.095497,33013
278.790473,38988
280.484681,31840
282.178121,34331
283.870793,39195
285.562697,31277
287.253835,40820
288.944205,39232
290.633809,31552
292.322648,32930
294.010721,36967
295.698028,39018
297.384571,40406
299.070349,38402
300.755364,39925
302.439614,35328
304.123102,35269
305.805826,37539
307.487788,35975
309.168988,35617
310.849426,40502
312.529103,33647
314.208018,33556
315.886173,23488
317.563568,36791
319.240203,37931
320.916079,40322
322.591195,36944
324.265552,39098
325.939151,35706
327.611993,35436
329.284076,36083
330.955402,37206
332.625972,42579
334.295785,37533
335.964841,35044
337.633142,32278
339.300688,38819
340.967479,31066
342.633515,38331
344.298796,36290
345.963324,37117
347.627098,36072
349.29012,40901
350.952388,36220
352.613904,37983
354.274668,34773
355.93468,34278
357.593941,38703
359.252451,38982
360.910211,31688
362.56722,37269
364.22348,33957
365.87899,31028
367.533751,41213
369.187763,35898
370.841027,34275
372.493543,37351
374.145311,42608
375.796332,38375
377.446607,23699
379.096134,42748
380.744916,35136
382.392952,32194
384.040242,38230
385.686787,47078
387.332588,37480
388.977645,40562
390.621957,36913
392.265526,42307
393.908351,32065
395.550434,40434
397.191775,38495
398.832373,29427
400.472229,40062
402.111344,43825
403.749718,43573
405.387351,39734
407.024244,30890
408.660397,38563
410.295811,40891
411.930485,41949
413.56442,40445
415.197617,48125
416.830076,26994
418.461796,41340
420.09278,40943
421.723026,37359
423.352536,30583
424.981309,33113
426.609346,38314
428.236648,36494
429.863214,41946
431.489046,44374
433.114143,30445
434.738505,40699
436.362134,33693
437.98503,32051
439.607192,36595
441.228621,33597
442.849318,39150
444.469283,32131
446.088516,38052
447.707018,33450
449.324789,28819
450.941829,36091
452.558139,32674
454.173719,38860
455.78857,8183
457.402691,37072
459.016083,39226
460.628747,38623
462.240682,40032
463.85189,39860
465.46237,37074
467.072124,40125
468.68115,32290
470.28945,40220
471.897024,34542
473.503872,34839
475.109995,40597
476.715393,35789
478.320066,40772
479.924015,34945
481.52724,37104
483.129741,36193
484.731519,33513
486.332575,39318
487.932907,28117
489.532517,37950
491.131406,31785
492.729573,31635
494.327019,37411
495.923744,37665
497.519748,29749
499.115033,36163
500.709597,39752
502.303442,38848
503.896568,37227
505.488976,35571
507.080665,39014
508.671635,38604
510.261889,29980
511.851424,37174
513.440243,33594
515.028345,38785
516.615731,39556
518.202401,37736
519.788355,35677
521.373593,42655
522.958117,36429
524.541926,29966
526.125021,36894
527.707402,30799
529.28907,37660
530.870024,26081
532.450265,31063
534.029794,36181
535.60861,35240
537.186715,42524
538.764108,33061
540.340789,30446
541.91676,39323
543.492021,40046
545.066571,34086
546.640411,35453
548.213542,32339
549.785964,31828
551.357676,40619
552.928681,35915
554.498977,44817
556.068565,33082
557.637446,41576
559.20562,44450
560.773087,40652
562.339847,36775
563.905901,34215
565.47125,32778
567.035893,31709
568.599831,33032
570.163064,37504
571.725593,37082
573.287417,38253
574.848538,42087
576.408955,36138
577.968669,33838
579.52768,36681
581.085989,32103
582.643596,39908
584.200501,37587
585.756704,32867
587.312207,42701
588.867008,39400
590.42111,39464
591.974511,34890
593.527212,35942
595.079214,31275
596.630516,39434
598.18112,40064
599.731025,25351
601.280232,36567
602.828742,39754
604.376554,37387
605.923668,39370
607.470086,33792
609.015808,41822
610.560833,36897
612.105162,39310
613.648796,36299
615.191735,35424
616.733979,33775
618.275528,43687
619.816383,33073
621.356544,31804
622.896012,37918
624.434787,39166
625.972868,33666
627.510257,34435
629.046954,39278
630.582959,33713
632.118272,33879
633.652894,41401
635.186825,37788
636.720066,38143
638.252616,33849
639.784476,40744
641.315647,31791
642.846128,30392
644.37592,33566
645.905024,33739
647.433439,28700
648.961166,41080
650.488206,40877
652.014558,31533
653.540223,33084
655.065201,36154
656.589493,38108
658.113099,35730
659.636019,35963
661.158253,35396
662.679803,38625
664.200668,36430
665.720848,39266
667.240344,38898
668.759156,35420
670.277284,35065
671.79473,38437
673.311492,36241
674.827572,38142
676.34297,37962
677.857686,34347
679.37172,37845
680.885072,28845
682.397744,35991
683.909735,37209
685.421046,34612
686.931677,36489
688.441628,31407
689.950899,36681
691.459492,36163
692.967406,36613
694.474641,36224
695.981198,36502
697.487078,17692
698.992279,36220
700.496804,36081
702.000652,36209
703.503823,30245
705.006318,30978
706.508137,35702
708.00928,32805
709.509748,36169
711.009541,35531
712.50866,35674
714.007104,31976
715.504874,30525
717.00197,35325
718.498393,35162
719.994142,35382
721.489219,35095
722.983624,34165
724.477356,35069
725.970416,30394
727.462805,34970
728.954522,32704
730.445569,26261
731.935944,34367
733.42565,34061
734.914685,34585
736.403051,33952
737.890748,34443
739.377775,34022
740.864133,28669
742.349823,33167
743.834845,33540
745.319199,34038
746.802886,33917
748.285905,33831
749.768257,33988
751.249943,33472
752.730962,34186
754.211315,33155
755.691003,33012
757.170025,33394
758.648382,30555
760.126075,32692
761.603102,33228
763.079466,33251
764.555166,33070
766.030202,33279
767.504575,31978
768.978285,32700
770.451332,32686
771.923717,32708
773.39544,32556
774.866501,32417
776.3369,32375
777.806639,32198
779.275716,31927
780.744134,31462
782.21189,30614
783.678987,31392
785.145425,30628
786.611203,30758
788.076322,30493
789.540782,30717
791.004583,29189
792.467727,29997
793.930213,30001
795.392041,29355
796.853212,29347
798.313726,29440
799.773584,29351
801.232785,28655
802.69133,29222
804.14922,28266
805.606454,28403
807.063032,28510
808.518956,28486
809.974226,28305
811.428841,28167
812.882802,27812
814.33611,27520
815.788764,27786
817.240766,27169
818.692114,27456
820.14281,25740
821.592854,27180
823.042246,26944
824.490986,26837
825.939075,27513
827.386514,26793
828.833301,26555
830.279438,26538
831.724925,26313
833.169762,26277
834.61395,26401
836.057488,26660
837.500378,26289
838.942619,26811
840.384212,26551
841.825156,26963
843.265453,26872
844.705102,17992
846.144105,26738
847.58246,26500
849.020169,26610
850.457231,26411
851.893648,25787
853.329418,25970
854.764544,25923
856.199024,26188
857.632859,25902
859.06605,25814
860.498597,25671
861.9305,25588
863.361759,25641
864.792374,25419
866.222347,25104
867.651677,24298
869.080364,24561
870.508409,24835
871.935812,24332
873.362574,24027
874.788694,23788
876.214173,23831
877.639011,23580
879.063209,23989
880.486766,23636
881.909684,23746
883.331962,23600
884.753601,23591
886.174601,23493
887.594961,23604
889.014684,23533
890.433768,23910
891.852214,24310
893.270023,23901
894.687194,24286
896.103729,24069
897.519626,23829
898.934887,24098
900.349512,24291
901.763501,23802
903.176854,23411
904.589572,22983
906.001655,23010
907.413103,22738
908.823917,22888
910.234096,22508
911.643642,22710
913.052554,22633
914.460832,22208
915.868477,22580
917.27549,22286
918.68187,22201
920.087618,22139
921.492734,21914
922.897218,21585
924.301071,21313
925.704292,21131
927.106883,20662
928.508844,20573
929.910174,20193
931.310874,19999
932.710944,19962
934.110385,19512
935.509197,19493
936.907379,19415
938.304934,19376
939.70186,19488
941.098158,18871
942.493828,18903
943.88887,18870
945.283286,18753
946.677075,18713
948.070236,18676
949.462772,18788
950.854681,18560
952.245965,19005
953.636623,18849
955.026656,18735
956.416064,18298
957.804847,18788
959.193006,18613
960.58054,18271
961.967451,18340
963.353738,17992
964.739402,18412
966.124442,18227
967.50886,17862
968.892656,18045
970.275829,17942
971.65838,18113
973.04031,18288
974.421618,18071
975.802305,18075
977.182371,18039
978.561816,17999
979.940641,18136
981.318846,18350
982.696432,18400
984.073398,17946
985.449744,18206
986.825472,18190
988.200581,18614
989.575072,18511
990.948944,18406
992.322199,18615
993.694836,18552
995.066855,18488
996.438258,18636
997.809044,18487
999.179213,18384
1000.548766,18406
1001.917703,19084
1003.286024,18592
1004.65373,18788
1006.020821,18739
1007.387297,19294
1008.753158,19429
1010.118405,19578
1011.483038,21772
1012.847057,20982
1014.210462,19825
1015.573254,19831
1016.935433,19691
1018.296999,19929
1019.657953,19828
1021.018295,19599
1022.378025,19526
1023.737143,19610
1025.095649,19579
1026.453544,19536
1027.810829,19314
1029.167503,19339
1030.523566,19561
1031.87902,19698
1033.233863,20143
1034.588097,19689
1035.941722,19904
1037.294738,19847
1038.647145,20164
1039.998943,19882
1041.350133,20325
1042.700716,20094
1044.05069,20108
1045.400057,19660
1046.748817,20192
1048.09697,20029
1049.444516,20488
1050.791456,20309
1052.13779,20710
1053.483518,20451
1054.82864,21077
1056.173157,21373
1057.517069,21633
1058.860376,21985
1060.203079,22058
1061.545177,22283
1062.886671,22241
1064.227562,22069
1065.567848,21857
1066.907532,21621
1068.246613,21762
1069.585091,22325
1070.922966,21795
1072.260239,20817
1073.596911,20471
1074.93298,20738
1076.268448,20327
1077.603315,20154
1078.937581,20343
1080.271247,19738
1081.604312,19500
1082.936776,19614
1084.268641,18893
1085.599907,18604
1086.930573,18699
1088.260639,18437
1089.590107,18480
1090.918977,18351
1092.247248,18345
1093.574921,18154
1094.901996,18419
1096.228474,18541
1097.554354,18578
1098.879637,18973
1100.204323,18991
1101.528413,19124
1102.851907,19743
1104.174804,19550
1105.497106,19695
1106.818812,19864
1108.139923,19690
1109.460439,20252
1110.78036,20165
1112.099687,20618
1113.41842,20662
1114.736558,20829
1116.054103,20968
1117.371054,21389
1118.687412,21449
1120.003177,21553
1121.318349,21773
1122.632929,21713
1123.946916,22237
1125.260312,21837
1126.573116,21775
1127.885328,21623
1129.196949,21191
1130.507979,21017
1131.818419,20507
1133.128268,20360
1134.437527,19852
1135.746195,19448
1137.054275,18969
1138.361764,18504
1139.668665,18082
1140.974976,17913
1142.280699,17871
1143.585833,17305
1144.890379,16753
1146.194337,16854
1147.497708,16529
1148.800491,16542
1150.102687,16333
1151.404295,16453
1152.705318,16461
1154.005753,16441
1155.305603,16815
1156.604866,16243
1157.903544,16339
1159.201636,16335
1160.499143,15913
1161.796065,15644
1163.092402,15850
1164.388155,15608
1165.683324,15576
1166.977908,15293
1168.271909,15075
1169.565326,15341
1170.85816,14938
1172.150411,15220
1173.44208,14665
1174.733165,14672
1176.023669,14993
1177.31359,14600
1178.60293,14600
1179.891688,14885
1181.179865,14622
1182.467461,14073
1183.754476,14435
1185.04091,14683
1186.326765,14607
1187.612039,14429
1188.896733,14671
1190.180848,14608
1191.464383,14636
1192.747339,14418
1194.029717,14799
1195.311515,14550
1196.592736,14446
1197.873378,14764
1199.153442,15058
1200.432929,14974
1201.711838,15005
1202.990171,14821
1204.267926,14990
1205.545105,14610
1206.821707,14763
1208.097733,14665
1209.373183,14737
1210.648057,14568
1211.922356,14999
1213.196079,14614
1214.469228,14847
1215.741802,14887
1217.013801,14809
1218.285226,14662
1219.556077,14304
1220.826355,14652
1222.096058,14440
1223.365189,14663
1224.633746,14423
1225.90173,14404
1227.169142,14387
1228.435982,14613
1229.702249,14662
1230.967945,14516
1232.233069,14123
1233.497621,14600
1234.761602,13847
1236.025013,14358
1237.287852,14068
1238.550121,14312
1239.81182,14279
1241.072949,14156
1242.333509,14034
1243.593498,14325
1244.852919,14448
1246.11177,14100
1247.370053,14436
1248.627767,14246
1249.884912,14429
1251.14149,14286
1252.397499,14636
1253.652942,14457
1254.907816,14373
1256.162124,14503
1257.415864,14523
1258.669038,14756
1259.921646,14663
1261.173687,14607
1262.425162,14586
1263.676071,14982
1264.926415,14897
1266.176194,15074
1267.425408,15128
1268.674056,14835
1269.92214,14905
1271.16966,14899
1272.416616,14413
1273.663008,14721
1274.908836,14538
1276.1541,14319
1277.398802,14350
1278.64294,14325
1279.886516,14155
1281.129529,14345
1282.37198,14244
1283.613869,13884
1284.855196,14127
1286.095962,13822
1287.336166,13685
1288.575809,13745
1289.814891,13965
1291.053413,13746
1292.291374,13691
1293.528775,13733
1294.765616,13653
1296.001897,13747
1297.237618,13940
1298.472781,13532
1299.707384,13691
1300.941428,13421
1302.174914,13770
1303.407842,14103
1304.640211,13568
1305.872022,13768
1307.103276,14081
1308.333972,13600
1309.564111,13726
1310.793693,13986
1312.022719,13847
1313.251187,14173
1314.4791,14376
1315.706456,14019
1316.933256,13992
1318.159501,14622
1319.38519,14227
1320.610324,14297
1321.834903,14516
1323.058928,14389
1324.282398,14424
1325.505313,14290
1326.727675,14533
1327.949482,14812
1329.170736,14681
1330.391437,14821
1331.611584,15052
1332.831179,14635
1334.050221,14827
1335.26871,14561
1336.486647,14685
1337.704032,14662
1338.920865,14684
1340.137147,14576
1341.352877,14343
1342.568056,14437
1343.782684,14594
1344.996761,14299
1346.210288,14097
1347.423265,14534
1348.635691,14417
1349.847568,14383
1351.058895,14290
1352.269673,14361
1353.479901,14373
1354.689581,14501
1355.898712,14412
1357.107294,14633
1358.315329,14315
1359.522815,14735
1360.729753,14699
1361.936144,14708
1363.141987,14727
1364.347283,14960
1365.552032,14904
1366.756235,14562
1367.959891,14528
1369.163,14690
1370.365564,14673
1371.567582,14649
1372.769054,14497
1373.96998,14413
1375.170362,14687
1376.370198,14395
1377.56949,14505
1378.768237,14053
1379.96644,14235
1381.164099,13978
1382.361214,13830
1383.557785,13785
1384.753813,13719
1385.949297,13760
1387.144239,13707
1388.338637,13436
1389.532493,13721
1390.725807,12940
1391.918579,13351
1393.110808,13242
1394.302496,12901
1395.493643,12685
1396.684248,12912
1397.874312,12896
1399.063835,12512
1400.252818,12837
1401.44126,12487
1402.629162,12303
1403.816524,12085
1405.003346,12491
1406.189629,12173
1407.375372,12218
1408.560576,12162
1409.745241,12127
1410.929368,12074
1412.112956,12335
1413.296006,12183
1414.478517,12084
1415.660491,12076
1416.841927,11770
1418.022826,11976
1419.203188,12262
1420.383012,11988
1421.5623,11699
1422.741051,11979
1423.919266,11808
1425.096945,11746
1426.274088,11942
1427.450695,12000
1428.626766,11790
1429.802302,11725
1430.977303,12089
1432.15177,11787
1433.325701,12034
1434.499098,11738
1435.671961,12011
1436.84429,11947
1438.016085,12012
1439.187347,11881
1440.358075,11693
1441.528269,11598
1442.697931,11664
1443.86706,11997
1445.035657,11507
1446.203721,11799
1447.371253,11678
1448.538253,11792
1449.704721,11751
1450.870658,12024
1452.036064,11816
1453.200938,12119
1454.365282,12283
1455.529094,12272
1456.692377,12428
1457.855129,12338
1459.017351,12628
1460.179043,12134
1461.340206,12173
1462.500839,12074
1463.660943,12065
1464.820517,12067
1465.979563,11715
1467.138081,49
1468.29607,11920
1469.453531,11133
1470.610464,11304
1471.766869,10802
1472.922746,11090
1474.078096,10898
1475.232919,10689
1476.387215,10647
1477.540985,10491
1478.694227,10249
1479.846944,10284
1480.999134,10259
1482.150798,10304
1483.301937,10274
1484.45255,10125
1485.602637,10039
1486.7522,10206
1487.901238,10179
1489.049751,10316
1490.197739,10127
1491.345203,9748
1492.492144,10079
1493.63856,9904
1494.784452,10139
1495.929821,9990
1497.074667,10043
1498.21899,10432
1499.36279,10291
1500.506067,10316
1501.648821,10324
1502.791054,10194
1503.932764,10049
1505.073953,10262
1506.21462,10085
1507.354765,10376
1508.494389,10299
1509.633492,10091
1510.772074,10302
1511.910136,10123
1513.047677,10167
1514.184698,10266
1515.321198,10294
1516.457179,10262
1517.592641,10152
1518.727582,10316
1519.862005,10504
1520.995909,10382
1522.129293,10442
1523.262159,10556
1524.394507,10380
1525.526336,10326
1526.657647,10443
1527.788441,10428
1528.918717,10534
1530.048475,10613
1531.177716,10582
1532.30644,10746
1533.434647,10532
1534.562338,10755
1535.689512,10579
1536.816169,10649
1537.942311,11077
1539.067937,11005
1540.193047,11006
1541.317642,10692
1542.441721,10729
1543.565285,10965
1544.688335,10721
1545.81087,10523
1546.93289,10937
1548.054396,10765
1549.175388,11225
1550.295866,11145
1551.41583,11128
1552.535281,11323
1553.654218,11575
1554.772643,11451
1555.890554,11363
1557.007953,11317
1558.124839,11378
1559.241213,10998
1560.357075,11648
1561.472424,11414
1562.587262,11387
1563.701589,11679
1564.815404,11500
1565.928708,11746
1567.041501,11589
1568.153783,11748
1569.265555,11686
1570.376816,11587
1571.487567,11577
1572.597808,11661
1573.707539,11895
1574.816761,11745
1575.925473,12368
1577.033676,12015
1578.14137,12315
1579.248555,12202
1580.355231,12301
1581.461399,12063
1582.567059,12336
1583.672211,12516
1584.776854,12372
1585.88099,12677
1586.984619,12820
1588.08774,13002
1589.190354,12813
1590.292462,12744
1591.394062,13527
1592.495156,13237
1593.595744,13389
1594.695825,13335
1595.795401,13260
1596.89447,13436
1597.993034,13609
1599.091093,13881
1600.188647,13934
1601.285695,14101
1602.382239,14055
1603.478278,14391
1604.573812,14491
1605.668843,14489
1606.763369,14665
1607.857391,14862
1608.95091,14844
1610.043925,14984
1611.136437,15121
1612.228446,15207
1613.319952,15425
1614.410955,15495
1615.501455,15758
1616.591453,15801
1617.680949,15636
1618.769943,16089
1619.858435,16032
1620.946426,16044
1622.033915,16371
1623.120903,16386
1624.20739,16557
1625.293376,16233
1626.378861,16655
1627.463845,16540
1628.54833,16515
1629.632314,16707
1630.715799,16811
1631.798783,16766
1632.881268,16908
1633.963254,16754
1635.04474,16526
1636.125728,16954
1637.206216,16798
1638.286206,16831
1639.365698,16820
1640.444691,16717
1641.523187,16704
1642.601184,16284
1643.678683,16806
1644.755686,16535
1645.83219,16339
1646.908198,16585
1647.983708,16490
1649.058722,16371
1650.133239,16350
1651.20726,16286
1652.280785,16359
1653.353813,15873
1654.426346,15680
1655.498383,15616
1656.569924,16186
1657.64097,15626
1658.711521,15483
1659.781577,15467
1660.851139,15457
1661.920205,15530
1662.988777,14975
1664.056855,14858
1665.124439,14692
1666.191529,14231
1667.258126,14630
1668.324229,14112
1669.389838,14056
1670.454955,13928
1671.519578,13678
1672.583709,13929
1673.647347,13288
1674.710493,13227
1675.773147,12925
1676.835308,13136
1677.896978,12839
1678.958155,12684
1680.018842,12348
1681.079037,12113
1682.138741,12140
1683.197954,11768
1684.256676,11590
1685.314908,11082
1686.372649,11237
1687.4299,11142
1688.48666,11073
1689.542931,10529
1690.598713,10787
1691.654004,10709
1692.708807,10440
1693.76312,10345
1694.816944,10145
1695.870279,10352
1696.923126,10207
1697.975484,9678
1699.027354,9641
1700.078736,9785
1701.12963,9385
1702.180036,9584
1703.229955,9337
1704.279386,9315
1705.32833,9193
1706.376787,8951
1707.424757,8904
1708.47224,8751
1709.519237,8584
1710.565748,8387
1711.611772,8448
1712.65731,8297
1713.702363,8274
1714.74693,8325
1715.791011,8262
1716.834608,8187
1717.877719,8317
1718.920345,7919
1719.962486,7667
1721.004143,7728
1722.045316,7468
1723.086004,7603
1724.126208,7556
1725.165929,7548
1726.205165,7557
1727.243918,7307
1728.282188,7132
1729.319975,6983
1730.357278,7072
1731.394099,6971
1732.430437,6568
1733.466293,6700
1734.501666,6778
1735.536557,6822
1736.570967,6802
1737.604894,6514
1738.63834,6388
1739.671304,6804
1740.703787,6373
1741.735789,6486
1742.767311,6549
1743.798351,6306
1744.828911,6220
1745.85899,5929
1746.888589,6149
1747.917708,6323
1748.946348,6075
1749.974507,6054
1751.002187,5697
1752.029388,5839
1753.056109,5818
1754.082351,5646
1755.108115,5968
1756.1334,5673
1757.158206,5836
1758.182534,5583
1759.206384,5829
1760.229755,5923
1761.252649,5519
1762.275065,5573
1763.297004,5666
1764.318466,5211
1765.33945,5244
1766.359957,5398
1767.379988,5351
1768.399542,5209
1769.418619,4794
1770.43722,4896
1771.455345,4975
1772.472994,5166
1773.490167,4903
1774.506865,5049
1775.523087,4763
1776.538834,4790
1777.554106,4944
1778.568902,5018
1779.583224,4821
1780.597072,4510
1781.610444,4789
1782.623343,4708
1783.635768,4557
1784.647718,4505
1785.659195,4618
1786.670198,4573
1787.680728,4718
1788.690784,4545
1789.700368,4581
1790.709478,4610
1791.718116,4801
1792.726281,4598
1793.733973,4391
1794.741194,4467
1795.747942,4512
1796.754218,4575
1797.760023,4354
1798.765356,4498
1799.770217,4724
1800.774607,4734
1801.778526,4336
1802.781974,4113
1803.784952,4352
1804.787458,4354
1805.789495,4262
1806.791061,4273
1807.792156,4413
1808.792782,4337
1809.792938,4186
1810.792625,4410
1811.791842,4249
1812.79059,4197
1813.788868,4301
1814.786678,4314
1815.784019,4234
1816.780891,4147
1817.777295,4189
1818.77323,4061
1819.768697,4326
1820.763697,4537
1821.758228,4250
1822.752292,4271
1823.745888,4075
1824.739017,3998
1825.731679,4011
1826.723874,4379
1827.715602,4088
1828.706863,4022
1829.697658,4192
1830.687986,4474
1831.677848,4552
1832.667244,4140
1833.656175,4629
1834.644639,5690
1835.632638,4782
1836.620172,4038
1837.60724,3994
1838.593844,4311
1839.579982,3856
1840.565656,4216
1841.550865,4134
1842.53561,3917
1843.51989,4108
1844.503706,3926
1845.487059,4067
1846.469947,3823
1847.452372,4049
1848.434334,4185
1849.415832,4145
1850.396867,4392
1851.377439,4074
1852.357549,3873
1853.337195,3899
1854.31638,4145
1855.295101,4046
1856.273361,3937
1857.251159,3905
1858.228494,4146
1859.205369,3931
1860.181781,3998
1861.157732,4005
1862.133222,3985
1863.108251,3950
1864.082819,3980
1865.056926,3737
1866.030573,3837
1867.003759,4231
1867.976485,3760
1868.948751,3636
1869.920556,3751
1870.891902,3739
1871.862789,3670
1872.833216,3766
1873.803183,3777
1874.772691,3650
1875.741741,3722
1876.710331,3752
1877.678463,3603
1878.646136,3629
1879.613351,3497
1880.580108,3699
1881.546406,3612
1882.512247,3412
1883.47763,3679
1884.442555,3735
1885.407023,3586
1886.371033,3485
1887.334586,3890
1888.297683,3672
1889.260322,3680
1890.222505,3648
1891.184231,3393
1892.145501,3454
1893.106315,3567
1894.066673,3330
1895.026574,3587
1895.98602,3499
1896.945011,3441
1897.903546,3328
1898.861626,3618
1899.81925,3440
1900.77642,3404
1901.733135,3477
1902.689395,3366
1903.6452,3620
1904.600551,3177
1905.555448,3604
1906.509891,3493
1907.46388,3431
1908.417416,3618
1909.370498,3551
1910.323126,3886
1911.275301,3703
1912.227023,3316
1913.178292,3847
1914.129108,3550
1915.079471,3426
1916.029382,3536
1916.97884,3661
1917.927846,3258
1918.876401,3590
1919.824503,3602
1920.772153,3732
1921.719352,3717
1922.6661,3592
1923.612396,3525
1924.558241,3725
1925.503635,3337
1926.448578,3547
1927.39307,3486
1928.337112,3755
1929.280703,3595
1930.223844,3651
1931.166535,3706
1932.108776,3448
1933.050568,3590
1933.991909,3948
1934.932801,3528
1935.873244,3571
1936.813238,3602
1937.752782,3568
1938.691878,3725
1939.630525,3719
1940.568723,3852
1941.506473,3919
1942.443774,3854
1943.380627,3595
1944.317033,3710
1945.25299,3601
1946.1885,3722
1947.123562,3667
1948.058177,3422
1948.992344,3783
1949.926065,3841
1950.859338,3646
1951.792165,3594
1952.724545,3714
1953.656478,3574
1954.587965,3909
1955.519006,3899
1956.4496,3544
1957.379749,3621
1958.309452,3651
1959.238709,3511
1960.167521,3328
1961.095888,3595
1962.023809,3787
1962.951285,3644
1963.878317,3426
1964.804903,3544
1965.731045,3490
1966.656743,3788
1967.581996,3510
1968.506805,3618
1969.43117,3664
1970.355091,3631
1971.278568,3639
1972.201602,3692
1973.124192,3614
1974.046339,3829
1974.968043,3544
1975.889304,3658
1976.810122,3401
1977.730498,3609
1978.65043,3681
1979.569921,3786
1980.488969,3814
1981.407574,3433
1982.325738,3381
1983.24346,3617
1984.160741,3430
1985.077579,3710
1985.993977,3699
1986.909933,3899
1987.825448,3561
1988.740522,3431
1989.655155,3601
1990.569347,3554
1991.483099,3374
1992.396411,3645
1993.309282,3458
1994.221713,3443
1995.133704,3703
1996.045256,3567
1996.956367,3413
1997.867039,3580
1998.777272,3842
1999.687065,3320
2000.596419,3754
2001.505335,3733
2002.413811,3778
2003.321849,3862
2004.229448,3714
2005.136609,3710
2006.043331,3691
2006.949616,3696
2007.855462,3616
2008.760871,3549
2009.665841,4023
2010.570375,3636
2011.47447,3662
2012.378129,3853
2013.281351,3647
2014.184135,3846
2015.086483,3515
2015.988393,3598
2016.889868,3407
2017.790906,3732
2018.691507,3566
2019.591673,3506
2020.491402,3853
2021.390695,3794
2022.289553,3941
2023.187975,3797
2024.085962,3574
2024.983514,3779
2025.88063,3672
2026.777311,3891
2027.673557,3633
2028.569369,3619
2029.464746,3946
2030.359688,3785
2031.254197,3772
2032.148271,3891
2033.04191,3704
2033.935116,3837
2034.827889,3683
2035.720227,3754
2036.612132,3720
2037.503604,3692
2038.394642,3797
2039.285248,3788
2040.17542,3866
2041.06516,3811
2041.954466,3728
2042.843341,3653
2043.731783,3899
2044.619792,3703
2045.50737,3284
2046.394516,3864
2047.281229,3855
2048.167511,3496
2049.053362,3532
2049.938781,3337
2050.823768,3552
2051.708325,3824
2052.59245,3616
2053.476145,3704
2054.359409,3689
2055.242242,3565
2056.124645,3332
2057.006617,3812
2057.888159,3242
2058.769271,3549
2059.649953,3667
2060.530206,3527
2061.410028,3631
2062.289421,3364
2063.168385,3805
2064.046919,3438
2064.925025,3570
2065.802701,3912
2066.679949,3549
2067.556767,3623
2068.433157,3737
2069.309119,3863
2070.184652,3611
2071.059758,3625
2071.934435,3586
2072.808684,3383
2073.682505,3774
2074.555899,3466
2075.428865,3551
2076.301404,3886
2077.173516,3648
2078.0452,3336
2078.916458,3766
2079.787289,3634
2080.657693,3807
2081.52767,3546
2082.397221,3567
2083.266346,3834
2084.135044,3465
2085.003316,3620
2085.871163,3618
2086.738584,3526
2087.605579,3604
2088.472148,3823
2089.338292,3845
2090.204011,3705
2091.069305,3422
2091.934174,3565
2092.798618,3350
2093.662637,3497
2094.526231,3609
2095.389402,3763
2096.252147,3441
2097.114469,3696
2097.976366,3335
2098.83784,3487
2099.69889,3696
2100.559516,3465
2101.419719,3622
2102.279498,3550
2103.138854,3744
2103.997786,3632
2104.856296,3759
2105.714383,3732
2106.572047,3737
2107.429289,3686
2108.286108,3754
2109.142504,3516
2109.998479,3474
2110.854031,3493
2111.709161,3434
2112.56387,3274
2113.418156,3493
2114.272021,3430
2115.125465,3505
2115.978487,3784
2116.831089,3501
2117.683269,3535
2118.535028,3753
2119.386366,3375
2120.237284,3408
2121.087781,3391
2121.937857,3392
2122.787514,3293
2123.63675,3446
2124.485566,3109
2125.333962,3464
2126.181939,3414
2127.029496,3557
2127.876633,3688
2128.723351,3229
2129.569649,3242
2130.415529,3175
2131.260989,3059
2132.106031,3505
2132.950654,3159
2133.794858,3280
2134.638643,3312
2135.482011,3222
2136.32496,2979
2137.167491,3296
2138.009604,3071
2138.851299,3036
2139.692576,3191
2140.533436,3588
2141.373878,2950
2142.213903,3200
2143.05351,3184
2143.892701,3402
2144.731474,3251
2145.569831,2913
2146.407771,3011
2147.245294,3238
2148.082401,3096
2148.919091,3194
2149.755365,3071
2150.591224,2914
2151.426666,3077
2152.261692,3164
2153.096302,3004
2153.930497,3090
2154.764277,2910
2155.597641,2905
2156.43059,2994
2157.263124,3218
2158.095242,2890
2158.926946,2768
2159.758236,2875
2160.58911,2902
2161.41957,3275
2162.249616,2911
2163.079248,3020
2163.908465,2946
2164.737269,2654
2165.565658,2914
2166.393634,2694
2167.221196,2814
2168.048345,2614
2168.87508,2901
2169.701402,3048
2170.527311,2608
2171.352807,3021
2172.177891,2884
2173.002561,2721
2173.826819,2836
2174.650664,2973
2175.474097,2843
2176.297117,2870
2177.119726,3109
2177.941922,2740
2178.763707,2655
2179.58508,2800
2180.406041,2581
2181.22659,2629
2182.046729,2906
2182.866456,2666
2183.685771,2813
2184.504676,2769
2185.32317,2497
2186.141253,2797
2186.958925,2812
2187.776187,2659
2188.593038,2583
2189.409479,2981
2190.22551,2665
2191.041131,2446
2191.856342,2670
2192.671143,2764
2193.485534,2659
2194.299516,2339
2195.113088,2717
2195.926251,2596
2196.739005,2650
2197.551349,2630
2198.363285,2454
2199.174812,2579
2199.98593,2497
2200.796639,2028
2201.60694,2601
2202.416832,2362
2203.226317,2538
2204.035393,2497
2204.844061,2724
2205.652321,2403
2206.460173,2563
2207.267618,2248
2208.074655,2235
2208.881285,2252
2209.687507,2658
2210.493322,2384
2211.29873,2476
2212.103732,2340
2212.908326,2222
2213.712513,2498
2214.516294,2432
2215.319669,2324
2216.122637,2143
2216.925199,2184
2217.727355,2268
2218.529105,2217
2219.330449,2127
2220.131387,2432
2220.931919,2161
2221.732046,2361
2222.531768,2063
2223.331084,2224
2224.129995,2231
2224.928501,2153
2225.726602,2209
2226.524298,2174
2227.321589,2149
2228.118476,2022
2228.914959,2313
2229.711037,2099
2230.50671,2057
2231.30198,2273
2232.096846,2405
2232.891307,2199
2233.685365,2312
2234.479019,2369
2235.27227,1857
2236.065117,2399
2236.857561,2398
2237.649602,2017
2238.441239,2061
2239.232474,2191
2240.023306,2174
2240.813735,2154
2241.603761,1919
2242.393385,2015
2243.182607,2076
2243.971426,2258
2244.759843,2285
2245.547858,2214
2246.335471,2334
2247.122682,1855
2247.909492,2212
2248.6959,1993
2249.481906,1791
2250.267511,1747
2251.052715,2314
2251.837518,2025
2252.621919,1827
2253.40592,1800
2254.18952,1834
2254.972719,1837
2255.755518,1771
2256.537916,1834
2257.319914,2014
2258.101512,1886
2258.88271,1893
2259.663507,2456
2260.443905,1785
2261.223903,2120
2262.003501,1951
2262.7827,2145
2263.561499,2583
2264.339899,1835
2265.1179,1613
2265.895501,1804
2266.672704,1989
2267.449508,1808
2268.225913,1648
2269.001919,1863
2269.777527,1405
2270.552737,1735
2271.327548,1854
2272.101961,1623
2272.875975,1808
2273.649592,1759
2274.422811,1870
2275.195632,1538
2275.968056,1980
2276.740082,1587
2277.511711,1840
2278.282942,1966
2279.053776,1620
2279.824213,1557
2280.594253,1804
2281.363897,1725
2282.133143,1885
2282.901993,1628
2283.670446,1907
2284.438503,1570
2285.206164,1489
2285.973428,1519
2286.740296,1470
2287.506769,1574
2288.272845,1672
2289.038526,1355
2289.803811,1666
2290.5687,1698
2291.333194,1792
2292.097293,1727
2292.860997,1500
2293.624305,1804
2294.387219,1671
2295.149737,1365
2295.911861,1574
2296.67359,1684
2297.434925,1503
2298.195865,1750
2298.956411,1329
2299.716562,1653
2300.47632,1723
2301.235683,1454
2301.994653,1760
2302.753229,2001
2303.511411,1657
2304.269199,1686
2305.026594,1392
2305.783596,1586
2306.540204,1489
2307.29642,1281
2308.052242,1700
2308.807671,1552
2309.562708,1667
2310.317351,1933
2311.071603,1473
2311.825461,1586
2312.578928,1381
2313.332002,1618
2314.084684,1555
2314.836973,1347
2315.588871,1308
2316.340377,1315
2317.091491,1320
2317.842214,1430
2318.592545,1460
2319.342485,1655
2320.092033,1458
2320.84119,1493
2321.589956,1204
2322.338331,1938
2323.086315,1138
2323.833908,1326
2324.581111,1703
2325.327923,1296
2326.074345,1431
2326.820376,1756
2327.566017,1384
2328.311268,1444
2329.056129,1461
2329.800599,1442
2330.54468,1382
2331.288372,1319
2332.031673,1199
2332.774585,1581
2333.517108,1624
2334.259242,1711
2335.000986,1434
2335.742341,1458
2336.483307,1285
2337.223884,1458
2337.964073,1306
2338.703872,1251
2339.443283,1164
2340.182306,1389
2340.92094,1256
2341.659187,1367
2342.397044,1174
2343.134514,1254
2343.871596,1177
2344.60829,1300
2345.344597,1066
2346.080515,1435
2346.816046,1281
2347.55119,1819
2348.285946,1204
2349.020316,1264
2349.754298,1270
2350.487893,1265
2351.221101,1680
2351.953922,1553
2352.686356,1095
2353.418404,1143
2354.150066,1347
2354.881341,1415
2355.61223,1357
2356.342732,1164
2357.072849,1028
2357.802579,1422
2358.531924,1132
2359.260883,1039
2359.989456,1355
2360.717643,1371
2361.445445,1135
2362.172862,1403
2362.899893,986
2363.626539,1214
2364.352801,1278
2365.078677,1214
2365.804168,1394
2366.529275,1368
2367.253996,1357
2367.978334,1048
2368.702286,1155
2369.425855,1128
2370.149039,1319
2370.871839,1009
2371.594255,1015
2372.316287,1116
2373.037935,1056
2373.7592,1056
2374.48008,1229
2375.200578,1258
2375.920691,1080
2376.640422,1278
2377.359769,873
2378.078733,1097
2378.797314,1092
2379.515511,970
2380.233327,888
2380.950759,1303
2381.667808,1043
2382.384476,1263
2383.10076,1242
2383.816663,1135
2384.532183,1086
2385.24732,800
2385.962076,774
2386.67645,887
2387.390442,1202
2388.104052,1094
2388.817281,826
2389.530128,990
2390.242593,1084
2390.954677,1181
2391.66638,871
2392.377702,1022
2393.088643,860
2393.799202,1068
2394.509381,767
2395.219179,1252
2395.928596,1244
2396.637633,916
2397.346289,842
2398.054565,842
2398.762461,594
2399.469976,829
2400.177111,756
2400.883867,739
2401.590242,932
2402.296238,798
2403.001854,787
2403.70709,975
2404.411947,838
2405.116424,959
2405.820522,635
2406.524241,740
2407.227581,606
2407.930542,537
2408.633123,1034
2409.335326,556
2410.037151,388
