Frequency,Intensity
-31.722347,12014
-29.886687,13759
-28.051868,16318
-26.217889,18432
-24.384749,22161
-22.552448,25546
-20.720985,29000
-18.890361,33214
-17.060575,36521
-15.231626,43046
-13.403514,42223
-11.576239,47062
-9.749799,47268
-7.924195,45187
-6.099426,36729
-4.275492,36334
-2.452392,40858
-0.630127,36391
1.191306,33252
3.011906,32103
4.831672,37680
6.650607,40484
8.46871,28834
10.285982,23938
12.102423,21247
13.918034,19792
15.732815,18482
17.546766,18510
19.359888,17470
21.172181,15153
22.983647,12391
24.794284,10892
26.604094,10396
28.413077,9582
30.221233,8746
32.028563,6908
33.835068,5391
35.640747,4887
37.445602,4284
39.249632,4350
41.052838,4175
42.855221,4094
44.656781,3799
46.457517,3653
48.257432,3608
50.056525,3123
51.854796,3112
53.652246,3332
55.448876,3290
57.244685,3207
59.039675,3392
60.833846,3507
62.627197,3619
64.41973,3840
66.211446,4121
68.002343,4177
69.792423,4096
71.581687,4790
73.370134,4797
75.157765,4985
76.944581,5834
78.730581,6407
80.515767,7290
82.300139,7968
84.083697,9327
85.866441,10180
87.648372,11236
89.429491,12638
91.209797,14287
92.989292,16886
94.767976,19271
96.545848,22593
98.32291,26706
100.099162,32547
101.874604,27543
103.649237,31662
105.423061,31680
107.196077,36683
108.968284,35336
110.739684,34492
112.510277,32736
114.280063,32579
116.049042,31970
117.817216,35915
119.584584,43049
121.351147,38387
123.116905,36530
124.881859,37700
126.646009,28674
128.409356,41589
130.171899,40566
131.93364,38008
133.694578,27305
135.454715,34480
137.21405,33107
138.972584,29174
140.730317,43583
142.48725,36069
144.243384,25397
145.998718,34806
147.753252,28948
149.506989,34930
151.259927,36401
153.012067,42777
154.76341,33152
156.513956,40013
158.263705,35888
160.012659,36511
161.760816,30099
163.508178,36255
165.254745,33419
167.000518,36921
168.745496,38220
170.489681,35348
172.233072,35874
173.975671,42688
175.717476,28205
177.45849,37005
179.198712,29517
180.938142,35772
182.676782,29793
184.414631,36939
186.15169,33871
187.887959,28665
189.623439,39785
191.35813,30691
193.092032,34828
194.825147,33686
196.557473,33071
198.289012,34869
200.019764,33096
201.74973,31593
203.478909,35478
205.207303,35544
206.934911,37413
208.661735,38301
210.387773,31857
212.113028,31146
213.837499,30611
215.561186,34225
217.28409,34603
219.006212,32343
220.727552,32738
222.44811,37516
224.167886,37081
225.886881,33066
227.605096,34440
229.32253,31638
231.039185,31651
232.75506,30153
234.470156,23914
236.184473,32583
237.898012,28620
239.610773,28960
241.322757,36929
243.033964,36154
244.744393,28410
246.454047,34013
248.162924,31307
249.871026,31177
251.578353,34228
253.284905,30778
254.990683,40187
256.695686,31750
258.399916,35209
260.103373,36045
261.806057,35728
263.507968,38742
265.209107,32618
266.909475,31753
268.609071,32879
270.307897,28267
272.005952,33666
273.703236,34710
275.399751,33451
277.095497,31908
278.790473,38052
280.484681,30608
282.178121,33596
283.870793,38350
285.562697,30083
287.253835,39961
288.944205,38219
290.633809,30243
292.322648,31788
294.010721,35912
295.698028,38077
297.384571,39744
299.070349,37484
300.755364,39013
302.439614,34425
304.123102,34483
305.805826,36667
307.487788,34799
309.168988,34669
310.849426,39563
312.529103,32646
314.208018,32508
315.886173,21784
317.563568,35785
319.240203,36846
320.916079,39708
322.591195,35937
324.265552,38055
325.939151,34499
327.611993,34822
329.284076,35087
330.955402,36185
332.625972,41752
334.295785,36866
335.964841,34170
337.633142,31442
339.300688,37943
340.967479,29725
342.633515,37692
344.298796,35448
345.963324,36004
347.627098,34950
349.29012,39939
350.952388,35103
352.613904,36777
354.274668,33729
355.93468,33352
357.593941,37910
359.252451,38106
360.910211,30727
362.56722,36269
364.22348,32977
365.87899,30086
367.533751,40544
369.187763,34756
370.841027,33255
372.493543,36133
374.145311,42108
375.796332,37231
377.446607,22357
379.096134,41992
380.744916,33969
382.392952,31207
384.040242,37160
385.686787,46449
387.332588,36557
388.977645,39605
390.621957,35892
392.265526,41453
393.908351,31025
395.550434,39849
397.191775,37389
398.832373,28245
400.472229,39173
402.111344,43011
403.749718,42787
405.387351,39079
407.024244,29683
408.660397,37575
410.295811,39926
411.930485,40966
413.56442,39770
415.197617,47458
416.830076,25656
418.461796,40588
420.09278,39966
421.723026,36466
423.352536,29428
424.981309,31523
426.609346,37403
428.236648,35682
429.863214,41218
431.489046,43695
433.114143,29570
434.738505,39790
436.362134,32566
437.98503,31248
439.607192,35608
441.228621,32644
442.849318,38390
444.469283,30738
446.088516,37091
447.707018,32383
449.324789,27907
450.941829,35202
452.558139,31700
454.173719,38228
455.78857,6194
457.402691,36284
459.016083,37974
460.628747,37783
462.240682,39275
463.85189,38868
465.46237,35979
467.072124,39182
468.68115,31346
470.28945,39522
471.897024,33459
473.503872,33656
475.109995,39732
476.715393,34904
478.320066,40188
479.924015,34280
481.52724,36197
483.129741,35219
484.731519,32687
486.332575,38383
487.932907,26797
489.532517,37145
491.131406,30594
492.729573,30510
494.327019,36536
495.923744,36671
497.519748,28321
499.115033,35160
500.709597,39054
502.303442,37887
503.896568,36248
505.488976,34755
507.080665,38163
508.671635,37320
510.261889,28772
511.851424,36245
513.440243,32458
515.028345,37930
516.615731,38811
518.202401,36669
519.788355,34789
521.373593,41640
522.958117,35536
524.541926,28876
526.125021,35999
527.707402,29721
529.28907,36599
530.870024,24863
532.450265,30101
534.029794,35010
535.60861,34279
537.186715,41644
538.764108,31998
540.340789,29403
541.91676,38570
543.492021,39202
545.066571,33033
546.640411,34824
548.213542,31616
549.785964,30656
551.357676,39704
552.928681,34865
554.498977,44281
556.068565,31869
557.637446,40743
559.20562,43531
560.773087,39733
562.339847,35675
563.905901,33089
565.47125,31594
567.035893,30766
568.599831,31847
570.163064,36850
571.725593,35911
573.287417,37250
574.848538,41226
576.408955,35212
577.968669,33122
579.52768,35892
581.085989,31072
582.643596,39136
584.200501,36743
585.756704,31890
587.312207,41751
588.867008,38547
590.42111,38559
591.974511,33980
593.527212,34924
595.079214,30234
596.630516,38502
598.18112,39368
599.731025,24069
601.280232,35759
602.828742,38600
604.376554,36350
605.923668,38387
607.470086,32423
609.015808,41134
610.560833,36001
612.105162,38410
613.648796,35300
615.191735,34378
616.733979,32712
618.275528,42941
619.816383,32080
621.356544,30901
622.896012,36762
624.434787,38271
625.972868,32721
627.510257,33273
629.046954,38403
630.582959,32592
632.118272,32838
633.652894,40429
635.186825,36655
636.720066,37258
638.252616,32865
639.784476,39766
641.315647,30773
642.846128,29230
644.37592,32432
645.905024,32691
647.433439,27620
648.961166,40295
650.488206,40189
652.014558,30155
653.540223,32068
655.065201,35279
656.589493,36969
658.113099,34825
659.636019,35218
661.158253,34337
662.679803,37942
664.200668,35387
665.720848,38232
667.240344,37872
668.759156,34617
670.277284,33870
671.79473,37321
673.311492,35099
674.827572,36679
676.34297,36845
677.857686,33196
679.37172,36532
680.885072,27820
682.397744,35055
683.909735,35983
685.421046,33409
686.931677,35575
688.441628,30129
689.950899,35965
691.459492,35442
692.967406,35388
694.474641,35320
695.981198,35403
697.487078,16039
698.992279,35296
700.496804,35251
702.000652,34617
703.503823,28889
705.006318,29892
706.508137,34927
708.00928,32061
709.509748,34992
711.009541,34305
712.50866,34229
714.007104,30923
715.504874,29313
717.00197,34481
718.498393,33835
719.994142,34527
721.489219,34119
722.983624,33359
724.477356,33741
725.970416,29200
727.462805,33487
728.954522,31732
730.445569,25126
731.935944,33434
733.42565,32835
734.914685,33405
736.403051,33009
737.890748,33062
739.377775,32956
740.864133,27294
742.349823,32195
743.834845,32339
745.319199,33118
746.802886,32853
748.285905,32919
749.768257,32566
751.249943,32412
752.730962,32712
754.211315,32082
755.691003,32442
757.170025,32424
758.648382,29176
760.126075,31769
761.603102,31934
763.079466,32258
764.555166,31807
766.030202,31857
767.504575,30769
768.978285,31652
770.451332,31560
771.923717,31867
773.39544,31547
774.866501,31499
776.3369,31085
777.806639,31011
779.275716,31238
780.744134,30408
782.21189,29636
783.678987,30003
785.145425,29535
786.611203,29966
788.076322,29731
789.540782,29482
791.004583,27897
792.467727,28928
793.930213,28544
795.392041,27851
796.853212,28266
798.313726,27949
799.773584,27813
801.232785,27715
802.69133,27793
804.14922,27128
805.606454,27475
807.063032,27159
808.518956,27224
809.974226,27048
811.428841,26609
812.882802,26465
814.33611,26335
815.788764,26161
817.240766,26067
818.692114,26070
820.14281,24708
821.592854,25789
823.042246,25567
824.490986,25567
825.939075,24940
827.386514,25682
828.833301,24920
830.279438,25083
831.724925,24582
833.169762,24625
834.61395,25004
836.057488,24703
837.500378,24492
838.942619,24900
840.384212,24722
841.825156,25127
843.265453,24728
844.705102,16384
846.144105,24815
847.58246,24680
849.020169,24424
850.457231,24273
851.893648,24317
853.329418,24176
854.764544,24353
856.199024,23795
857.632859,24037
859.06605,23853
860.498597,23825
861.9305,23887
863.361759,23506
864.792374,23331
866.222347,22979
867.651677,22905
869.080364,23021
870.508409,22782
871.935812,22535
873.362574,22251
874.788694,22022
876.214173,22175
877.639011,21914
879.063209,21906
880.486766,21773
881.909684,21700
883.331962,21529
884.753601,21342
886.174601,21438
887.594961,21460
889.014684,21307
890.433768,21570
891.852214,21512
893.270023,21270
894.687194,21833
896.103729,21854
897.519626,22006
898.934887,21633
900.349512,21690
901.763501,21485
903.176854,21194
904.589572,21382
906.001655,20782
907.413103,20652
908.823917,20799
910.234096,20558
911.643642,20128
913.052554,20440
914.460832,19903
915.868477,20629
917.27549,20156
918.68187,20355
920.087618,20031
921.492734,19870
922.897218,19774
924.301071,19337
925.704292,18465
927.106883,18708
928.508844,18630
929.910174,18364
931.310874,18178
932.710944,18369
934.110385,17779
935.509197,17914
936.907379,17899
938.304934,17892
939.70186,17389
941.098158,17206
942.493828,17470
943.88887,17273
945.283286,17033
946.677075,17247
948.070236,17498
949.462772,16916
950.854681,17202
952.245965,17096
953.636623,16971
955.026656,16878
956.416064,16741
957.804847,16900
959.193006,16551
960.58054,16433
961.967451,16532
963.353738,16663
964.739402,16555
966.124442,16730
967.50886,16546
968.892656,16321
970.275829,16201
971.65838,16579
973.04031,16460
974.421618,16208
975.802305,16749
977.182371,16457
978.561816,16653
979.940641,16297
981.318846,16741
982.696432,16344
984.073398,16147
985.449744,16638
986.825472,16703
988.200581,16083
989.575072,16585
990.948944,16576
992.322199,16802
993.694836,16828
995.066855,16716
996.438258,17144
997.809044,16933
999.179213,16806
1000.548766,16577
1001.917703,16833
1003.286024,16957
1004.65373,16925
1006.020821,16928
1007.387297,17153
1008.753158,16241
1010.118405,14424
1011.483038,17106
1012.847057,17319
1014.210462,17528
1015.573254,17505
1016.935433,17529
1018.296999,17354
1019.657953,17593
1021.018295,17119
1022.378025,17159
1023.737143,17189
1025.095649,17286
1026.453544,17052
1027.810829,17357
1029.167503,17520
1030.523566,17249
1031.87902,17322
1033.233863,17283
1034.588097,17204
1035.941722,17503
1037.294738,17450
1038.647145,17580
1039.998943,17654
1041.350133,17641
1042.700716,17258
1044.05069,17614
1045.400057,17521
1046.748817,17582
1048.09697,17452
1049.444516,17620
1050.791456,17826
1052.13779,17995
1053.483518,17984
1054.82864,18585
1056.173157,18415
1057.517069,18788
1058.860376,18816
1060.203079,19173
1061.545177,19249
1062.886671,19363
1064.227562,19309
1065.567848,19011
1066.907532,18819
1068.246613,18934
1069.585091,18621
1070.922966,18609
1072.260239,18224
1073.596911,18066
1074.93298,17744
1076.268448,18022
1077.603315,17420
1078.937581,17689
1080.271247,17614
1081.604312,17141
1082.936776,17122
1084.268641,16911
1085.599907,16680
1086.930573,16762
1088.260639,16331
1089.590107,16330
1090.918977,16093
1092.247248,16253
1093.574921,16082
1094.901996,16306
1096.228474,16180
1097.554354,16397
1098.879637,16882
1100.204323,16878
1101.528413,17068
1102.851907,17077
1104.174804,17249
1105.497106,17264
1106.818812,17424
1108.139923,17365
1109.460439,17998
1110.78036,17489
1112.099687,17857
1113.41842,17831
1114.736558,18197
1116.054103,18146
1117.371054,18536
1118.687412,18332
1120.003177,19069
1121.318349,18782
1122.632929,18762
1123.946916,18839
1125.260312,19089
1126.573116,18641
1127.885328,18686
1129.196949,18712
1130.507979,18491
1131.818419,18031
1133.128268,18051
1134.437527,17258
1135.746195,17161
1137.054275,16674
1138.361764,16072
1139.668665,16261
1140.974976,15880
1142.280699,15667
1143.585833,15158
1144.890379,15549
1146.194337,15043
1147.497708,15107
1148.800491,15001
1150.102687,14812
1151.404295,14708
1152.705318,14906
1154.005753,14539
1155.305603,14727
1156.604866,14591
1157.903544,14371
1159.201636,14384
1160.499143,14319
1161.796065,14261
1163.092402,14203
1164.388155,14120
1165.683324,13951
1166.977908,14164
1168.271909,13854
1169.565326,14060
1170.85816,13713
1172.150411,13769
1173.44208,13689
1174.733165,13628
1176.023669,13751
1177.31359,13676
1178.60293,13253
1179.891688,13535
1181.179865,13299
1182.467461,13533
1183.754476,13251
1185.04091,13469
1186.326765,13380
1187.612039,13321
1188.896733,13648
1190.180848,13906
1191.464383,13469
1192.747339,13813
1194.029717,13496
1195.311515,13589
1196.592736,13600
1197.873378,13831
1199.153442,13735
1200.432929,13865
1201.711838,13825
1202.990171,13913
1204.267926,13774
1205.545105,13661
1206.821707,14141
1208.097733,13784
1209.373183,13811
1210.648057,13468
1211.922356,13942
1213.196079,13782
1214.469228,13617
1215.741802,13754
1217.013801,13681
1218.285226,13240
1219.556077,13448
1220.826355,13705
1222.096058,13428
1223.365189,13554
1224.633746,13611
1225.90173,13269
1227.169142,13598
1228.435982,13595
1229.702249,13290
1230.967945,13562
1232.233069,13139
1233.497621,13530
1234.761602,13124
1236.025013,13192
1237.287852,13050
1238.550121,13037
1239.81182,13264
1241.072949,13085
1242.333509,13061
1243.593498,13142
1244.852919,13283
1246.11177,13235
1247.370053,13280
1248.627767,13126
1249.884912,13046
1251.14149,13508
1252.397499,13398
1253.652942,13505
1254.907816,13374
1256.162124,13510
1257.415864,13783
1258.669038,13418
1259.921646,13792
1261.173687,13786
1262.425162,13812
1263.676071,13721
1264.926415,13650
1266.176194,13877
1267.425408,13810
1268.674056,13815
1269.92214,14000
1271.16966,13956
1272.416616,13502
1273.663008,13638
1274.908836,13800
1276.1541,13531
1277.398802,13689
1278.64294,13330
1279.886516,13458
1281.129529,13447
1282.37198,13288
1283.613869,13062
1284.855196,13380
1286.095962,12970
1287.336166,13192
1288.575809,13089
1289.814891,13160
1291.053413,13137
1292.291374,13022
1293.528775,12735
1294.765616,12851
1296.001897,12829
1297.237618,12585
1298.472781,13048
1299.707384,13101
1300.941428,12684
1302.174914,13058
1303.407842,12845
1304.640211,13179
1305.872022,13228
1307.103276,12989
1308.333972,13406
1309.564111,13228
1310.793693,13090
1312.022719,13017
1313.251187,13436
1314.4791,13504
1315.706456,13675
1316.933256,13608
1318.159501,13921
1319.38519,13477
1320.610324,13693
1321.834903,13704
1323.058928,13873
1324.282398,13730
1325.505313,13635
1326.727675,13726
1327.949482,14055
1329.170736,13936
1330.391437,13714
1331.611584,13929
1332.831179,13860
1334.050221,13882
1335.26871,13633
1336.486647,13990
1337.704032,13557
1338.920865,13791
1340.137147,13630
1341.352877,13420
1342.568056,13712
1343.782684,13954
1344.996761,13643
1346.210288,13404
1347.423265,13525
1348.635691,13675
1349.847568,13744
1351.058895,13435
1352.269673,13297
1353.479901,13241
1354.689581,13229
1355.898712,13205
1357.107294,13350
1358.315329,13424
1359.522815,13634
1360.729753,13314
1361.936144,13632
1363.141987,13728
1364.347283,13393
1365.552032,13704
1366.756235,13626
1367.959891,13711
1369.163,13629
1370.365564,13206
1371.567582,13453
1372.769054,13870
1373.96998,13769
1375.170362,13774
1376.370198,13538
1377.56949,13100
1378.768237,13176
1379.96644,12993
1381.164099,12942
1382.361214,13074
1383.557785,13205
1384.753813,13355
1385.949297,12655
1387.144239,12686
1388.338637,12918
1389.532493,12736
1390.725807,12605
1391.918579,12554
1393.110808,12524
1394.302496,12336
1395.493643,12219
1396.684248,12442
1397.874312,12016
1399.063835,11957
1400.252818,12057
1401.44126,11921
1402.629162,11830
1403.816524,11587
1405.003346,11732
1406.189629,11775
1407.375372,11908
1408.560576,11720
1409.745241,11700
1410.929368,11549
1412.112956,11471
1413.296006,11609
1414.478517,11601
1415.660491,11463
1416.841927,11597
1418.022826,11582
1419.203188,11282
1420.383012,11667
1421.5623,11593
1422.741051,11556
1423.919266,11570
1425.096945,11384
1426.274088,11603
1427.450695,11291
1428.626766,11187
1429.802302,11420
1430.977303,11471
1432.15177,11477
1433.325701,11363
1434.499098,11362
1435.671961,11323
1436.84429,11337
1438.016085,11413
1439.187347,11017
1440.358075,11382
1441.528269,11168
1442.697931,11382
1443.86706,11313
1445.035657,11007
1446.203721,11244
1447.371253,11297
1448.538253,11344
1449.704721,11395
1450.870658,11427
1452.036064,11169
1453.200938,10839
1454.365282,11441
1455.529094,11489
1456.692377,11510
1457.855129,11608
1459.017351,11685
1460.179043,11247
1461.340206,11620
1462.500839,11608
1463.660943,11417
1464.820517,11168
1465.979563,11157
1467.138081,-54
1468.29607,10821
1469.453531,11061
1470.610464,10603
1471.766869,10700
1472.922746,10402
1474.078096,10373
1475.232919,10213
1476.387215,10108
1477.540985,10399
1478.694227,10074
1479.846944,10228
1480.999134,10110
1482.150798,9859
1483.301937,9995
1484.45255,10066
1485.602637,10019
1486.7522,9890
1487.901238,9851
1489.049751,10002
1490.197739,9998
1491.345203,10003
1492.492144,9984
1493.63856,9963
1494.784452,9780
1495.929821,9538
1497.074667,9811
1498.21899,9881
1499.36279,10078
1500.506067,9915
1501.648821,9964
1502.791054,10180
1503.932764,9829
1505.073953,10046
1506.21462,9759
1507.354765,9975
1508.494389,9533
1509.633492,10162
1510.772074,10354
1511.910136,9831
1513.047677,10107
1514.184698,9897
1515.321198,9854
1516.457179,10146
1517.592641,9880
1518.727582,10011
1519.862005,9779
1520.995909,10124
1522.129293,10306
1523.262159,10485
1524.394507,10162
1525.526336,10460
1526.657647,10395
1527.788441,9996
1528.918717,10388
1530.048475,10288
1531.177716,10137
1532.30644,10556
1533.434647,10493
1534.562338,10499
1535.689512,10623
1536.816169,10696
1537.942311,10619
1539.067937,10593
1540.193047,10955
1541.317642,10623
1542.441721,10655
1543.565285,10719
1544.688335,10547
1545.81087,10610
1546.93289,10899
1548.054396,11106
1549.175388,10924
1550.295866,11100
1551.41583,11058
1552.535281,10940
1553.654218,11066
1554.772643,11421
1555.890554,10993
1557.007953,11242
1558.124839,10967
1559.241213,11216
1560.357075,11257
1561.472424,11151
1562.587262,11410
1563.701589,11578
1564.815404,11517
1565.928708,11734
1567.041501,11412
1568.153783,11902
1569.265555,11712
1570.376816,11579
1571.487567,11422
1572.597808,11665
1573.707539,11836
1574.816761,11823
1575.925473,11918
1577.033676,12078
1578.14137,12200
1579.248555,12247
1580.355231,12253
1581.461399,12050
1582.567059,12276
1583.672211,12463
1584.776854,12209
1585.88099,12610
1586.984619,12728
1588.08774,12035
1589.190354,12108
1590.292462,13054
1591.394062,12920
1592.495156,13313
1593.595744,13256
1594.695825,13537
1595.795401,13294
1596.89447,13549
1597.993034,13689
1599.091093,13927
1600.188647,14033
1601.285695,13912
1602.382239,14049
1603.478278,14347
1604.573812,14399
1605.668843,14572
1606.763369,14529
1607.857391,15242
1608.95091,14839
1610.043925,15188
1611.136437,15109
1612.228446,15618
1613.319952,15520
1614.410955,15876
1615.501455,15879
1616.591453,15475
1617.680949,16072
1618.769943,16009
1619.858435,16185
1620.946426,16277
1622.033915,16450
1623.120903,16467
1624.20739,16756
1625.293376,16733
1626.378861,16832
1627.463845,16904
1628.54833,17095
1629.632314,17041
1630.715799,17112
1631.798783,16853
1632.881268,17211
1633.963254,16871
1635.04474,16559
1636.125728,17117
1637.206216,17062
1638.286206,16803
1639.365698,17093
1640.444691,16901
1641.523187,16634
1642.601184,16720
1643.678683,16876
1644.755686,16853
1645.83219,16561
1646.908198,16498
1647.983708,16561
1649.058722,16693
1650.133239,16697
1651.20726,16414
1652.280785,16220
1653.353813,16271
1654.426346,16226
1655.498383,15864
1656.569924,15714
1657.64097,15873
1658.711521,15752
1659.781577,15412
1660.851139,15479
1661.920205,15120
1662.988777,15392
1664.056855,14909
1665.124439,14665
1666.191529,14767
1667.258126,14599
1668.324229,14471
1669.389838,14247
1670.454955,14084
1671.519578,13882
1672.583709,13838
1673.647347,13495
1674.710493,13391
1675.773147,12715
1676.835308,12758
1677.896978,12446
1678.958155,12678
1680.018842,12337
1681.079037,12105
1682.138741,11870
1683.197954,11884
1684.256676,11560
1685.314908,11234
1686.372649,10930
1687.4299,10794
1688.48666,10945
1689.542931,10827
1690.598713,10436
1691.654004,10360
1692.708807,9968
1693.76312,10059
1694.816944,10111
1695.870279,9843
1696.923126,9703
1697.975484,9631
1699.027354,9447
1700.078736,9581
1701.12963,9361
1702.180036,9147
1703.229955,9175
1704.279386,8811
1705.32833,8798
1706.376787,8573
1707.424757,8451
1708.47224,8858
1709.519237,8064
1710.565748,8056
1711.611772,8087
1712.65731,8009
1713.702363,7948
1714.74693,7919
1715.791011,7475
1716.834608,7477
1717.877719,7429
1718.920345,6987
1719.962486,7306
1721.004143,7490
1722.045316,6990
1723.086004,6960
1724.126208,6906
1725.165929,6622
1726.205165,6386
1727.243918,6756
1728.282188,6411
1729.319975,6492
1730.357278,6292
1731.394099,6178
1732.430437,6227
1733.466293,5995
1734.501666,6097
1735.536557,6103
1736.570967,5998
1737.604894,5676
1738.63834,5980
1739.671304,5777
1740.703787,5622
1741.735789,5646
1742.767311,5621
1743.798351,5481
1744.828911,5447
1745.85899,5612
1746.888589,5542
1747.917708,5342
1748.946348,5284
1749.974507,5656
1751.002187,5171
1752.029388,5116
1753.056109,4982
1754.082351,5033
1755.108115,4993
1756.1334,4799
1757.158206,4923
1758.182534,4710
1759.206384,4695
1760.229755,4809
1761.252649,4465
1762.275065,4641
1763.297004,4760
1764.318466,4476
1765.33945,4652
1766.359957,4315
1767.379988,4459
1768.399542,4515
1769.418619,4351
1770.43722,4123
1771.455345,4170
1772.472994,4144
1773.490167,4075
1774.506865,4242
1775.523087,3844
1776.538834,3918
1777.554106,3905
1778.568902,3965
1779.583224,4006
1780.597072,3797
1781.610444,3984
1782.623343,3780
1783.635768,3949
1784.647718,3632
1785.659195,3719
1786.670198,3599
1787.680728,3889
1788.690784,3801
1789.700368,3657
1790.709478,3831
1791.718116,3846
1792.726281,3826
1793.733973,3761
1794.741194,3685
1795.747942,3792
1796.754218,3494
1797.760023,3618
1798.765356,3557
1799.770217,3853
1800.774607,3479
1801.778526,3530
1802.781974,3668
1803.784952,3833
1804.787458,3480
1805.789495,3378
1806.791061,3522
1807.792156,3449
1808.792782,3468
1809.792938,3515
1810.792625,3198
1811.791842,3400
1812.79059,3446
1813.788868,3641
1814.786678,3537
1815.784019,3148
1816.780891,3685
1817.777295,3556
1818.77323,3431
1819.768697,3333
1820.763697,3349
1821.758228,3179
1822.752292,3607
1823.745888,3445
1824.739017,3297
1825.731679,3322
1826.723874,3284
1827.715602,3104
1828.706863,3203
1829.697658,3253
1830.687986,3364
1831.677848,3357
1832.667244,3203
1833.656175,3198
1834.644639,3133
1835.632638,3287
1836.620172,3347
1837.60724,2976
1838.593844,3326
1839.579982,3177
1840.565656,3017
1841.550865,3130
1842.53561,3329
1843.51989,3212
1844.503706,3232
1845.487059,2920
1846.469947,3296
1847.452372,3013
1848.434334,3093
1849.415832,2937
1850.396867,3025
1851.377439,3213
1852.357549,3014
1853.337195,3300
1854.31638,2980
1855.295101,3012
1856.273361,2886
1857.251159,2952
1858.228494,3139
1859.205369,2997
1860.181781,3135
1861.157732,2862
1862.133222,2821
1863.108251,2902
1864.082819,2796
1865.056926,3181
1866.030573,2760
1867.003759,3049
1867.976485,2846
1868.948751,2675
1869.920556,2881
1870.891902,2819
1871.862789,2546
1872.833216,3082
1873.803183,2935
1874.772691,2863
1875.741741,2883
1876.710331,2676
1877.678463,2736
1878.646136,2842
1879.613351,2713
1880.580108,2781
1881.546406,2767
1882.512247,2645
1883.47763,2768
1884.442555,2931
1885.407023,2712
1886.371033,2638
1887.334586,2720
1888.297683,2565
1889.260322,2703
1890.222505,2913
1891.184231,2636
1892.145501,2557
1893.106315,2659
1894.066673,2781
1895.026574,2668
1895.98602,2703
1896.945011,2587
1897.903546,2675
1898.861626,2793
1899.81925,2705
1900.77642,2493
1901.733135,2587
1902.689395,2541
1903.6452,2636
1904.600551,2693
1905.555448,2736
1906.509891,2667
1907.46388,2688
1908.417416,2513
1909.370498,2663
1910.323126,2399
1911.275301,2623
1912.227023,2701
1913.178292,2558
1914.129108,2652
1915.079471,2517
1916.029382,2761
1916.97884,2670
1917.927846,2642
1918.876401,2699
1919.824503,2832
1920.772153,2902
1921.719352,2488
1922.6661,2472
1923.612396,2052
1924.558241,2769
1925.503635,2522
1926.448578,2513
1927.39307,2723
1928.337112,2665
1929.280703,2721
1930.223844,2660
1931.166535,2651
1932.108776,2920
1933.050568,2722
1933.991909,2529
1934.932801,2769
1935.873244,2818
1936.813238,2883
1937.752782,3100
1938.691878,2675
1939.630525,2886
1940.568723,2668
1941.506473,2762
1942.443774,2697
1943.380627,2882
1944.317033,2856
1945.25299,2815
1946.1885,2936
1947.123562,2913
1948.058177,2872
1948.992344,2675
1949.926065,2594
1950.859338,2743
1951.792165,2754
1952.724545,3043
1953.656478,2712
1954.587965,2956
1955.519006,2963
1956.4496,2922
1957.379749,2860
1958.309452,2959
1959.238709,2699
1960.167521,2557
1961.095888,2342
1962.023809,2619
1962.951285,2659
1963.878317,2816
1964.804903,2584
1965.731045,2488
1966.656743,2736
1967.581996,2755
1968.506805,2749
1969.43117,2755
1970.355091,2621
1971.278568,2621
1972.201602,2741
1973.124192,2671
1974.046339,3001
1974.968043,2552
1975.889304,2788
1976.810122,2784
1977.730498,2710
1978.65043,2882
1979.569921,2837
1980.488969,2719
1981.407574,2823
1982.325738,3002
1983.24346,2776
1984.160741,2456
1985.077579,2333
1985.993977,2433
1986.909933,2590
1987.825448,2609
1988.740522,2675
1989.655155,2627
1990.569347,2748
1991.483099,2856
1992.396411,2728
1993.309282,2866
1994.221713,2694
1995.133704,2801
1996.045256,2875
1996.956367,2749
1997.867039,2968
1998.777272,2828
1999.687065,2917
2000.596419,2995
2001.505335,2859
2002.413811,2805
2003.321849,2957
2004.229448,2653
2005.136609,2793
2006.043331,2823
2006.949616,2868
2007.855462,3128
2008.760871,2702
2009.665841,2829
2010.570375,2783
2011.47447,2943
2012.378129,2777
2013.281351,2840
2014.184135,2832
2015.086483,2895
2015.988393,2877
2016.889868,2925
2017.790906,2969
2018.691507,2859
2019.591673,3134
2020.491402,3023
2021.390695,2963
2022.289553,3052
2023.187975,2652
2024.085962,3096
2024.983514,2992
2025.88063,3064
2026.777311,3113
2027.673557,2913
2028.569369,2729
2029.464746,2845
2030.359688,3023
2031.254197,2677
2032.148271,2908
2033.04191,2763
2033.935116,3115
2034.827889,2956
2035.720227,2917
2036.612132,2837
2037.503604,3186
2038.394642,3052
2039.285248,3089
2040.17542,2882
2041.06516,2970
2041.954466,3108
2042.843341,3045
2043.731783,2821
2044.619792,3038
2045.50737,3010
2046.394516,2903
2047.281229,2785
2048.167511,2987
2049.053362,2810
2049.938781,2806
2050.823768,2842
2051.708325,2941
2052.59245,3030
2053.476145,2916
2054.359409,2870
2055.242242,2958
2056.124645,2994
2057.006617,2700
2057.888159,2959
2058.769271,2788
2059.649953,3082
2060.530206,2744
2061.410028,2601
2062.289421,2947
2063.168385,3013
2064.046919,2904
2064.925025,2977
2065.802701,2904
2066.679949,2905
2067.556767,2791
2068.433157,2975
2069.309119,2659
2070.184652,2895
2071.059758,2885
2071.934435,2790
2072.808684,3220
2073.682505,3003
2074.555899,2858
2075.428865,2884
2076.301404,2856
2077.173516,2937
2078.0452,2720
2078.916458,2900
2079.787289,2865
2080.657693,2717
2081.52767,2903
2082.397221,2791
2083.266346,2805
2084.135044,2938
2085.003316,3251
2085.871163,2781
2086.738584,2756
2087.605579,3121
2088.472148,2842
2089.338292,3078
2090.204011,2906
2091.069305,2705
2091.934174,2785
2092.798618,2718
2093.662637,2974
2094.526231,2838
2095.389402,3025
2096.252147,3155
2097.114469,2958
2097.976366,2962
2098.83784,2844
2099.69889,2947
2100.559516,2747
2101.419719,3006
2102.279498,2966
2103.138854,2777
2103.997786,2670
2104.856296,2932
2105.714383,2732
2106.572047,2876
2107.429289,3023
2108.286108,2824
2109.142504,2871
2109.998479,2887
2110.854031,3021
2111.709161,2814
2112.56387,2825
2113.418156,2815
2114.272021,2679
2115.125465,2591
2115.978487,2902
2116.831089,2971
2117.683269,2735
2118.535028,2881
2119.386366,2485
2120.237284,2736
2121.087781,2563
2121.937857,2736
2122.787514,2654
2123.63675,2780
2124.485566,2629
2125.333962,2556
2126.181939,2555
2127.029496,2654
2127.876633,2837
2128.723351,2332
2129.569649,2527
2130.415529,2595
2131.260989,2354
2132.106031,2434
2132.950654,2591
2133.794858,2518
2134.638643,2691
2135.482011,2626
2136.32496,2556
2137.167491,2633
2138.009604,2436
2138.851299,2393
2139.692576,2650
2140.533436,2315
2141.373878,2676
2142.213903,2579
2143.05351,2675
2143.892701,2496
2144.731474,2439
2145.569831,2459
2146.407771,2203
2147.245294,2399
2148.082401,2449
2148.919091,2288
2149.755365,2236
2150.591224,2441
2151.426666,2210
2152.261692,2330
2153.096302,2245
2153.930497,2351
2154.764277,2120
2155.597641,2360
2156.43059,2228
2157.263124,2761
2158.095242,2139
2158.926946,2389
2159.758236,2361
2160.58911,2185
2161.41957,2346
2162.249616,2230
2163.079248,1936
2163.908465,2316
2164.737269,2355
2165.565658,2322
2166.393634,2090
2167.221196,2357
2168.048345,2049
2168.87508,2306
2169.701402,2164
2170.527311,1848
2171.352807,2148
2172.177891,2227
2173.002561,2068
2173.826819,2323
2174.650664,2337
2175.474097,2351
2176.297117,2241
2177.119726,2151
2177.941922,2058
2178.763707,2056
2179.58508,2153
2180.406041,1909
2181.22659,1989
2182.046729,2168
2182.866456,2143
2183.685771,2108
2184.504676,2232
2185.32317,2070
2186.141253,2173
2186.958925,2142
2187.776187,2063
2188.593038,1919
2189.409479,2076
2190.22551,1993
2191.041131,2110
2191.856342,2079
2192.671143,1828
2193.485534,1921
2194.299516,1956
2195.113088,1896
2195.926251,1931
2196.739005,1935
2197.551349,2072
2198.363285,1893
2199.174812,1923
2199.98593,2049
2200.796639,2070
2201.60694,1849
2202.416832,1906
2203.226317,1777
2204.035393,1613
2204.844061,1920
2205.652321,1629
2206.460173,1900
2207.267618,1692
2208.074655,2040
2208.881285,1871
2209.687507,1955
2210.493322,1711
2211.29873,1713
2212.103732,1601
2212.908326,1862
2213.712513,1756
2214.516294,1797
2215.319669,1366
2216.122637,1472
2216.925199,1792
2217.727355,1315
2218.529105,1567
2219.330449,1554
2220.131387,1755
2220.931919,1723
2221.732046,1308
2222.531768,1712
2223.331084,1756
2224.129995,1099
2224.928501,1586
2225.726602,1367
2226.524298,1433
2227.321589,1513
2228.118476,1773
2228.914959,1378
2229.711037,1562
2230.50671,1523
2231.30198,1395
2232.096846,1524
2232.891307,1518
2233.685365,1686
2234.479019,1461
2235.27227,1255
2236.065117,1633
2236.857561,1352
2237.649602,1508
2238.441239,1406
2239.232474,1392
2240.023306,1457
2240.813735,1559
2241.603761,1447
2242.393385,1544
2243.182607,1739
2243.971426,1486
2244.759843,1327
2245.547858,1242
2246.335471,1443
2247.122682,1295
2247.909492,1512
2248.6959,1165
2249.481906,1384
2250.267511,1295
2251.052715,1167
2251.837518,1477
2252.621919,1127
2253.40592,1113
2254.18952,1499
2254.972719,1227
2255.755518,1377
2256.537916,1262
2257.319914,1297
2258.101512,1387
2258.88271,1353
2259.663507,1433
2260.443905,1378
2261.223903,1521
2262.003501,1327
2262.7827,1369
2263.561499,1025
2264.339899,1150
2265.1179,1288
2265.895501,710
2266.672704,1029
2267.449508,993
2268.225913,1274
2269.001919,1115
2269.777527,1128
2270.552737,1090
2271.327548,1102
2272.101961,952
2272.875975,1150
2273.649592,1299
2274.422811,990
2275.195632,1190
2275.968056,1093
2276.740082,1278
2277.511711,1171
2278.282942,1048
2279.053776,1236
2279.824213,1185
2280.594253,964
2281.363897,987
2282.133143,925
2282.901993,827
2283.670446,997
2284.438503,1081
2285.206164,926
2285.973428,1370
2286.740296,713
2287.506769,966
2288.272845,1193
2289.038526,1190
2289.803811,910
2290.5687,885
2291.333194,800
2292.097293,938
2292.860997,1030
2293.624305,986
2294.387219,969
2295.149737,945
2295.911861,1040
2296.67359,926
2297.434925,962
2298.195865,957
2298.956411,1056
2299.716562,1115
2300.47632,982
2301.235683,1096
2301.994653,799
2302.753229,875
2303.511411,650
2304.269199,878
2305.026594,1023
2305.783596,1165
2306.540204,962
2307.29642,804
2308.052242,740
2308.807671,994
2309.562708,955
2310.317351,920
2311.071603,855
2311.825461,811
2312.578928,968
2313.332002,1087
2314.084684,889
2314.836973,751
2315.588871,992
2316.340377,903
2317.091491,923
2317.842214,826
2318.592545,632
2319.342485,1029
2320.092033,928
2320.84119,707
2321.589956,994
2322.338331,977
2323.086315,750
2323.833908,675
2324.581111,839
2325.327923,778
2326.074345,775
2326.820376,986
2327.566017,867
2328.311268,984
2329.056129,978
2329.800599,982
2330.54468,870
2331.288372,1003
2332.031673,501
2332.774585,690
2333.517108,824
2334.259242,828
2335.000986,691
2335.742341,756
2336.483307,628
2337.223884,675
2337.964073,673
2338.703872,461
2339.443283,709
2340.182306,723
2340.92094,928
2341.659187,590
2342.397044,680
2343.134514,425
2343.871596,709
2344.60829,735
2345.344597,670
2346.080515,623
2346.816046,900
2347.55119,379
2348.285946,709
2349.020316,630
2349.754298,611
2350.487893,671
2351.221101,457
2351.953922,678
2352.686356,462
2353.418404,608
2354.150066,887
2354.881341,637
2355.61223,480
2356.342732,656
2357.072849,587
2357.802579,577
2358.531924,691
2359.260883,971
2359.989456,529
2360.717643,695
2361.445445,479
2362.172862,462
2362.899893,673
2363.626539,561
2364.352801,792
2365.078677,620
2365.804168,480
2366.529275,860
2367.253996,669
2367.978334,609
2368.702286,581
2369.425855,621
2370.149039,369
2370.871839,711
2371.594255,526
2372.316287,605
2373.037935,414
2373.7592,619
2374.48008,565
2375.200578,486
2375.920691,494
2376.640422,722
2377.359769,440
2378.078733,519
2378.797314,802
2379.515511,484
2380.233327,376
2380.950759,523
2381.667808,593
2382.384476,602
2383.10076,423
2383.816663,465
2384.532183,435
2385.24732,500
2385.962076,456
2386.67645,314
2387.390442,383
2388.104052,224
2388.817281,221
2389.530128,153
2390.242593,404
2390.954677,62
2391.66638,347
2392.377702,317
2393.088643,548
2393.799202,555
2394.509381,214
2395.219179,366
2395.928596,603
2396.637633,217
2397.346289,347
2398.054565,376
2398.762461,188
2399.469976,512
2400.177111,327
2400.883867,211
2401.590242,225
2402.296238,453
2403.001854,323
2403.70709,434
2404.411947,335
2405.116424,306
2405.820522,218
2406.524241,415
2407.227581,290
2407.930542,345
2408.633123,320
2409.335326,208
2410.037151,283
