Frequent,Density
-31.722347,11899
-29.886687,13704
-28.051868,16054
-26.217889,18322
-24.384749,22028
-22.552448,25199
-20.720985,29129
-18.890361,33541
-17.060575,36514
-15.231626,43302
-13.403514,42216
-11.576239,47055
-9.749799,47261
-7.924195,45180
-6.099426,36722
-4.275492,36327
-2.452392,40851
-0.630127,36384
1.191306,33245
3.011906,32096
4.831672,37673
6.650607,40477
8.46871,31168
10.285982,25578
12.102423,22681
13.918034,20666
15.732815,19385
17.546766,19054
19.359888,17900
21.172181,15606
22.983647,12904
24.794284,11344
26.604094,10665
28.413077,10093
30.221233,8675
32.028563,7341
33.835068,5955
35.640747,5114
37.445602,4616
39.249632,4527
41.052838,4366
42.855221,4393
44.656781,4047
46.457517,3733
48.257432,3657
50.056525,3243
51.854796,3204
53.652246,3507
55.448876,3418
57.244685,3724
59.039675,3365
60.833846,3834
62.627197,3659
64.41973,4159
66.211446,4266
68.002343,4076
69.792423,4314
71.581687,4759
73.370134,5021
75.157765,5276
76.944581,5910
78.730581,6631
80.515767,7251
82.300139,7920
84.083697,9203
85.866441,10568
87.648372,11395
89.429491,13087
91.209797,14718
92.989292,16869
94.767976,19232
96.545848,22919
98.32291,26797
100.099162,32725
101.874604,27536
103.649237,31655
105.423061,31673
107.196077,36676
108.968284,35329
110.739684,34485
112.510277,32729
114.280063,32572
116.049042,31963
117.817216,35908
119.584584,43042
121.351147,38380
123.116905,36523
124.881859,37693
126.646009,28667
128.409356,41582
130.171899,40559
131.93364,38001
133.694578,27298
135.454715,34473
137.21405,33100
138.972584,29167
140.730317,43576
142.48725,36062
144.243384,25390
145.998718,34799
147.753252,28941
149.506989,34923
151.259927,36394
153.012067,42770
154.76341,33145
156.513956,40006
158.263705,35881
160.012659,36504
161.760816,30092
163.508178,36248
165.254745,33412
167.000518,36914
168.745496,38213
170.489681,35341
172.233072,35867
173.975671,42681
175.717476,28198
177.45849,36998
179.198712,29510
180.938142,35765
182.676782,29786
184.414631,36932
186.15169,33864
187.887959,28658
189.623439,39778
191.35813,30684
193.092032,34821
194.825147,33679
196.557473,33064
198.289012,34862
200.019764,33089
201.74973,31586
203.478909,35471
205.207303,35537
206.934911,37406
208.661735,38294
210.387773,31850
212.113028,31139
213.837499,30604
215.561186,34218
217.28409,34596
219.006212,32336
220.727552,32731
222.44811,37509
224.167886,37074
225.886881,33059
227.605096,34433
229.32253,31631
231.039185,31644
232.75506,30146
234.470156,23907
236.184473,32576
237.898012,28613
239.610773,28953
241.322757,36922
243.033964,36147
244.744393,28403
246.454047,34006
248.162924,31300
249.871026,31170
251.578353,34221
253.284905,30771
254.990683,40180
256.695686,31743
258.399916,35202
260.103373,36038
261.806057,35721
263.507968,38735
265.209107,32611
266.909475,31746
268.609071,32872
270.307897,28260
272.005952,33659
273.703236,34703
275.399751,33444
277.095497,31901
278.790473,38045
280.484681,30601
282.178121,33589
283.870793,38343
285.562697,30076
287.253835,39954
288.944205,38212
290.633809,30236
292.322648,31781
294.010721,35905
295.698028,38070
297.384571,39737
299.070349,37477
300.755364,39006
302.439614,34418
304.123102,34476
305.805826,36660
307.487788,34792
309.168988,34662
310.849426,39556
312.529103,32639
314.208018,32501
315.886173,21777
317.563568,35778
319.240203,36839
320.916079,39701
322.591195,35930
324.265552,38048
325.939151,34492
327.611993,34815
329.284076,35080
330.955402,36178
332.625972,41745
334.295785,36859
335.964841,34163
337.633142,31435
339.300688,37936
340.967479,29718
342.633515,37685
344.298796,35441
345.963324,35997
347.627098,34943
349.29012,39932
350.952388,35096
352.613904,36770
354.274668,33722
355.93468,33345
357.593941,37903
359.252451,38099
360.910211,30720
362.56722,36262
364.22348,32970
365.87899,30079
367.533751,40537
369.187763,34749
370.841027,33248
372.493543,36126
374.145311,42101
375.796332,37224
377.446607,22350
379.096134,41985
380.744916,33962
382.392952,31200
384.040242,37153
385.686787,46442
387.332588,36550
388.977645,39598
390.621957,35885
392.265526,41446
393.908351,31018
395.550434,39842
397.191775,37382
398.832373,28238
400.472229,39166
402.111344,43004
403.749718,42780
405.387351,39072
407.024244,29676
408.660397,37568
410.295811,39919
411.930485,40959
413.56442,39763
415.197617,47451
416.830076,25649
418.461796,40581
420.09278,39959
421.723026,36459
423.352536,29421
424.981309,31516
426.609346,37396
428.236648,35675
429.863214,41211
431.489046,43688
433.114143,29563
434.738505,39783
436.362134,32559
437.98503,31241
439.607192,35601
441.228621,32637
442.849318,38383
444.469283,30731
446.088516,37084
447.707018,32376
449.324789,27900
450.941829,35195
452.558139,31693
454.173719,38221
455.78857,6187
457.402691,36277
459.016083,37967
460.628747,37776
462.240682,39268
463.85189,38861
465.46237,35972
467.072124,39175
468.68115,31339
470.28945,39515
471.897024,33452
473.503872,33649
475.109995,39725
476.715393,34897
478.320066,40181
479.924015,34273
481.52724,36190
483.129741,35212
484.731519,32680
486.332575,38376
487.932907,26790
489.532517,37138
491.131406,30587
492.729573,30503
494.327019,36529
495.923744,36664
497.519748,28314
499.115033,35153
500.709597,39047
502.303442,37880
503.896568,36241
505.488976,34748
507.080665,38156
508.671635,37313
510.261889,28765
511.851424,36238
513.440243,32451
515.028345,37923
516.615731,38804
518.202401,36662
519.788355,34782
521.373593,41633
522.958117,35529
524.541926,28869
526.125021,35992
527.707402,29714
529.28907,36592
530.870024,24856
532.450265,30094
534.029794,35003
535.60861,34272
537.186715,41637
538.764108,31991
540.340789,29396
541.91676,38563
543.492021,39195
545.066571,33026
546.640411,34817
548.213542,31609
549.785964,30649
551.357676,39697
552.928681,34858
554.498977,44274
556.068565,31862
557.637446,40736
559.20562,43524
560.773087,39726
562.339847,35668
563.905901,33082
565.47125,31587
567.035893,30759
568.599831,31840
570.163064,36843
571.725593,35904
573.287417,37243
574.848538,41219
576.408955,35205
577.968669,33115
579.52768,35885
581.085989,31065
582.643596,39129
584.200501,36736
585.756704,31883
587.312207,41744
588.867008,38540
590.42111,38552
591.974511,33973
593.527212,34917
595.079214,30227
596.630516,38495
598.18112,39361
599.731025,24062
601.280232,35752
602.828742,38593
604.376554,36343
605.923668,38380
607.470086,32416
609.015808,41127
610.560833,35994
612.105162,38403
613.648796,35293
615.191735,34371
616.733979,32705
618.275528,42757
619.816383,32073
621.356544,30894
622.896012,36755
624.434787,38264
625.972868,32714
627.510257,33266
629.046954,38396
630.582959,32585
632.118272,32831
633.652894,40422
635.186825,36648
636.720066,37251
638.252616,32858
639.784476,39759
641.315647,30766
642.846128,29223
644.37592,32425
645.905024,32684
647.433439,27613
648.961166,40302
650.488206,40442
652.014558,30148
653.540223,32061
655.065201,35272
656.589493,36962
658.113099,34818
659.636019,35211
661.158253,34330
662.679803,37935
664.200668,35380
665.720848,38351
667.240344,37865
668.759156,34610
670.277284,33863
671.79473,37475
673.311492,35092
674.827572,37118
676.34297,36919
677.857686,33189
679.37172,36386
680.885072,27813
682.397744,35048
683.909735,36197
685.421046,33402
686.931677,35568
688.441628,30122
689.950899,36101
691.459492,35714
692.967406,35391
694.474641,35314
695.981198,35640
697.487078,16032
698.992279,35428
700.496804,35285
702.000652,34845
703.503823,28882
705.006318,29885
706.508137,34872
708.00928,32054
709.509748,35022
711.009541,34298
712.50866,34581
714.007104,30916
715.504874,29306
717.00197,34506
718.498393,34222
719.994142,34316
721.489219,34366
722.983624,33352
724.477356,33750
725.970416,29193
727.462805,33652
728.954522,31725
730.445569,25119
731.935944,33433
733.42565,32828
734.914685,33758
736.403051,33002
737.890748,33221
739.377775,32890
740.864133,27287
742.349823,32188
743.834845,32411
745.319199,32852
746.802886,32663
748.285905,32944
749.768257,32758
751.249943,32495
752.730962,32842
754.211315,32681
755.691003,32435
757.170025,32737
758.648382,29169
760.126075,31762
761.603102,31940
763.079466,32249
764.555166,31866
766.030202,32132
767.504575,30762
768.978285,32034
770.451332,31404
771.923717,31705
773.39544,31717
774.866501,31464
776.3369,31428
777.806639,30907
779.275716,31046
780.744134,30514
782.21189,29629
783.678987,30015
785.145425,29627
786.611203,30058
788.076322,29878
789.540782,29472
791.004583,27890
792.467727,29059
793.930213,28770
795.392041,28315
796.853212,28463
798.313726,27973
799.773584,27795
801.232785,27865
802.69133,27895
804.14922,27239
805.606454,27554
807.063032,26955
808.518956,27104
809.974226,26969
811.428841,26717
812.882802,26645
814.33611,26685
815.788764,26110
817.240766,26024
818.692114,26128
820.14281,24701
821.592854,25786
823.042246,25744
824.490986,25648
825.939075,24979
827.386514,25423
828.833301,25167
830.279438,24878
831.724925,24735
833.169762,25057
834.61395,25077
836.057488,25147
837.500378,24786
838.942619,24895
840.384212,24568
841.825156,25346
843.265453,24913
844.705102,16377
846.144105,24875
847.58246,24924
849.020169,24426
850.457231,24274
851.893648,24321
853.329418,24353
854.764544,24217
856.199024,24191
857.632859,24144
859.06605,23858
860.498597,23800
861.9305,23916
863.361759,23731
864.792374,22961
866.222347,23454
867.651677,22791
869.080364,22816
870.508409,22669
871.935812,22358
873.362574,22219
874.788694,21917
876.214173,22381
877.639011,22024
879.063209,21842
880.486766,21735
881.909684,21720
883.331962,21560
884.753601,21588
886.174601,21730
887.594961,21517
889.014684,21386
890.433768,21770
891.852214,21670
893.270023,21821
894.687194,22134
896.103729,21894
897.519626,21917
898.934887,21691
900.349512,21766
901.763501,21342
903.176854,21434
904.589572,21088
906.001655,20763
907.413103,20812
908.823917,20812
910.234096,20604
911.643642,20385
913.052554,20627
914.460832,20331
915.868477,20564
917.27549,20189
918.68187,20062
920.087618,19911
921.492734,20007
922.897218,19460
924.301071,19318
925.704292,18629
927.106883,18885
928.508844,18643
929.910174,18566
931.310874,18263
932.710944,18448
934.110385,18018
935.509197,18189
936.907379,18060
938.304934,17729
939.70186,17549
941.098158,17546
942.493828,17718
943.88887,17656
945.283286,17238
946.677075,17422
948.070236,17365
949.462772,16804
950.854681,16886
952.245965,17409
953.636623,17013
955.026656,17232
956.416064,16709
957.804847,16744
959.193006,16848
960.58054,16782
961.967451,16705
963.353738,16918
964.739402,16691
966.124442,16869
967.50886,16677
968.892656,16684
970.275829,16551
971.65838,16665
973.04031,16932
974.421618,16176
975.802305,16763
977.182371,16577
978.561816,16562
979.940641,16335
981.318846,16769
982.696432,16459
984.073398,16210
985.449744,16673
986.825472,16431
988.200581,16574
989.575072,16839
990.948944,16914
992.322199,16584
993.694836,16955
995.066855,16590
996.438258,16851
997.809044,16982
999.179213,16924
1000.548766,16361
1001.917703,16863
1003.286024,16943
1004.65373,17034
1006.020821,16901
1007.387297,17268
1008.753158,16523
1010.118405,14531
1011.483038,17163
1012.847057,17438
1014.210462,17644
1015.573254,17627
1016.935433,17535
1018.296999,17451
1019.657953,17725
1021.018295,17416
1022.378025,17131
1023.737143,17363
1025.095649,17653
1026.453544,17182
1027.810829,17516
1029.167503,17315
1030.523566,17301
1031.87902,17404
1033.233863,17224
1034.588097,17702
1035.941722,17573
1037.294738,17360
1038.647145,17600
1039.998943,17457
1041.350133,17764
1042.700716,17500
1044.05069,17746
1045.400057,17487
1046.748817,17560
1048.09697,17516
1049.444516,17493
1050.791456,18186
1052.13779,18123
1053.483518,18009
1054.82864,18512
1056.173157,18436
1057.517069,19134
1058.860376,18985
1060.203079,19268
1061.545177,19359
1062.886671,19198
1064.227562,19444
1065.567848,19308
1066.907532,18961
1068.246613,18953
1069.585091,18735
1070.922966,18623
1072.260239,18403
1073.596911,18274
1074.93298,17714
1076.268448,17827
1077.603315,17563
1078.937581,17581
1080.271247,17665
1081.604312,17270
1082.936776,16987
1084.268641,16993
1085.599907,16610
1086.930573,16394
1088.260639,16470
1089.590107,16421
1090.918977,16102
1092.247248,16232
1093.574921,16159
1094.901996,16148
1096.228474,16202
1097.554354,16674
1098.879637,16600
1100.204323,16961
1101.528413,16737
1102.851907,17154
1104.174804,17210
1105.497106,17327
1106.818812,17460
1108.139923,17404
1109.460439,17745
1110.78036,17672
1112.099687,18061
1113.41842,17971
1114.736558,18351
1116.054103,18214
1117.371054,18424
1118.687412,18342
1120.003177,18757
1121.318349,18815
1122.632929,18817
1123.946916,18741
1125.260312,18847
1126.573116,18742
1127.885328,18563
1129.196949,18526
1130.507979,18296
1131.818419,18059
1133.128268,17842
1134.437527,17361
1135.746195,17087
1137.054275,16797
1138.361764,16185
1139.668665,16093
1140.974976,15590
1142.280699,15269
1143.585833,15548
1144.890379,15452
1146.194337,14972
1147.497708,14946
1148.800491,14914
1150.102687,14918
1151.404295,14514
1152.705318,14719
1154.005753,14651
1155.305603,14518
1156.604866,14609
1157.903544,14568
1159.201636,14461
1160.499143,14519
1161.796065,14507
1163.092402,14366
1164.388155,14327
1165.683324,13856
1166.977908,13755
1168.271909,13977
1169.565326,13888
1170.85816,13923
1172.150411,13992
1173.44208,13491
1174.733165,13562
1176.023669,13377
1177.31359,13775
1178.60293,13419
1179.891688,13449
1181.179865,13492
1182.467461,13562
1183.754476,13249
1185.04091,13505
1186.326765,13112
1187.612039,13400
1188.896733,13621
1190.180848,13556
1191.464383,13532
1192.747339,13355
1194.029717,13468
1195.311515,13546
1196.592736,13569
1197.873378,13673
1199.153442,13855
1200.432929,13862
1201.711838,13850
1202.990171,13598
1204.267926,13858
1205.545105,13587
1206.821707,13924
1208.097733,13775
1209.373183,13510
1210.648057,13632
1211.922356,13931
1213.196079,13448
1214.469228,13743
1215.741802,13612
1217.013801,13619
1218.285226,13443
1219.556077,13461
1220.826355,13413
1222.096058,13517
1223.365189,13437
1224.633746,13577
1225.90173,13504
1227.169142,13606
1228.435982,13512
1229.702249,13310
1230.967945,13178
1232.233069,13071
1233.497621,13486
1234.761602,13143
1236.025013,13164
1237.287852,13082
1238.550121,13181
1239.81182,13495
1241.072949,12945
1242.333509,12878
1243.593498,12660
1244.852919,13136
1246.11177,13019
1247.370053,13212
1248.627767,13041
1249.884912,13073
1251.14149,13463
1252.397499,13395
1253.652942,13272
1254.907816,13388
1256.162124,13252
1257.415864,13545
1258.669038,13571
1259.921646,13792
1261.173687,13809
1262.425162,13604
1263.676071,13836
1264.926415,13717
1266.176194,13849
1267.425408,13782
1268.674056,13468
1269.92214,13514
1271.16966,13682
1272.416616,13510
1273.663008,13576
1274.908836,13553
1276.1541,13518
1277.398802,13393
1278.64294,13194
1279.886516,13161
1281.129529,13136
1282.37198,13350
1283.613869,12946
1284.855196,13010
1286.095962,12972
1287.336166,12817
1288.575809,13339
1289.814891,13016
1291.053413,12925
1292.291374,12687
1293.528775,12794
1294.765616,13107
1296.001897,13132
1297.237618,12836
1298.472781,12749
1299.707384,12981
1300.941428,12777
1302.174914,12882
1303.407842,12815
1304.640211,12790
1305.872022,13122
1307.103276,12614
1308.333972,13066
1309.564111,12977
1310.793693,13106
1312.022719,13195
1313.251187,13499
1314.4791,13414
1315.706456,13436
1316.933256,13489
1318.159501,13579
1319.38519,13775
1320.610324,13653
1321.834903,13585
1323.058928,13540
1324.282398,13263
1325.505313,13713
1326.727675,13918
1327.949482,13678
1329.170736,13694
1330.391437,13669
1331.611584,13804
1332.831179,13949
1334.050221,13934
1335.26871,13407
1336.486647,13806
1337.704032,13463
1338.920865,13640
1340.137147,13521
1341.352877,13355
1342.568056,13466
1343.782684,13573
1344.996761,13414
1346.210288,13566
1347.423265,13583
1348.635691,13581
1349.847568,13426
1351.058895,13153
1352.269673,13247
1353.479901,13229
1354.689581,13144
1355.898712,13184
1357.107294,13272
1358.315329,13341
1359.522815,13498
1360.729753,13300
1361.936144,13356
1363.141987,13634
1364.347283,13418
1365.552032,13744
1366.756235,13644
1367.959891,13651
1369.163,13377
1370.365564,13147
1371.567582,13554
1372.769054,13515
1373.96998,13341
1375.170362,13836
1376.370198,13269
1377.56949,12997
1378.768237,12801
1379.96644,13008
1381.164099,12828
1382.361214,13152
1383.557785,13118
1384.753813,13162
1385.949297,12763
1387.144239,12647
1388.338637,13094
1389.532493,12721
1390.725807,12385
1391.918579,12609
1393.110808,12263
1394.302496,12202
1395.493643,12102
1396.684248,12300
1397.874312,11806
1399.063835,11953
1400.252818,11845
1401.44126,11813
1402.629162,11993
1403.816524,11455
1405.003346,11606
1406.189629,11668
1407.375372,11830
1408.560576,11578
1409.745241,11695
1410.929368,11343
1412.112956,11446
1413.296006,11470
1414.478517,11733
1415.660491,11453
1416.841927,11493
1418.022826,11550
1419.203188,11037
1420.383012,11252
1421.5623,11422
1422.741051,11266
1423.919266,11183
1425.096945,11196
1426.274088,11484
1427.450695,11396
1428.626766,11115
1429.802302,11377
1430.977303,11372
1432.15177,11356
1433.325701,11292
1434.499098,11267
1435.671961,11142
1436.84429,11328
1438.016085,11317
1439.187347,11072
1440.358075,11121
1441.528269,11184
1442.697931,11100
1443.86706,11202
1445.035657,11283
1446.203721,11190
1447.371253,11245
1448.538253,11152
1449.704721,11276
1450.870658,11487
1452.036064,11177
1453.200938,11060
1454.365282,10958
1455.529094,11562
1456.692377,11395
1457.855129,11222
1459.017351,11930
1460.179043,11212
1461.340206,11425
1462.500839,11315
1463.660943,11317
1464.820517,11105
1465.979563,11258
1467.138081,-61
1468.29607,10925
1469.453531,10820
1470.610464,10756
1471.766869,10433
1472.922746,10506
1474.078096,10300
1475.232919,10109
1476.387215,10193
1477.540985,10090
1478.694227,9955
1479.846944,10160
1480.999134,9908
1482.150798,9836
1483.301937,9697
1484.45255,9947
1485.602637,10080
1486.7522,9788
1487.901238,9810
1489.049751,9964
1490.197739,9775
1491.345203,10062
1492.492144,10132
1493.63856,9691
1494.784452,9595
1495.929821,9937
1497.074667,10199
1498.21899,9623
1499.36279,9753
1500.506067,9743
1501.648821,9788
1502.791054,10005
1503.932764,9817
1505.073953,9494
1506.21462,9557
1507.354765,9840
1508.494389,9592
1509.633492,9648
1510.772074,10155
1511.910136,9992
1513.047677,10006
1514.184698,9877
1515.321198,9676
1516.457179,10091
1517.592641,9927
1518.727582,9899
1519.862005,9780
1520.995909,9828
1522.129293,10259
1523.262159,9971
1524.394507,9979
1525.526336,10407
1526.657647,10326
1527.788441,10091
1528.918717,10101
1530.048475,9941
1531.177716,10271
1532.30644,10258
1533.434647,10339
1534.562338,10426
1535.689512,10512
1536.816169,10395
1537.942311,10605
1539.067937,10685
1540.193047,10713
1541.317642,10534
1542.441721,10753
1543.565285,10402
1544.688335,10492
1545.81087,10692
1546.93289,10915
1548.054396,10840
1549.175388,10880
1550.295866,10887
1551.41583,10678
1552.535281,11051
1553.654218,11089
1554.772643,11348
1555.890554,10991
1557.007953,11068
1558.124839,10809
1559.241213,11114
1560.357075,11149
1561.472424,10863
1562.587262,11408
1563.701589,11476
1564.815404,11453
1565.928708,11600
1567.041501,11267
1568.153783,11750
1569.265555,11743
1570.376816,11728
1571.487567,11280
1572.597808,11583
1573.707539,11671
1574.816761,11671
1575.925473,11809
1577.033676,12190
1578.14137,11941
1579.248555,12081
1580.355231,11927
1581.461399,11816
1582.567059,12140
1583.672211,12212
1584.776854,12186
1585.88099,12589
1586.984619,12625
1588.08774,12146
1589.190354,12173
1590.292462,13019
1591.394062,12756
1592.495156,13034
1593.595744,12958
1594.695825,13608
1595.795401,13241
1596.89447,13427
1597.993034,13572
1599.091093,13564
1600.188647,13833
1601.285695,14022
1602.382239,13981
1603.478278,14427
1604.573812,14258
1605.668843,14682
1606.763369,14514
1607.857391,15008
1608.95091,14923
1610.043925,14930
1611.136437,15178
1612.228446,15433
1613.319952,15751
1614.410955,15869
1615.501455,15801
1616.591453,15444
1617.680949,16042
1618.769943,16011
1619.858435,16064
1620.946426,16320
1622.033915,16347
1623.120903,16414
1624.20739,16661
1625.293376,16985
1626.378861,16738
1627.463845,16889
1628.54833,16707
1629.632314,17036
1630.715799,17162
1631.798783,16793
1632.881268,17180
1633.963254,16763
1635.04474,16721
1636.125728,16777
1637.206216,16998
1638.286206,16640
1639.365698,17123
1640.444691,17048
1641.523187,16840
1642.601184,16633
1643.678683,17019
1644.755686,16807
1645.83219,16699
1646.908198,16675
1647.983708,16672
1649.058722,16417
1650.133239,16331
1651.20726,16395
1652.280785,16421
1653.353813,16171
1654.426346,16012
1655.498383,15973
1656.569924,15817
1657.64097,15914
1658.711521,15743
1659.781577,15322
1660.851139,15154
1661.920205,15266
1662.988777,15337
1664.056855,15099
1665.124439,14755
1666.191529,14601
1667.258126,14692
1668.324229,14214
1669.389838,14301
1670.454955,14151
1671.519578,13734
1672.583709,13893
1673.647347,13467
1674.710493,13454
1675.773147,13003
1676.835308,12743
1677.896978,12370
1678.958155,12355
1680.018842,12177
1681.079037,12129
1682.138741,11729
1683.197954,11706
1684.256676,11579
1685.314908,11318
1686.372649,10834
1687.4299,10844
1688.48666,11014
1689.542931,10799
1690.598713,10494
1691.654004,10238
1692.708807,10255
1693.76312,10022
1694.816944,9655
1695.870279,9871
1696.923126,9747
1697.975484,9275
1699.027354,9213
1700.078736,9379
1701.12963,9165
1702.180036,9263
1703.229955,9353
1704.279386,8924
1705.32833,8785
1706.376787,8556
1707.424757,8449
1708.47224,8652
1709.519237,8207
1710.565748,8240
1711.611772,8039
1712.65731,7966
1713.702363,8151
1714.74693,7873
1715.791011,7583
1716.834608,7451
1717.877719,7454
1718.920345,7071
1719.962486,7326
1721.004143,7195
1722.045316,7213
1723.086004,6991
1724.126208,6765
1725.165929,7001
1726.205165,6269
1727.243918,6624
1728.282188,6385
1729.319975,6640
1730.357278,6402
1731.394099,6214
1732.430437,6508
1733.466293,6322
1734.501666,6292
1735.536557,6226
1736.570967,6026
1737.604894,5577
1738.63834,5904
1739.671304,5843
1740.703787,5822
1741.735789,5627
1742.767311,5502
1743.798351,5562
1744.828911,5449
1745.85899,5482
1746.888589,5325
1747.917708,5123
1748.946348,5141
1749.974507,5524
1751.002187,5103
1752.029388,5108
1753.056109,5055
1754.082351,5016
1755.108115,4993
1756.1334,4931
1757.158206,4993
1758.182534,4733
1759.206384,4749
1760.229755,4836
1761.252649,4567
1762.275065,4904
1763.297004,4854
1764.318466,4476
1765.33945,4496
1766.359957,4381
1767.379988,4757
1768.399542,4515
1769.418619,4494
1770.43722,4173
1771.455345,4202
1772.472994,4104
1773.490167,4079
1774.506865,4028
1775.523087,4066
1776.538834,4036
1777.554106,3788
1778.568902,3855
1779.583224,4118
1780.597072,3723
1781.610444,4233
1782.623343,3802
1783.635768,3957
1784.647718,3968
1785.659195,3797
1786.670198,3598
1787.680728,3731
1788.690784,3786
1789.700368,3708
1790.709478,3932
1791.718116,3762
1792.726281,3683
1793.733973,3798
1794.741194,3559
1795.747942,3613
1796.754218,3519
1797.760023,3489
1798.765356,3624
1799.770217,3723
1800.774607,3584
1801.778526,3805
1802.781974,3458
1803.784952,3761
1804.787458,3509
1805.789495,3529
1806.791061,3532
1807.792156,3572
1808.792782,3514
1809.792938,3592
1810.792625,3460
1811.791842,3485
1812.79059,3500
1813.788868,3653
1814.786678,3180
1815.784019,3341
1816.780891,3388
1817.777295,3557
1818.77323,3556
1819.768697,3189
1820.763697,3308
1821.758228,3231
1822.752292,3654
1823.745888,3378
1824.739017,3270
1825.731679,3302
1826.723874,3571
1827.715602,3212
1828.706863,3134
1829.697658,3304
1830.687986,3380
1831.677848,3273
1832.667244,3213
1833.656175,3292
1834.644639,3301
1835.632638,3248
1836.620172,3246
1837.60724,3026
1838.593844,3444
1839.579982,3264
1840.565656,3314
1841.550865,3220
1842.53561,3428
1843.51989,3114
1844.503706,3218
1845.487059,3027
1846.469947,3188
1847.452372,3171
1848.434334,3232
1849.415832,3085
1850.396867,3047
1851.377439,3130
1852.357549,3153
1853.337195,3214
1854.31638,2924
1855.295101,3179
1856.273361,3111
1857.251159,2908
1858.228494,3443
1859.205369,3022
1860.181781,2903
1861.157732,3103
1862.133222,2833
1863.108251,2795
1864.082819,2905
1865.056926,2853
1866.030573,2921
1867.003759,3182
1867.976485,2847
1868.948751,2962
1869.920556,2798
1870.891902,3006
1871.862789,2807
1872.833216,3081
1873.803183,2943
1874.772691,2974
1875.741741,2989
1876.710331,2725
1877.678463,2642
1878.646136,2673
1879.613351,2723
1880.580108,2818
1881.546406,2844
1882.512247,2631
1883.47763,2774
1884.442555,2939
1885.407023,2725
1886.371033,2843
1887.334586,2689
1888.297683,2574
1889.260322,2737
1890.222505,2752
1891.184231,2765
1892.145501,2508
1893.106315,2770
1894.066673,2836
1895.026574,2664
1895.98602,2798
1896.945011,2591
1897.903546,2641
1898.861626,2791
1899.81925,2731
1900.77642,2757
1901.733135,2663
1902.689395,2632
1903.6452,2735
1904.600551,2753
1905.555448,2656
1906.509891,2725
1907.46388,2550
1908.417416,2493
1909.370498,2780
1910.323126,2613
1911.275301,2578
1912.227023,2650
1913.178292,2758
1914.129108,2721
1915.079471,2820
1916.029382,2631
1916.97884,2619
1917.927846,2716
1918.876401,2538
1919.824503,2802
1920.772153,2987
1921.719352,2507
1922.6661,2575
1923.612396,2106
1924.558241,2681
1925.503635,2541
1926.448578,2701
1927.39307,2641
1928.337112,2722
1929.280703,2566
1930.223844,2762
1931.166535,2784
1932.108776,2660
1933.050568,2651
1933.991909,2752
1934.932801,2664
1935.873244,2753
1936.813238,2938
1937.752782,3025
1938.691878,2697
1939.630525,2834
1940.568723,2814
1941.506473,2854
1942.443774,2826
1943.380627,2702
1944.317033,2936
1945.25299,2605
1946.1885,2937
1947.123562,2838
1948.058177,2743
1948.992344,2530
1949.926065,2814
1950.859338,2734
1951.792165,2799
1952.724545,2895
1953.656478,2928
1954.587965,2975
1955.519006,2907
1956.4496,2837
1957.379749,2805
1958.309452,2862
1959.238709,2747
1960.167521,2923
1961.095888,2612
1962.023809,2694
1962.951285,2827
1963.878317,2919
1964.804903,2549
1965.731045,2666
1966.656743,2578
1967.581996,2861
1968.506805,2745
1969.43117,2574
1970.355091,2651
1971.278568,2842
1972.201602,2636
1973.124192,2848
1974.046339,2969
1974.968043,2579
1975.889304,2755
1976.810122,2744
1977.730498,2745
1978.65043,3022
1979.569921,2953
1980.488969,2817
1981.407574,2953
1982.325738,2880
1983.24346,2859
1984.160741,2732
1985.077579,2472
1985.993977,2654
1986.909933,2786
1987.825448,2855
1988.740522,2510
1989.655155,2881
1990.569347,2801
1991.483099,2802
1992.396411,2685
1993.309282,2924
1994.221713,2556
1995.133704,2874
1996.045256,3030
1996.956367,2722
1997.867039,2929
1998.777272,2672
1999.687065,2914
2000.596419,2903
2001.505335,2852
2002.413811,2890
2003.321849,2905
2004.229448,2606
2005.136609,2845
2006.043331,2770
2006.949616,2723
2007.855462,2972
2008.760871,2741
2009.665841,2782
2010.570375,2897
2011.47447,2951
2012.378129,2863
2013.281351,3074
2014.184135,2979
2015.086483,2932
2015.988393,2883
2016.889868,2943
2017.790906,3258
2018.691507,2935
2019.591673,3087
2020.491402,3273
2021.390695,2929
2022.289553,2877
2023.187975,2841
2024.085962,3001
2024.983514,2862
2025.88063,3200
2026.777311,3028
2027.673557,3052
2028.569369,2762
2029.464746,3008
2030.359688,3234
2031.254197,2817
2032.148271,3164
2033.04191,2892
2033.935116,3079
2034.827889,2894
2035.720227,2844
2036.612132,2947
2037.503604,3011
2038.394642,2963
2039.285248,2975
2040.17542,2938
2041.06516,2913
2041.954466,3205
2042.843341,3091
2043.731783,2863
2044.619792,2962
2045.50737,2610
2046.394516,3118
2047.281229,2811
2048.167511,3007
2049.053362,2951
2049.938781,2995
2050.823768,3030
2051.708325,2983
2052.59245,2921
2053.476145,2969
2054.359409,2851
2055.242242,2853
2056.124645,2759
2057.006617,2684
2057.888159,3024
2058.769271,2635
2059.649953,2832
2060.530206,2921
2061.410028,2517
2062.289421,2936
2063.168385,3145
2064.046919,2994
2064.925025,2912
2065.802701,3052
2066.679949,2900
2067.556767,2752
2068.433157,2890
2069.309119,3167
2070.184652,2848
2071.059758,2883
2071.934435,2893
2072.808684,3052
2073.682505,2907
2074.555899,2839
2075.428865,2965
2076.301404,2742
2077.173516,2916
2078.0452,2919
2078.916458,2897
2079.787289,2758
2080.657693,2565
2081.52767,3071
2082.397221,2623
2083.266346,2988
2084.135044,2977
2085.003316,3168
2085.871163,2777
2086.738584,3015
2087.605579,3103
2088.472148,2932
2089.338292,2819
2090.204011,2930
2091.069305,2961
2091.934174,2853
2092.798618,2891
2093.662637,2865
2094.526231,2852
2095.389402,2796
2096.252147,2986
2097.114469,2897
2097.976366,2970
2098.83784,2879
2099.69889,2993
2100.559516,2821
2101.419719,2976
2102.279498,2928
2103.138854,2661
2103.997786,2830
2104.856296,2994
2105.714383,2821
2106.572047,3014
2107.429289,2822
2108.286108,2763
2109.142504,3104
2109.998479,2996
2110.854031,2893
2111.709161,3056
2112.56387,3011
2113.418156,2820
2114.272021,2466
2115.125465,2552
2115.978487,2676
2116.831089,2881
2117.683269,2648
2118.535028,2699
2119.386366,2674
2120.237284,2694
2121.087781,2716
2121.937857,2607
2122.787514,2459
2123.63675,2575
2124.485566,2419
2125.333962,2487
2126.181939,2571
2127.029496,2753
2127.876633,2573
2128.723351,2487
2129.569649,2525
2130.415529,2715
2131.260989,2578
2132.106031,2452
2132.950654,2597
2133.794858,2506
2134.638643,2755
2135.482011,2692
2136.32496,2545
2137.167491,2748
2138.009604,2456
2138.851299,2415
2139.692576,2340
2140.533436,2210
2141.373878,2392
2142.213903,2394
2143.05351,2455
2143.892701,2519
2144.731474,2647
2145.569831,2505
2146.407771,2477
2147.245294,2615
2148.082401,2183
2148.919091,2397
2149.755365,2640
2150.591224,2224
2151.426666,2313
2152.261692,2379
2153.096302,2432
2153.930497,2402
2154.764277,2158
2155.597641,2348
2156.43059,2255
2157.263124,2805
2158.095242,2249
2158.926946,2409
2159.758236,2290
2160.58911,2359
2161.41957,2350
2162.249616,2058
2163.079248,2236
2163.908465,2165
2164.737269,2261
2165.565658,2387
2166.393634,2033
2167.221196,2131
2168.048345,2126
2168.87508,2288
2169.701402,2307
2170.527311,1964
2171.352807,2129
2172.177891,2140
2173.002561,2162
2173.826819,2189
2174.650664,2314
2175.474097,2068
2176.297117,2288
2177.119726,1981
2177.941922,2244
2178.763707,2113
2179.58508,2308
2180.406041,2199
2181.22659,2138
2182.046729,2362
2182.866456,2122
2183.685771,1972
2184.504676,2079
2185.32317,2141
2186.141253,1942
2186.958925,2064
2187.776187,2167
2188.593038,1763
2189.409479,2032
2190.22551,2012
2191.041131,2301
2191.856342,2123
2192.671143,1957
2193.485534,2657
2194.299516,2208
2195.113088,1988
2195.926251,1887
2196.739005,1978
2197.551349,2078
2198.363285,1888
2199.174812,2028
2199.98593,2019
2200.796639,2154
2201.60694,1927
2202.416832,1934
2203.226317,1690
2204.035393,1765
2204.844061,1848
2205.652321,1881
2206.460173,1784
2207.267618,1799
2208.074655,1808
2208.881285,1793
2209.687507,1948
2210.493322,1694
2211.29873,1811
2212.103732,1956
2212.908326,1850
2213.712513,1745
2214.516294,1999
2215.319669,1353
2216.122637,1460
2216.925199,1679
2217.727355,1384
2218.529105,1475
2219.330449,1826
2220.131387,1816
2220.931919,1709
2221.732046,1593
2222.531768,1773
2223.331084,1654
2224.129995,1402
2224.928501,1440
2225.726602,1456
2226.524298,1460
2227.321589,1500
2228.118476,1737
2228.914959,1377
2229.711037,1457
2230.50671,1591
2231.30198,1445
2232.096846,1530
2232.891307,1688
2233.685365,1546
2234.479019,1511
2235.27227,1130
2236.065117,1718
2236.857561,1540
2237.649602,1405
2238.441239,1457
2239.232474,1570
2240.023306,1578
2240.813735,1718
2241.603761,1194
2242.393385,1486
2243.182607,1685
2243.971426,1415
2244.759843,1287
2245.547858,1238
2246.335471,1476
2247.122682,1376
2247.909492,1461
2248.6959,1331
2249.481906,1482
2250.267511,1292
2251.052715,1480
2251.837518,1546
2252.621919,1183
2253.40592,1309
2254.18952,1564
2254.972719,966
2255.755518,1376
2256.537916,1137
2257.319914,1406
2258.101512,1180
2258.88271,1233
2259.663507,1217
2260.443905,1092
2261.223903,1412
2262.003501,1510
2262.7827,1188
2263.561499,1162
2264.339899,1216
2265.1179,1332
2265.895501,818
2266.672704,909
2267.449508,1150
2268.225913,1254
2269.001919,973
2269.777527,1034
2270.552737,1192
2271.327548,1239
2272.101961,1132
2272.875975,1356
2273.649592,1070
2274.422811,941
2275.195632,1325
2275.968056,1175
2276.740082,1018
2277.511711,1119
2278.282942,1232
2279.053776,958
2279.824213,1005
2280.594253,1267
2281.363897,847
2282.133143,1131
2282.901993,867
2283.670446,906
2284.438503,1023
2285.206164,1027
2285.973428,1127
2286.740296,961
2287.506769,1113
2288.272845,1029
2289.038526,1097
2289.803811,957
2290.5687,1060
2291.333194,904
2292.097293,1040
2292.860997,976
2293.624305,898
2294.387219,897
2295.149737,1150
2295.911861,999
2296.67359,813
2297.434925,922
2298.195865,1084
2298.956411,1045
2299.716562,1227
2300.47632,988
2301.235683,959
2301.994653,939
2302.753229,824
2303.511411,709
2304.269199,929
2305.026594,1029
2305.783596,979
2306.540204,915
2307.29642,850
2308.052242,814
2308.807671,904
2309.562708,1023
2310.317351,955
2311.071603,932
2311.825461,923
2312.578928,978
2313.332002,1035
2314.084684,839
2314.836973,728
2315.588871,1079
2316.340377,820
2317.091491,775
2317.842214,893
2318.592545,543
2319.342485,963
2320.092033,1033
2320.84119,789
2321.589956,912
2322.338331,1173
2323.086315,821
2323.833908,794
2324.581111,744
2325.327923,958
2326.074345,1158
2326.820376,856
2327.566017,903
2328.311268,1071
2329.056129,664
2329.800599,756
2330.54468,771
2331.288372,1005
2332.031673,611
2332.774585,764
2333.517108,728
2334.259242,793
2335.000986,750
2335.742341,727
2336.483307,491
2337.223884,733
2337.964073,768
2338.703872,583
2339.443283,691
2340.182306,781
2340.92094,880
2341.659187,730
2342.397044,581
2343.134514,535
2343.871596,786
2344.60829,628
2345.344597,697
2346.080515,808
2346.816046,851
2347.55119,406
2348.285946,776
2349.020316,490
2349.754298,610
2350.487893,889
2351.221101,739
2351.953922,476
2352.686356,541
2353.418404,678
2354.150066,800
2354.881341,635
2355.61223,625
2356.342732,686
2357.072849,656
2357.802579,648
2358.531924,851
2359.260883,640
2359.989456,517
2360.717643,644
2361.445445,613
2362.172862,571
2362.899893,636
2363.626539,658
2364.352801,719
2365.078677,550
2365.804168,401
2366.529275,670
2367.253996,808
2367.978334,665
2368.702286,595
2369.425855,584
2370.149039,737
2370.871839,577
2371.594255,556
2372.316287,601
2373.037935,670
2373.7592,670
2374.48008,508
2375.200578,551
2375.920691,284
2376.640422,742
2377.359769,612
2378.078733,729
2378.797314,741
2379.515511,574
2380.233327,215
2380.950759,365
2381.667808,566
2382.384476,586
2383.10076,547
2383.816663,471
2384.532183,440
2385.24732,657
2385.962076,375
2386.67645,281
2387.390442,509
2388.104052,527
2388.817281,236
2389.530128,317
2390.242593,582
2390.954677,338
2391.66638,203
2392.377702,379
2393.088643,484
2393.799202,526
2394.509381,206
2395.219179,427
2395.928596,241
2396.637633,119
2397.346289,387
2398.054565,416
2398.762461,225
2399.469976,448
2400.177111,351
2400.883867,361
2401.590242,295
2402.296238,356
2403.001854,251
2403.70709,359
2404.411947,168
2405.116424,331
2405.820522,304
2406.524241,417
2407.227581,237
2407.930542,260
2408.633123,337
2409.335326,236
2410.037151,288
