Frequent,Density
-31.722347,12304
-29.886687,14184
-28.051868,16826
-26.217889,19028
-24.384749,22721
-22.552448,26033
-20.720985,30019
-18.890361,34482
-17.060575,36525
-15.231626,44792
-13.403514,42227
-11.576239,47066
-9.749799,47272
-7.924195,45191
-6.099426,36733
-4.275492,36338
-2.452392,40862
-0.630127,36395
1.191306,33256
3.011906,32107
4.831672,37684
6.650607,40488
8.46871,32107
10.285982,26308
12.102423,23359
13.918034,21058
15.732815,19889
17.546766,19785
19.359888,18387
21.172181,16441
22.983647,13574
24.794284,11743
26.604094,11046
28.413077,10200
30.221233,9010
32.028563,7438
33.835068,5746
35.640747,4990
37.445602,4543
39.249632,4542
41.052838,4264
42.855221,4216
44.656781,4024
46.457517,3912
48.257432,3678
50.056525,3405
51.854796,3397
53.652246,3421
55.448876,3469
57.244685,3300
59.039675,3401
60.833846,3956
62.627197,3767
64.41973,3930
66.211446,4307
68.002343,4364
69.792423,4337
71.581687,4894
73.370134,4808
75.157765,5146
76.944581,5695
78.730581,6430
80.515767,7128
82.300139,7891
84.083697,9320
85.866441,10226
87.648372,11112
89.429491,12801
91.209797,14415
92.989292,16767
94.767976,19564
96.545848,22803
98.32291,26676
100.099162,32681
101.874604,27547
103.649237,31666
105.423061,31684
107.196077,36687
108.968284,35340
110.739684,34496
112.510277,32740
114.280063,32583
116.049042,31974
117.817216,35919
119.584584,43053
121.351147,38391
123.116905,36534
124.881859,37704
126.646009,28678
128.409356,41593
130.171899,40570
131.93364,38012
133.694578,27309
135.454715,34484
137.21405,33111
138.972584,29178
140.730317,43587
142.48725,36073
144.243384,25401
145.998718,34810
147.753252,28952
149.506989,34934
151.259927,36405
153.012067,42781
154.76341,33156
156.513956,40017
158.263705,35892
160.012659,36515
161.760816,30103
163.508178,36259
165.254745,33423
167.000518,36925
168.745496,38224
170.489681,35352
172.233072,35878
173.975671,42692
175.717476,28209
177.45849,37009
179.198712,29521
180.938142,35776
182.676782,29797
184.414631,36943
186.15169,33875
187.887959,28669
189.623439,39789
191.35813,30695
193.092032,34832
194.825147,33690
196.557473,33075
198.289012,34873
200.019764,33100
201.74973,31597
203.478909,35482
205.207303,35548
206.934911,37417
208.661735,38305
210.387773,31861
212.113028,31150
213.837499,30615
215.561186,34229
217.28409,34607
219.006212,32347
220.727552,32742
222.44811,37520
224.167886,37085
225.886881,33070
227.605096,34444
229.32253,31642
231.039185,31655
232.75506,30157
234.470156,23918
236.184473,32587
237.898012,28624
239.610773,28964
241.322757,36933
243.033964,36158
244.744393,28414
246.454047,34017
248.162924,31311
249.871026,31181
251.578353,34232
253.284905,30782
254.990683,40191
256.695686,31754
258.399916,35213
260.103373,36049
261.806057,35732
263.507968,38746
265.209107,32622
266.909475,31757
268.609071,32883
270.307897,28271
272.005952,33670
273.703236,34714
275.399751,33455
277.095497,31912
278.790473,38056
280.484681,30612
282.178121,33600
283.870793,38354
285.562697,30087
287.253835,39965
288.944205,38223
290.633809,30247
292.322648,31792
294.010721,35916
295.698028,38081
297.384571,39748
299.070349,37488
300.755364,39017
302.439614,34429
304.123102,34487
305.805826,36671
307.487788,34803
309.168988,34673
310.849426,39567
312.529103,32650
314.208018,32512
315.886173,21788
317.563568,35789
319.240203,36850
320.916079,39712
322.591195,35941
324.265552,38059
325.939151,34503
327.611993,34826
329.284076,35091
330.955402,36189
332.625972,41756
334.295785,36870
335.964841,34174
337.633142,31446
339.300688,37947
340.967479,29729
342.633515,37696
344.298796,35452
345.963324,36008
347.627098,34954
349.29012,39943
350.952388,35107
352.613904,36781
354.274668,33733
355.93468,33356
357.593941,37914
359.252451,38110
360.910211,30731
362.56722,36273
364.22348,32981
365.87899,30090
367.533751,40548
369.187763,34760
370.841027,33259
372.493543,36137
374.145311,42112
375.796332,37235
377.446607,22361
379.096134,41996
380.744916,33973
382.392952,31211
384.040242,37164
385.686787,46453
387.332588,36561
388.977645,39609
390.621957,35896
392.265526,41457
393.908351,31029
395.550434,39853
397.191775,37393
398.832373,28249
400.472229,39177
402.111344,43015
403.749718,42791
405.387351,39083
407.024244,29687
408.660397,37579
410.295811,39930
411.930485,40970
413.56442,39774
415.197617,47462
416.830076,25660
418.461796,40592
420.09278,39970
421.723026,36470
423.352536,29432
424.981309,31527
426.609346,37407
428.236648,35686
429.863214,41222
431.489046,43699
433.114143,29574
434.738505,39794
436.362134,32570
437.98503,31252
439.607192,35612
441.228621,32648
442.849318,38394
444.469283,30742
446.088516,37095
447.707018,32387
449.324789,27911
450.941829,35206
452.558139,31704
454.173719,38232
455.78857,6198
457.402691,36288
459.016083,37978
460.628747,37787
462.240682,39279
463.85189,38872
465.46237,35983
467.072124,39186
468.68115,31350
470.28945,39526
471.897024,33463
473.503872,33660
475.109995,39736
476.715393,34908
478.320066,40192
479.924015,34284
481.52724,36201
483.129741,35223
484.731519,32691
486.332575,38387
487.932907,26801
489.532517,37149
491.131406,30598
492.729573,30514
494.327019,36540
495.923744,36675
497.519748,28325
499.115033,35164
500.709597,39058
502.303442,37891
503.896568,36252
505.488976,34759
507.080665,38167
508.671635,37324
510.261889,28776
511.851424,36249
513.440243,32462
515.028345,37934
516.615731,38815
518.202401,36673
519.788355,34793
521.373593,41644
522.958117,35540
524.541926,28880
526.125021,36003
527.707402,29725
529.28907,36603
530.870024,24867
532.450265,30105
534.029794,35014
535.60861,34283
537.186715,41648
538.764108,32002
540.340789,29407
541.91676,38574
543.492021,39206
545.066571,33037
546.640411,34828
548.213542,31620
549.785964,30660
551.357676,39708
552.928681,34869
554.498977,44285
556.068565,31873
557.637446,40747
559.20562,43535
560.773087,39737
562.339847,35679
563.905901,33093
565.47125,31598
567.035893,30770
568.599831,31851
570.163064,36854
571.725593,35915
573.287417,37254
574.848538,41230
576.408955,35216
577.968669,33126
579.52768,35896
581.085989,31076
582.643596,39140
584.200501,36747
585.756704,31894
587.312207,41755
588.867008,38551
590.42111,38563
591.974511,33984
593.527212,34928
595.079214,30238
596.630516,38506
598.18112,39372
599.731025,24073
601.280232,35763
602.828742,38604
604.376554,36354
605.923668,38391
607.470086,32427
609.015808,41138
610.560833,36005
612.105162,38414
613.648796,35304
615.191735,34382
616.733979,32716
618.275528,42324
619.816383,32084
621.356544,30905
622.896012,36766
624.434787,38275
625.972868,32725
627.510257,33277
629.046954,38407
630.582959,32596
632.118272,32842
633.652894,40433
635.186825,36659
636.720066,37262
638.252616,32869
639.784476,39770
641.315647,30777
642.846128,29234
644.37592,32436
645.905024,32695
647.433439,27624
648.961166,40172
650.488206,40036
652.014558,30159
653.540223,32072
655.065201,35283
656.589493,36973
658.113099,34829
659.636019,35222
661.158253,34341
662.679803,37946
664.200668,35391
665.720848,37769
667.240344,37876
668.759156,34621
670.277284,33874
671.79473,36917
673.311492,35103
674.827572,36563
676.34297,36387
677.857686,33200
679.37172,36158
680.885072,27824
682.397744,35059
683.909735,35760
685.421046,33413
686.931677,35554
688.441628,30133
689.950899,35715
691.459492,35079
692.967406,35000
694.474641,35088
695.981198,35024
697.487078,16043
698.992279,34976
700.496804,34515
702.000652,34585
703.503823,28893
705.006318,29896
706.508137,34355
708.00928,32065
709.509748,34626
711.009541,34068
712.50866,34003
714.007104,30927
715.504874,29317
717.00197,33944
718.498393,33495
719.994142,33892
721.489219,33664
722.983624,33363
724.477356,33093
725.970416,29204
727.462805,33145
728.954522,31736
730.445569,25130
731.935944,33010
733.42565,32759
734.914685,33236
736.403051,32881
737.890748,32622
739.377775,32612
740.864133,27298
742.349823,32199
743.834845,32291
745.319199,32752
746.802886,32561
748.285905,32507
749.768257,32163
751.249943,32078
752.730962,32613
754.211315,31718
755.691003,32163
757.170025,32071
758.648382,29180
760.126075,31521
761.603102,31460
763.079466,31683
764.555166,31493
766.030202,31340
767.504575,30773
768.978285,31601
770.451332,31171
771.923717,31342
773.39544,31335
774.866501,30913
776.3369,30857
777.806639,30646
779.275716,30748
780.744134,29976
782.21189,29640
783.678987,29609
785.145425,29098
786.611203,29637
788.076322,29267
789.540782,29178
791.004583,27901
792.467727,28830
793.930213,28577
795.392041,27671
796.853212,27784
798.313726,27650
799.773584,27402
801.232785,27448
802.69133,27587
804.14922,26983
805.606454,26844
807.063032,26972
808.518956,26755
809.974226,26639
811.428841,26477
812.882802,26249
814.33611,25921
815.788764,25793
817.240766,25772
818.692114,25568
820.14281,24712
821.592854,25682
823.042246,25351
824.490986,25033
825.939075,24847
827.386514,25273
828.833301,24732
830.279438,24703
831.724925,24637
833.169762,24534
834.61395,24729
836.057488,24361
837.500378,24246
838.942619,24505
840.384212,24398
841.825156,24733
843.265453,24443
844.705102,16388
846.144105,24694
847.58246,24884
849.020169,24179
850.457231,24145
851.893648,24095
853.329418,23988
854.764544,23815
856.199024,23607
857.632859,23747
859.06605,23562
860.498597,23591
861.9305,23430
863.361759,23214
864.792374,23040
866.222347,22936
867.651677,22506
869.080364,22294
870.508409,22520
871.935812,22573
873.362574,21851
874.788694,21636
876.214173,22044
877.639011,21591
879.063209,21527
880.486766,21569
881.909684,21367
883.331962,21279
884.753601,21265
886.174601,21132
887.594961,21218
889.014684,21069
890.433768,21265
891.852214,21294
893.270023,21439
894.687194,21690
896.103729,21613
897.519626,21560
898.934887,21410
900.349512,21488
901.763501,20978
903.176854,21125
904.589572,20785
906.001655,20758
907.413103,20363
908.823917,20602
910.234096,20217
911.643642,19995
913.052554,20226
914.460832,19952
915.868477,20290
917.27549,19713
918.68187,19863
920.087618,19836
921.492734,19691
922.897218,19050
924.301071,19204
925.704292,18239
927.106883,18785
928.508844,18417
929.910174,18058
931.310874,17873
932.710944,17956
934.110385,17541
935.509197,17669
936.907379,17538
938.304934,17412
939.70186,17365
941.098158,17219
942.493828,17192
943.88887,17050
945.283286,16785
946.677075,16955
948.070236,16989
949.462772,16355
950.854681,16592
952.245965,16876
953.636623,16919
955.026656,16918
956.416064,16640
957.804847,16697
959.193006,16643
960.58054,16445
961.967451,16572
963.353738,16513
964.739402,16579
966.124442,16358
967.50886,16436
968.892656,16295
970.275829,16484
971.65838,16151
973.04031,16394
974.421618,15973
975.802305,16324
977.182371,16407
978.561816,16341
979.940641,16074
981.318846,16407
982.696432,16291
984.073398,16300
985.449744,16212
986.825472,16534
988.200581,16290
989.575072,16285
990.948944,16549
992.322199,16165
993.694836,16542
995.066855,16440
996.438258,16568
997.809044,16525
999.179213,16760
1000.548766,16284
1001.917703,16711
1003.286024,16517
1004.65373,16553
1006.020821,16789
1007.387297,16933
1008.753158,16380
1010.118405,14044
1011.483038,16826
1012.847057,17196
1014.210462,17352
1015.573254,17277
1016.935433,17249
1018.296999,17164
1019.657953,17399
1021.018295,17243
1022.378025,17035
1023.737143,16987
1025.095649,17355
1026.453544,17005
1027.810829,17059
1029.167503,17262
1030.523566,16666
1031.87902,17156
1033.233863,17169
1034.588097,17233
1035.941722,17394
1037.294738,16918
1038.647145,17293
1039.998943,17281
1041.350133,17177
1042.700716,16994
1044.05069,17606
1045.400057,17221
1046.748817,17279
1048.09697,17470
1049.444516,17546
1050.791456,17670
1052.13779,17657
1053.483518,17840
1054.82864,18276
1056.173157,18252
1057.517069,19000
1058.860376,18641
1060.203079,18885
1061.545177,19129
1062.886671,18951
1064.227562,19101
1065.567848,18888
1066.907532,18441
1068.246613,18526
1069.585091,18439
1070.922966,18041
1072.260239,18051
1073.596911,17959
1074.93298,17680
1076.268448,17681
1077.603315,17222
1078.937581,17479
1080.271247,17513
1081.604312,17349
1082.936776,16828
1084.268641,16924
1085.599907,16415
1086.930573,16354
1088.260639,16333
1089.590107,15983
1090.918977,15801
1092.247248,15860
1093.574921,15906
1094.901996,16209
1096.228474,15942
1097.554354,16333
1098.879637,16535
1100.204323,16716
1101.528413,16807
1102.851907,16606
1104.174804,16961
1105.497106,16900
1106.818812,17097
1108.139923,17019
1109.460439,17374
1110.78036,17567
1112.099687,17649
1113.41842,17735
1114.736558,18000
1116.054103,17976
1117.371054,18235
1118.687412,18250
1120.003177,18689
1121.318349,18595
1122.632929,18423
1123.946916,18970
1125.260312,18556
1126.573116,18577
1127.885328,18304
1129.196949,18168
1130.507979,17926
1131.818419,18075
1133.128268,17573
1134.437527,16949
1135.746195,16893
1137.054275,16484
1138.361764,16156
1139.668665,15762
1140.974976,15438
1142.280699,15227
1143.585833,15161
1144.890379,15339
1146.194337,14852
1147.497708,14728
1148.800491,14855
1150.102687,14634
1151.404295,14207
1152.705318,14877
1154.005753,14451
1155.305603,14460
1156.604866,14488
1157.903544,14522
1159.201636,14219
1160.499143,14289
1161.796065,14223
1163.092402,14095
1164.388155,14228
1165.683324,13571
1166.977908,13739
1168.271909,13455
1169.565326,13536
1170.85816,13713
1172.150411,13843
1173.44208,13277
1174.733165,13475
1176.023669,13651
1177.31359,13456
1178.60293,13272
1179.891688,13137
1181.179865,13336
1182.467461,13351
1183.754476,13157
1185.04091,13243
1186.326765,13273
1187.612039,13313
1188.896733,13483
1190.180848,13537
1191.464383,13700
1192.747339,13267
1194.029717,13626
1195.311515,13572
1196.592736,13401
1197.873378,13391
1199.153442,13560
1200.432929,13568
1201.711838,13569
1202.990171,13822
1204.267926,13716
1205.545105,13641
1206.821707,13783
1208.097733,13690
1209.373183,13734
1210.648057,13127
1211.922356,13542
1213.196079,13545
1214.469228,13494
1215.741802,13468
1217.013801,13418
1218.285226,13422
1219.556077,13453
1220.826355,13358
1222.096058,13345
1223.365189,13338
1224.633746,13414
1225.90173,13007
1227.169142,13262
1228.435982,13477
1229.702249,13218
1230.967945,13204
1232.233069,13002
1233.497621,13286
1234.761602,13021
1236.025013,12960
1237.287852,12871
1238.550121,13096
1239.81182,13098
1241.072949,12687
1242.333509,12997
1243.593498,12872
1244.852919,12953
1246.11177,12846
1247.370053,12925
1248.627767,13146
1249.884912,12985
1251.14149,13149
1252.397499,13290
1253.652942,13408
1254.907816,13518
1256.162124,13095
1257.415864,13621
1258.669038,13404
1259.921646,13613
1261.173687,13310
1262.425162,13481
1263.676071,13656
1264.926415,13579
1266.176194,13741
1267.425408,13812
1268.674056,13444
1269.92214,13497
1271.16966,13528
1272.416616,13366
1273.663008,13311
1274.908836,13625
1276.1541,13165
1277.398802,13371
1278.64294,13096
1279.886516,13226
1281.129529,13003
1282.37198,12971
1283.613869,12773
1284.855196,12867
1286.095962,12684
1287.336166,12902
1288.575809,13063
1289.814891,12883
1291.053413,13079
1292.291374,12709
1293.528775,12714
1294.765616,12710
1296.001897,12687
1297.237618,12752
1298.472781,12554
1299.707384,12924
1300.941428,12792
1302.174914,12643
1303.407842,12659
1304.640211,13096
1305.872022,12981
1307.103276,12623
1308.333972,13376
1309.564111,12791
1310.793693,12907
1312.022719,13164
1313.251187,13359
1314.4791,13227
1315.706456,13408
1316.933256,13411
1318.159501,13437
1319.38519,13538
1320.610324,13591
1321.834903,13329
1323.058928,13476
1324.282398,13376
1325.505313,13426
1326.727675,13741
1327.949482,13894
1329.170736,13693
1330.391437,13625
1331.611584,13894
1332.831179,13622
1334.050221,13722
1335.26871,13426
1336.486647,13734
1337.704032,13406
1338.920865,13638
1340.137147,13682
1341.352877,13466
1342.568056,13442
1343.782684,13646
1344.996761,13268
1346.210288,13356
1347.423265,13168
1348.635691,13218
1349.847568,13492
1351.058895,13227
1352.269673,12913
1353.479901,13387
1354.689581,12928
1355.898712,13173
1357.107294,13222
1358.315329,13314
1359.522815,13527
1360.729753,13013
1361.936144,13186
1363.141987,13462
1364.347283,13058
1365.552032,13562
1366.756235,13450
1367.959891,13306
1369.163,13494
1370.365564,13110
1371.567582,13508
1372.769054,13488
1373.96998,13364
1375.170362,13536
1376.370198,13262
1377.56949,12923
1378.768237,12773
1379.96644,12795
1381.164099,12733
1382.361214,12870
1383.557785,13007
1384.753813,13056
1385.949297,12554
1387.144239,12741
1388.338637,12770
1389.532493,12755
1390.725807,12097
1391.918579,12350
1393.110808,12202
1394.302496,11962
1395.493643,11878
1396.684248,12106
1397.874312,11756
1399.063835,11836
1400.252818,11912
1401.44126,11626
1402.629162,11708
1403.816524,11591
1405.003346,11523
1406.189629,11593
1407.375372,11614
1408.560576,11461
1409.745241,11516
1410.929368,11455
1412.112956,11478
1413.296006,11204
1414.478517,11344
1415.660491,11313
1416.841927,11382
1418.022826,11142
1419.203188,11157
1420.383012,10973
1421.5623,11398
1422.741051,11386
1423.919266,11388
1425.096945,11172
1426.274088,11268
1427.450695,11136
1428.626766,10990
1429.802302,11135
1430.977303,11179
1432.15177,11301
1433.325701,11077
1434.499098,11140
1435.671961,11161
1436.84429,11193
1438.016085,10979
1439.187347,11018
1440.358075,10963
1441.528269,10827
1442.697931,11228
1443.86706,11052
1445.035657,10954
1446.203721,10845
1447.371253,11242
1448.538253,11009
1449.704721,11111
1450.870658,11300
1452.036064,11224
1453.200938,10862
1454.365282,11268
1455.529094,11441
1456.692377,11501
1457.855129,11243
1459.017351,11520
1460.179043,11033
1461.340206,11158
1462.500839,11354
1463.660943,11021
1464.820517,11091
1465.979563,10876
1467.138081,-50
1468.29607,10884
1469.453531,10827
1470.610464,11107
1471.766869,10243
1472.922746,10160
1474.078096,10161
1475.232919,10228
1476.387215,10068
1477.540985,9859
1478.694227,9967
1479.846944,10018
1480.999134,9883
1482.150798,9745
1483.301937,9779
1484.45255,9763
1485.602637,9990
1486.7522,9735
1487.901238,9732
1489.049751,9696
1490.197739,9751
1491.345203,9716
1492.492144,9761
1493.63856,9683
1494.784452,9585
1495.929821,9719
1497.074667,9835
1498.21899,9557
1499.36279,9846
1500.506067,9545
1501.648821,9878
1502.791054,9892
1503.932764,9905
1505.073953,9564
1506.21462,9794
1507.354765,9728
1508.494389,9291
1509.633492,9682
1510.772074,9877
1511.910136,9752
1513.047677,10101
1514.184698,9708
1515.321198,9642
1516.457179,9878
1517.592641,9865
1518.727582,9880
1519.862005,9783
1520.995909,9852
1522.129293,10118
1523.262159,9818
1524.394507,9937
1525.526336,10134
1526.657647,10141
1527.788441,9952
1528.918717,10090
1530.048475,9900
1531.177716,10040
1532.30644,9983
1533.434647,10281
1534.562338,10326
1535.689512,10523
1536.816169,10227
1537.942311,10425
1539.067937,10681
1540.193047,10620
1541.317642,10229
1542.441721,10581
1543.565285,10496
1544.688335,10423
1545.81087,10279
1546.93289,10812
1548.054396,10967
1549.175388,11067
1550.295866,10866
1551.41583,10637
1552.535281,10769
1553.654218,10814
1554.772643,11135
1555.890554,10934
1557.007953,11039
1558.124839,10651
1559.241213,11036
1560.357075,11122
1561.472424,10682
1562.587262,11293
1563.701589,11418
1564.815404,11351
1565.928708,11550
1567.041501,11242
1568.153783,11566
1569.265555,11582
1570.376816,11446
1571.487567,11374
1572.597808,11534
1573.707539,11602
1574.816761,11500
1575.925473,11576
1577.033676,11834
1578.14137,11898
1579.248555,12048
1580.355231,11923
1581.461399,11965
1582.567059,12030
1583.672211,12044
1584.776854,12083
1585.88099,12621
1586.984619,12451
1588.08774,11934
1589.190354,11953
1590.292462,12741
1591.394062,12842
1592.495156,13031
1593.595744,12874
1594.695825,13398
1595.795401,13178
1596.89447,13138
1597.993034,13418
1599.091093,13424
1600.188647,13932
1601.285695,14042
1602.382239,14004
1603.478278,14006
1604.573812,14437
1605.668843,14293
1606.763369,14228
1607.857391,14707
1608.95091,14838
1610.043925,14965
1611.136437,14999
1612.228446,15313
1613.319952,15522
1614.410955,15540
1615.501455,15554
1616.591453,15414
1617.680949,15875
1618.769943,15690
1619.858435,15827
1620.946426,16386
1622.033915,16378
1623.120903,16404
1624.20739,16644
1625.293376,16374
1626.378861,16554
1627.463845,16620
1628.54833,16543
1629.632314,16471
1630.715799,17056
1631.798783,16860
1632.881268,16771
1633.963254,16639
1635.04474,16454
1636.125728,16983
1637.206216,17013
1638.286206,16877
1639.365698,16841
1640.444691,16638
1641.523187,16489
1642.601184,16478
1643.678683,16605
1644.755686,16447
1645.83219,16558
1646.908198,16317
1647.983708,16300
1649.058722,16230
1650.133239,16188
1651.20726,16202
1652.280785,16087
1653.353813,16087
1654.426346,15794
1655.498383,15973
1656.569924,15644
1657.64097,15601
1658.711521,15440
1659.781577,15138
1660.851139,15132
1661.920205,15105
1662.988777,14858
1664.056855,14891
1665.124439,14698
1666.191529,14349
1667.258126,14467
1668.324229,14004
1669.389838,14018
1670.454955,14004
1671.519578,13527
1672.583709,13558
1673.647347,13323
1674.710493,13532
1675.773147,12679
1676.835308,12629
1677.896978,12394
1678.958155,12352
1680.018842,12063
1681.079037,11781
1682.138741,11567
1683.197954,11736
1684.256676,11619
1685.314908,11259
1686.372649,11094
1687.4299,10877
1688.48666,10649
1689.542931,10519
1690.598713,10154
1691.654004,10140
1692.708807,10149
1693.76312,10099
1694.816944,9693
1695.870279,9798
1696.923126,9583
1697.975484,9413
1699.027354,9483
1700.078736,9116
1701.12963,9424
1702.180036,8997
1703.229955,9122
1704.279386,9027
1705.32833,8565
1706.376787,8471
1707.424757,8488
1708.47224,8636
1709.519237,8132
1710.565748,8022
1711.611772,7976
1712.65731,7841
1713.702363,7669
1714.74693,7739
1715.791011,7490
1716.834608,7567
1717.877719,7327
1718.920345,6989
1719.962486,7170
1721.004143,6942
1722.045316,7083
1723.086004,6837
1724.126208,6789
1725.165929,6612
1726.205165,6144
1727.243918,6671
1728.282188,6418
1729.319975,6529
1730.357278,6589
1731.394099,6281
1732.430437,6277
1733.466293,6028
1734.501666,6126
1735.536557,5971
1736.570967,6179
1737.604894,5321
1738.63834,5903
1739.671304,5746
1740.703787,5448
1741.735789,5691
1742.767311,5911
1743.798351,5447
1744.828911,5402
1745.85899,5373
1746.888589,5109
1747.917708,5041
1748.946348,5301
1749.974507,5482
1751.002187,5260
1752.029388,5233
1753.056109,5022
1754.082351,4949
1755.108115,5136
1756.1334,4969
1757.158206,5071
1758.182534,4828
1759.206384,4499
1760.229755,4875
1761.252649,4628
1762.275065,4589
1763.297004,4713
1764.318466,4446
1765.33945,4341
1766.359957,4487
1767.379988,4489
1768.399542,4344
1769.418619,4442
1770.43722,3803
1771.455345,4116
1772.472994,4043
1773.490167,3895
1774.506865,4062
1775.523087,3902
1776.538834,3775
1777.554106,3605
1778.568902,3931
1779.583224,3830
1780.597072,3662
1781.610444,3782
1782.623343,3766
1783.635768,3958
1784.647718,3860
1785.659195,3736
1786.670198,3636
1787.680728,3546
1788.690784,3734
1789.700368,3665
1790.709478,3931
1791.718116,3737
1792.726281,4032
1793.733973,3702
1794.741194,3685
1795.747942,3716
1796.754218,3528
1797.760023,3639
1798.765356,3280
1799.770217,3469
1800.774607,3659
1801.778526,3485
1802.781974,3723
1803.784952,3797
1804.787458,3642
1805.789495,3330
1806.791061,3480
1807.792156,3612
1808.792782,3400
1809.792938,3560
1810.792625,3156
1811.791842,3325
1812.79059,3451
1813.788868,3463
1814.786678,3367
1815.784019,3121
1816.780891,3480
1817.777295,3422
1818.77323,3340
1819.768697,3178
1820.763697,3214
1821.758228,3137
1822.752292,3460
1823.745888,3369
1824.739017,3238
1825.731679,3114
1826.723874,3227
1827.715602,3171
1828.706863,3133
1829.697658,3284
1830.687986,3372
1831.677848,3130
1832.667244,3346
1833.656175,3143
1834.644639,3117
1835.632638,3339
1836.620172,3142
1837.60724,2834
1838.593844,3251
1839.579982,3097
1840.565656,2831
1841.550865,3096
1842.53561,3138
1843.51989,3115
1844.503706,3352
1845.487059,3037
1846.469947,3203
1847.452372,3168
1848.434334,3200
1849.415832,2905
1850.396867,2815
1851.377439,3367
1852.357549,2953
1853.337195,3043
1854.31638,2808
1855.295101,3173
1856.273361,3151
1857.251159,2941
1858.228494,3113
1859.205369,2843
1860.181781,2958
1861.157732,2895
1862.133222,3001
1863.108251,2497
1864.082819,2739
1865.056926,2892
1866.030573,2706
1867.003759,3107
1867.976485,2720
1868.948751,2774
1869.920556,2831
1870.891902,2760
1871.862789,2697
1872.833216,2989
1873.803183,2708
1874.772691,2818
1875.741741,2745
1876.710331,2908
1877.678463,2758
1878.646136,2667
1879.613351,2656
1880.580108,2686
1881.546406,2705
1882.512247,2780
1883.47763,2726
1884.442555,2805
1885.407023,2610
1886.371033,2661
1887.334586,2561
1888.297683,2540
1889.260322,2722
1890.222505,2662
1891.184231,2544
1892.145501,2530
1893.106315,2789
1894.066673,2802
1895.026574,2614
1895.98602,2625
1896.945011,2462
1897.903546,2550
1898.861626,2690
1899.81925,2726
1900.77642,2638
1901.733135,2626
1902.689395,2612
1903.6452,2446
1904.600551,2594
1905.555448,2592
1906.509891,2696
1907.46388,2595
1908.417416,2582
1909.370498,2564
1910.323126,2549
1911.275301,2557
1912.227023,2598
1913.178292,2574
1914.129108,2729
1915.079471,2588
1916.029382,2950
1916.97884,2494
1917.927846,2494
1918.876401,2674
1919.824503,2777
1920.772153,2770
1921.719352,2482
1922.6661,2458
1923.612396,2092
1924.558241,2714
1925.503635,2574
1926.448578,2590
1927.39307,2548
1928.337112,2705
1929.280703,2676
1930.223844,2634
1931.166535,2650
1932.108776,2813
1933.050568,2396
1933.991909,2619
1934.932801,2562
1935.873244,2684
1936.813238,2666
1937.752782,2853
1938.691878,2788
1939.630525,2878
1940.568723,2729
1941.506473,2750
1942.443774,2738
1943.380627,2705
1944.317033,2840
1945.25299,2922
1946.1885,2838
1947.123562,2760
1948.058177,2568
1948.992344,2807
1949.926065,2492
1950.859338,2736
1951.792165,2687
1952.724545,2961
1953.656478,2996
1954.587965,2737
1955.519006,2649
1956.4496,2826
1957.379749,2885
1958.309452,2885
1959.238709,2702
1960.167521,2906
1961.095888,2378
1962.023809,2584
1962.951285,2654
1963.878317,2614
1964.804903,2484
1965.731045,2638
1966.656743,2643
1967.581996,2834
1968.506805,2596
1969.43117,2597
1970.355091,2738
1971.278568,2658
1972.201602,2582
1973.124192,2803
1974.046339,2754
1974.968043,2794
1975.889304,2768
1976.810122,2724
1977.730498,2866
1978.65043,2842
1979.569921,2658
1980.488969,2665
1981.407574,2705
1982.325738,2788
1983.24346,2650
1984.160741,2506
1985.077579,2154
1985.993977,2518
1986.909933,2599
1987.825448,2876
1988.740522,2600
1989.655155,2750
1990.569347,2682
1991.483099,2692
1992.396411,2721
1993.309282,2939
1994.221713,2506
1995.133704,2718
1996.045256,2983
1996.956367,2688
1997.867039,2702
1998.777272,2664
1999.687065,2868
2000.596419,2721
2001.505335,2629
2002.413811,2772
2003.321849,2753
2004.229448,2693
2005.136609,2712
2006.043331,2562
2006.949616,2859
2007.855462,2884
2008.760871,2928
2009.665841,2941
2010.570375,2828
2011.47447,2858
2012.378129,2711
2013.281351,2959
2014.184135,2832
2015.086483,2811
2015.988393,2884
2016.889868,2896
2017.790906,3086
2018.691507,2883
2019.591673,2966
2020.491402,2931
2021.390695,2849
2022.289553,3058
2023.187975,2802
2024.085962,2806
2024.983514,2814
2025.88063,2969
2026.777311,2846
2027.673557,2946
2028.569369,2724
2029.464746,3118
2030.359688,3210
2031.254197,2640
2032.148271,3146
2033.04191,2777
2033.935116,3112
2034.827889,3002
2035.720227,2847
2036.612132,2750
2037.503604,3143
2038.394642,2763
2039.285248,3116
2040.17542,2855
2041.06516,2888
2041.954466,2986
2042.843341,3047
2043.731783,2901
2044.619792,2886
2045.50737,2853
2046.394516,2830
2047.281229,2742
2048.167511,2773
2049.053362,3046
2049.938781,2802
2050.823768,2926
2051.708325,2870
2052.59245,2999
2053.476145,2842
2054.359409,2722
2055.242242,2846
2056.124645,2900
2057.006617,2643
2057.888159,2754
2058.769271,2628
2059.649953,2958
2060.530206,2861
2061.410028,2348
2062.289421,2826
2063.168385,2987
2064.046919,2702
2064.925025,3014
2065.802701,2863
2066.679949,2958
2067.556767,2784
2068.433157,2726
2069.309119,2734
2070.184652,2845
2071.059758,2914
2071.934435,2773
2072.808684,3058
2073.682505,3018
2074.555899,2881
2075.428865,2652
2076.301404,2869
2077.173516,2918
2078.0452,2650
2078.916458,2763
2079.787289,2813
2080.657693,2782
2081.52767,2810
2082.397221,2538
2083.266346,2900
2084.135044,3058
2085.003316,3108
2085.871163,2846
2086.738584,2812
2087.605579,2905
2088.472148,2958
2089.338292,2985
2090.204011,2910
2091.069305,3057
2091.934174,2853
2092.798618,2866
2093.662637,2846
2094.526231,2880
2095.389402,2671
2096.252147,2895
2097.114469,2808
2097.976366,2670
2098.83784,2735
2099.69889,2922
2100.559516,2871
2101.419719,2851
2102.279498,3084
2103.138854,2698
2103.997786,2760
2104.856296,2768
2105.714383,2672
2106.572047,2837
2107.429289,2942
2108.286108,2579
2109.142504,2703
2109.998479,2771
2110.854031,2892
2111.709161,2738
2112.56387,2865
2113.418156,2693
2114.272021,2533
2115.125465,2535
2115.978487,2662
2116.831089,2853
2117.683269,2728
2118.535028,2548
2119.386366,2577
2120.237284,2710
2121.087781,2644
2121.937857,2697
2122.787514,2709
2123.63675,2714
2124.485566,2480
2125.333962,2443
2126.181939,2552
2127.029496,2775
2127.876633,2636
2128.723351,2613
2129.569649,2483
2130.415529,2551
2131.260989,2434
2132.106031,2701
2132.950654,2353
2133.794858,2322
2134.638643,2833
2135.482011,2538
2136.32496,2491
2137.167491,2396
2138.009604,2418
2138.851299,2336
2139.692576,2602
2140.533436,2306
2141.373878,2397
2142.213903,2476
2143.05351,2403
2143.892701,2478
2144.731474,2492
2145.569831,2401
2146.407771,2349
2147.245294,2487
2148.082401,2310
2148.919091,2401
2149.755365,2247
2150.591224,2324
2151.426666,2324
2152.261692,2474
2153.096302,2268
2153.930497,2249
2154.764277,2157
2155.597641,2275
2156.43059,2170
2157.263124,2651
2158.095242,2276
2158.926946,2334
2159.758236,2361
2160.58911,2116
2161.41957,2339
2162.249616,2247
2163.079248,2090
2163.908465,2242
2164.737269,2083
2165.565658,2251
2166.393634,1957
2167.221196,2250
2168.048345,2112
2168.87508,2340
2169.701402,2187
2170.527311,1867
2171.352807,2258
2172.177891,2223
2173.002561,2065
2173.826819,2039
2174.650664,2229
2175.474097,2120
2176.297117,2343
2177.119726,2026
2177.941922,2064
2178.763707,1934
2179.58508,2271
2180.406041,2116
2181.22659,1932
2182.046729,2029
2182.866456,1948
2183.685771,1997
2184.504676,2183
2185.32317,2027
2186.141253,1855
2186.958925,2059
2187.776187,2011
2188.593038,1807
2189.409479,2104
2190.22551,1970
2191.041131,1856
2191.856342,1965
2192.671143,1948
2193.485534,1851
2194.299516,2050
2195.113088,1941
2195.926251,1902
2196.739005,1927
2197.551349,2115
2198.363285,1994
2199.174812,1940
2199.98593,1834
2200.796639,2154
2201.60694,1623
2202.416832,1818
2203.226317,1787
2204.035393,1692
2204.844061,1776
2205.652321,1568
2206.460173,1694
2207.267618,1639
2208.074655,1755
2208.881285,1529
2209.687507,1805
2210.493322,1712
2211.29873,1837
2212.103732,1833
2212.908326,1747
2213.712513,1751
2214.516294,1843
2215.319669,1316
2216.122637,1514
2216.925199,1437
2217.727355,1453
2218.529105,1622
2219.330449,1809
2220.131387,1674
2220.931919,1693
2221.732046,1409
2222.531768,1728
2223.331084,1739
2224.129995,1448
2224.928501,1743
2225.726602,1551
2226.524298,1453
2227.321589,1502
2228.118476,1737
2228.914959,1516
2229.711037,1516
2230.50671,2085
2231.30198,1508
2232.096846,1430
2232.891307,1445
2233.685365,1487
2234.479019,1740
2235.27227,1223
2236.065117,1458
2236.857561,1478
2237.649602,1529
2238.441239,1055
2239.232474,1378
2240.023306,1280
2240.813735,1484
2241.603761,1187
2242.393385,1473
2243.182607,1634
2243.971426,1463
2244.759843,1293
2245.547858,1366
2246.335471,1313
2247.122682,1364
2247.909492,1422
2248.6959,1186
2249.481906,1364
2250.267511,1478
2251.052715,1469
2251.837518,1412
2252.621919,962
2253.40592,1229
2254.18952,1232
2254.972719,1168
2255.755518,1325
2256.537916,1218
2257.319914,1255
2258.101512,1305
2258.88271,1427
2259.663507,1199
2260.443905,1212
2261.223903,1246
2262.003501,1208
2262.7827,1290
2263.561499,1142
2264.339899,1227
2265.1179,1086
2265.895501,943
2266.672704,1030
2267.449508,1146
2268.225913,1111
2269.001919,858
2269.777527,978
2270.552737,1128
2271.327548,1026
2272.101961,876
2272.875975,1022
2273.649592,1052
2274.422811,1029
2275.195632,1080
2275.968056,1087
2276.740082,982
2277.511711,1199
2278.282942,1043
2279.053776,979
2279.824213,1128
2280.594253,1170
2281.363897,947
2282.133143,1054
2282.901993,865
2283.670446,895
2284.438503,942
2285.206164,906
2285.973428,1086
2286.740296,946
2287.506769,783
2288.272845,906
2289.038526,1080
2289.803811,956
2290.5687,916
2291.333194,957
2292.097293,1048
2292.860997,1073
2293.624305,929
2294.387219,1111
2295.149737,1018
2295.911861,867
2296.67359,799
2297.434925,873
2298.195865,1036
2298.956411,1032
2299.716562,1187
2300.47632,628
2301.235683,1126
2301.994653,885
2302.753229,941
2303.511411,730
2304.269199,799
2305.026594,958
2305.783596,796
2306.540204,823
2307.29642,1072
2308.052242,851
2308.807671,722
2309.562708,1021
2310.317351,1048
2311.071603,859
2311.825461,725
2312.578928,1026
2313.332002,1206
2314.084684,745
2314.836973,843
2315.588871,1099
2316.340377,646
2317.091491,642
2317.842214,880
2318.592545,722
2319.342485,881
2320.092033,874
2320.84119,996
2321.589956,999
2322.338331,900
2323.086315,700
2323.833908,780
2324.581111,683
2325.327923,875
2326.074345,933
2326.820376,803
2327.566017,827
2328.311268,1000
2329.056129,920
2329.800599,1007
2330.54468,904
2331.288372,1049
2332.031673,475
2332.774585,631
2333.517108,891
2334.259242,681
2335.000986,654
2335.742341,761
2336.483307,552
2337.223884,756
2337.964073,596
2338.703872,548
2339.443283,630
2340.182306,625
2340.92094,923
2341.659187,643
2342.397044,931
2343.134514,510
2343.871596,660
2344.60829,533
2345.344597,709
2346.080515,522
2346.816046,862
2347.55119,343
2348.285946,686
2349.020316,475
2349.754298,614
2350.487893,612
2351.221101,655
2351.953922,294
2352.686356,441
2353.418404,608
2354.150066,519
2354.881341,550
2355.61223,504
2356.342732,699
2357.072849,545
2357.802579,493
2358.531924,842
2359.260883,783
2359.989456,615
2360.717643,674
2361.445445,509
2362.172862,748
2362.899893,681
2363.626539,642
2364.352801,654
2365.078677,611
2365.804168,325
2366.529275,616
2367.253996,636
2367.978334,470
2368.702286,579
2369.425855,727
2370.149039,781
2370.871839,579
2371.594255,598
2372.316287,478
2373.037935,375
2373.7592,727
2374.48008,673
2375.200578,532
2375.920691,300
2376.640422,734
2377.359769,586
2378.078733,459
2378.797314,771
2379.515511,331
2380.233327,236
2380.950759,376
2381.667808,495
2382.384476,440
2383.10076,643
2383.816663,317
2384.532183,553
2385.24732,503
2385.962076,293
2386.67645,312
2387.390442,433
2388.104052,317
2388.817281,296
2389.530128,385
2390.242593,449
2390.954677,241
2391.66638,157
2392.377702,313
2393.088643,272
2393.799202,649
2394.509381,151
2395.219179,233
2395.928596,495
2396.637633,265
2397.346289,438
2398.054565,414
2398.762461,209
2399.469976,582
2400.177111,359
2400.883867,218
2401.590242,258
2402.296238,337
2403.001854,336
2403.70709,386
2404.411947,290
2405.116424,268
2405.820522,310
2406.524241,293
2407.227581,216
2407.930542,258
2408.633123,269
2409.335326,104
2410.037151,332
