Frequency,Density
0,405.1666667
1,405.1666667
2,405.1666667
3,405.1666667
4,405.1666667
5,405.1666667
6,405.1666667
7,405.1666667
8,405.1666667
9,405.1666667
10,405.1666667
11,405.1666667
12,405.1666667
13,405.1666667
14,405.1666667
15,405.1666667
16,405.1666667
17,405.1666667
18,405.1666667
19,405.1666667
20,405.1666667
21,405.1666667
22,405.1666667
23,405.1666667
24,405.1666667
25,405.1666667
26,405.1666667
27,405.1666667
28,405.1666667
29,405.1666667
30,405.1666667
31,405.1666667
32,405.1666667
33,405.1666667
34,405.1666667
35,405.1666667
36,405.1666667
37,405.1666667
38,405.1666667
39,405.1666667
40,405.1666667
41,405.1666667
42,405.1666667
43,405.1666667
44,405.1666667
45,405.1666667
46,405.1666667
47,405.1666667
48,405.1666667
49,405.1666667
50,405.1666667
51,405.1666667
52,405.1666667
53,405.1666667
54,405.1666667
55,405.1666667
56,405.1666667
57,405.1666667
58,405.1666667
59,405.1666667
60,405.1666667
61,405.1666667
62,405.1666667
63,405.1666667
64,405.1666667
65,405.1666667
66,405.1666667
67,405.1666667
68,405.1666667
69,405.1666667
70,405.1666667
71,405.1666667
72,405.1666667
73,405.1666667
74,405.1666667
75,405.1666667
76,405.1666667
77,405.1666667
78,405.1666667
79,405.1666667
80,405.1666667
81,405.1666667
82,405.1666667
83,405.1666667
84,405.1666667
85,405.1666667
86,405.1666667
87,405.1666667
88,405.1666667
89,405.1666667
90,405.1666667
91,405.1666667
92,405.1666667
93,405.1666667
94,405.1666667
95,405.1666667
96,405.1666667
97,405.1666667
98,405.1666667
99,405.1666667
100,405.1666667
101,405.1666667
102,405.1666667
103,405.1666667
104,405.1666667
105,405.1666667
106,405.1666667
107,405.1666667
108,405.1666667
109,405.1666667
110,405.1666667
111,405.1666667
112,405.1666667
113,405.1666667
114,405.1666667
115,405.1666667
116,405.1666667
117,405.1666667
118,405.1666667
119,405.1666667
120,405.1666667
121,405.1666667
122,405.1666667
123,405.1666667
124,405.1666667
125,405.1666667
126,405.1666667
127,405.1666667
128,405.1666667
129,405.1666667
130,405.1666667
131,405.1666667
132,405.1666667
133,405.1666667
134,405.1666667
135,405.1666667
136,405.1666667
137,405.1666667
138,405.1666667
139,405.1666667
140,405.1666667
141,405.1666667
142,405.1666667
143,405.1666667
144,405.1666667
145,405.1666667
146,405.1666667
147,405.1666667
148,405.1666667
149,405.1666667
150,405.1666667
151,405.1666667
152,405.1666667
153,405.1666667
154,405.1666667
155,405.1666667
156,405.1666667
157,405.1666667
158,405.1666667
159,405.1666667
160,405.1666667
161,405.1666667
162,405.1666667
163,405.1666667
164,405.1666667
165,405.1666667
166,405.1666667
167,405.1666667
168,405.1666667
169,405.1666667
170,405.1666667
171,405.1666667
172,405.1666667
173,405.1666667
174,405.1666667
175,405.1666667
176,405.1666667
177,405.1666667
178,405.1666667
179,405.1666667
180,405.1666667
181,405.1666667
182,405.1666667
183,405.1666667
184,405.1666667
185,405.1666667
186,405.1666667
187,405.1666667
188,405.1666667
189,405.1666667
190,405.1666667
191,405.1666667
192,405.1666667
193,405.1666667
194,405.1666667
195,405.1666667
196,405.1666667
197,405.1666667
198,405.1666667
199,421.3939565
200,478.1796824
201,534.9654134
202,554.965093
203,559.4202169
204,562.6730855
205,557.2462616
206,551.8194122
207,551.3300171
208,555.0146739
209,558.6993103
210,558.708664
211,558.5792999
212,559.9772847
213,563.7957204
214,567.6141408
215,564.8643341
216,560.5903626
217,558.813385
218,565.0337169
219,571.254069
220,575.0166372
221,577.5451355
222,579.7963308
223,579.4071096
224,579.0178884
225,577.1949463
226,574.0792898
227,570.9636231
228,572.2024333
229,573.6312765
230,572.7421824
231,568.2581533
232,563.774114
233,562.623408
234,562.1682332
235,561.7473908
236,561.4220683
237,561.0967611
238,558.6216431
239,555.2363892
240,551.6560313
241,546.900884
242,542.1457418
243,544.2380931
244,551.2120666
245,557.9425964
246,555.7904663
247,553.6383515
248,550.3790792
249,545.8765513
250,541.3740235
251,542.9756775
252,545.1303253
253,543.5249023
254,535.3585409
255,527.1921895
256,529.8661448
257,535.0303039
258,538.4023285
259,536.7671458
260,535.1319529
261,533.1214701
262,530.9617462
263,529.5204671
264,531.6159821
265,533.7114868
266,532.9470215
267,530.4571381
268,528.6812439
269,535.1062978
270,541.5313517
271,540.5474752
272,533.2002309
273,525.8529968
274,528.0590871
275,530.2908224
276,532.6435089
277,535.139267
278,537.635025
279,536.3209737
280,534.678065
281,533.7677612
282,534.0307719
283,534.2938131
284,536.6814118
285,539.4447429
286,539.8537293
287,535.1796214
288,530.5055186
289,531.6714223
290,534.4380086
291,537.1210887
292,539.5597636
293,541.9984284
294,544.2945048
295,546.5367635
296,548.1103465
297,546.9885508
298,545.8667806
299,544.1668396
300,542.1860403
301,540.9423981
302,543.9153392
303,546.8882955
304,550.1934001
305,553.6969147
306,557.0551198
307,559.1717072
308,561.2882843
309,560.2695516
310,557.0266266
311,553.6687215
312,548.7021434
313,543.7355448
314,540.6984253
315,539.2407023
316,537.7325643
317,534.8153992
318,531.898229
319,528.0820872
320,523.4384054
321,518.8669942
322,522.9160055
323,526.9650269
324,528.008901
325,526.0164083
326,524.0239156
327,526.2980194
328,528.6239675
329,528.1095785
330,524.5188599
331,520.9281413
332,524.5903931
333,528.4493612
334,532.0598144
335,535.3884735
336,538.7171275
337,533.0475006
338,527.0523885
339,523.9259237
340,524.1258749
341,524.3258311
342,520.4177857
343,516.349645
344,516.7641602
345,522.369517
346,527.9748484
347,524.942454
348,521.6039683
349,520.0843353
350,520.61881
351,521.1532796
352,521.2318319
353,521.2986857
354,521.1722209
355,520.8377787
356,520.5033417
357,517.7834117
358,515.0394135
359,514.6036988
360,516.478775
361,518.3457845
362,519.4848735
363,520.6239828
364,522.0793762
365,523.8225556
366,525.176122
367,516.5892283
368,508.0023499
369,505.8751373
370,508.9628754
371,512.1499837
372,516.6499888
373,521.149999
374,521.9710388
375,520.2237346
376,518.4543661
377,516.5042979
378,514.554245
379,513.3244222
380,512.5170237
381,511.4619955
382,509.0383708
383,506.6147563
384,504.3727264
385,502.2171275
386,500.7467855
387,501.9600169
388,503.1732636
389,505.5697276
390,508.402298
391,510.9726868
392,512.7946828
393,514.6167145
394,512.9206391
395,510.2872925
396,508.5868225
397,508.8570811
398,509.1273193
399,508.5313416
400,507.7877197
401,507.4385783
402,507.7091472
403,507.9797058
404,511.1927744
405,514.6445058
406,518.0971833
407,521.5509491
408,525.0030568
409,527.2391713
410,529.4752859
411,531.7488302
412,534.054067
413,535.7358093
414,530.5799052
415,525.4240011
416,526.7763977
417,532.0032145
418,535.902181
419,533.3891042
420,530.8760274
421,526.5570984
422,521.5279745
423,516.8769836
424,513.2729086
425,509.6688487
426,513.5993602
427,519.246816
428,521.8892161
429,519.3021393
430,516.715032
431,514.8760427
432,513.1048889
433,511.1729431
434,509.0599264
435,507.0496928
436,509.0275625
437,511.0054321
438,510.0875346
439,507.0848643
440,504.633016
441,505.5889791
442,506.5449321
443,504.7817688
444,501.8438721
445,501.24204
446,507.3263804
447,513.4107208
448,512.815272
449,510.7631632
450,507.4475047
451,502.1088511
452,496.7702179
453,491.7536672
454,486.7542979
455,487.3727061
456,493.2658641
457,498.6666616
458,498.6666565
459,498.6666667
460,494.2777608
461,487.5543722
462,483.2690277
463,487.4564667
464,491.6439006
465,493.6475322
466,495.0899709
467,494.7062937
468,491.2011872
469,487.6960754
470,483.799469
471,479.8796845
472,478.3581187
473,479.0462087
474,479.7005157
475,480.0447591
476,480.3889923
477,479.8931987
478,478.9976298
479,478.6893616
480,480.067983
481,481.4465942
482,481.3188985
483,480.9050649
484,482.9485728
485,488.3315379
486,493.6181844
487,488.1629944
488,482.7077891
489,480.5
490,480.4999949
491,480.8164876
492,482.5448558
493,484.273229
494,481.995224
495,478.5364482
496,477.4641062
497,480.5788422
498,483.6935832
499,483.4364319
500,483.0208842
501,482.5671895
502,482.0821075
503,481.567098
504,480.8737132
505,480.180308
506,479.8973185
507,479.7585653
508,479.9480184
509,480.7810669
510,481.6141256
511,484.7255096
512,487.9902293
513,486.361613
514,480.5233256
515,475.4999949
516,475.4999949
517,475.4999949
518,478.1886597
519,481.8071035
520,483.6337382
521,482.1019542
522,480.5701548
523,484.0232544
524,487.7156627
525,488.8241374
526,487.9179281
527,486.689565
528,483.8995565
529,481.1095378
530,485.463501
531,491.8145345
532,492.479365
533,484.3787638
534,476.3485667
535,478.5845286
536,480.8205058
537,481.0582682
538,480.0794474
539,481.4122518
540,490.15684
541,498.9014588
542,495.1974386
543,489.3875733
544,485.2703044
545,483.0290324
546,481.424708
547,485.9098918
548,490.3950907
549,487.1951192
550,480.9542338
551,477.3338521
552,478.8072968
553,480.2807312
554,476.3390707
555,472.1969554
556,472.4904684
557,475.8623149
558,477.5970408
559,473.4500326
560,469.3029989
561,472.4175771
562,476.8483785
563,478.5627391
564,477.296051
565,476.0750733
566,475.2301076
567,474.3851471
568,474.8979848
569,475.8843485
570,474.8307546
571,470.3894653
572,465.9711965
573,463.5023397
574,461.0334981
575,461.2200369
576,462.8433787
577,464.0609182
578,464.2727763
579,464.4846446
580,462.5337474
581,460.4138286
582,460.5458883
583,462.3842214
584,463.4738312
585,461.7758891
586,460.0779572
587,460.378657
588,461.0157573
589,462.5056051
590,464.8430328
591,465.9597422
592,460.0772858
593,454.1948293
594,457.5773926
595,463.3215078
596,463.6159464
597,457.1588593
598,451.2986145
599,450.9436188
600,450.588618
601,452.8987732
602,456.0956116
603,456.4768779
604,452.7094726
605,449.3108317
606,451.7290853
607,454.1473338
608,453.4569092
609,451.5353953
610,450.2800089
611,450.1375885
612,450.2222646
613,456.7773997
614,463.3325348
615,465.7295939
616,466.2999471
617,466.4883779
618,465.9890289
619,465.495575
620,465.2814382
621,465.0673116
622,463.8736572
623,462.2309876
624,458.5499675
625,451.1178589
626,443.9242249
627,448.5005341
628,453.0768535
629,453.8591258
630,452.9290212
631,452.0759227
632,451.3600261
633,450.8808848
634,457.6859385
635,464.4909922
636,467.2071991
637,468.2106476
638,466.5202179
639,460.4242808
640,454.8618215
641,458.3780416
642,461.8942464
643,461.4650676
644,459.5982158
645,458.8549652
646,459.717097
647,460.0309194
648,454.9269358
649,449.8229574
650,447.4983571
651,445.9878286
652,448.9768321
653,457.3256124
654,463.9529673
655,460.0641683
656,456.1753591
657,456.7504069
658,458.263621
659,457.0752869
660,453.3260803
661,450.3478902
662,450.4200287
663,450.4921774
664,450.3069255
665,450.0903676
666,451.2625834
667,453.4294332
668,454.1845805
669,451.2214661
670,448.2583415
671,446.554896
672,444.8916728
673,444.477534
674,444.6946004
675,443.605245
676,440.2024536
677,437.1663412
678,439.9916026
679,442.8168691
680,444.8190104
681,446.55867
682,448.4319306
683,450.462738
684,451.5943044
685,448.0382996
686,444.4822795
687,444.1255391
688,444.2707571
689,445.3671621
690,447.1836039
691,446.6587474
692,439.9702861
693,433.2818146
694,436.0978139
695,439.0803172
696,438.5904185
697,436.5523783
698,436.1820679
699,438.2941437
700,440.2989095
701,441.4648794
702,442.6308441
703,441.748764
704,440.4362691
705,439.7150065
706,439.4961294
707,440.1190236
708,443.1851553
709,446.2512767
710,443.48968
711,440.5678355
712,437.0887655
713,433.3612061
714,430.7155101
715,429.6185201
716,429.5283508
717,436.0410258
718,442.5537008
719,441.5599975
720,439.2901967
721,437.9519247
722,437.2925619
723,435.6317851
724,431.6732432
725,427.978419
726,432.819519
727,437.660609
728,438.0547384
729,437.0272268
730,433.6753031
731,427.8737844
732,424.4833323
733,429.7739258
734,435.0645243
735,432.4720103
736,429.4575246
737,427.6968079
738,426.5197246
739,426.9380392
740,429.5880381
741,431.900823
742,432.3427582
743,432.7846832
744,433.2924398
745,433.8083242
746,433.6755931
747,433.1594035
748,429.2186635
749,419.4051158
750,412.3409271
751,427.6237081
752,442.906484
753,440.0678457
754,434.0840912
755,428.0101013
756,421.8749441
757,419.6757253
758,425.0749003
759,430.2339325
760,432.8981171
761,435.5623067
762,440.2699636
763,445.3793538
764,441.7790273
765,431.9987488
766,425.8233744
767,426.7871552
768,428.0947368
769,432.9906718
770,437.886617
771,431.9899648
772,424.0479024
773,422.3806305
774,424.9800415
775,426.640564
776,426.5662588
777,426.6047719
778,427.5714162
779,428.5380656
780,428.6021627
781,428.5277608
782,428.5933329
783,428.7422333
784,428.7466075
785,428.5231374
786,428.2996572
787,428.0760549
788,427.8524424
789,423.1956177
790,418.1243083
791,415.637736
792,414.3691661
793,416.6653544
794,423.3853455
795,428.5546977
796,428.0317281
797,427.5087484
798,423.8247884
799,420.087026
800,422.7750753
801,427.5622559
802,430.9741109
803,433.1445923
804,432.7203217
805,426.2050273
806,420.5012614
807,425.0721639
808,429.6430664
809,425.1136424
810,418.965505
811,417.1833445
812,418.0085856
813,418.9554749
814,420.0814819
815,420.2249705
816,416.0187581
817,411.8125508
818,413.915685
819,416.2455088
820,416.2148387
821,415.3876343
822,416.6793213
823,419.8395996
824,420.5231069
825,415.8551636
826,412.2237752
827,417.6478272
828,423.0718893
829,418.5660807
830,412.8372803
831,409.5654348
832,407.4535726
833,406.7585653
834,407.6641846
835,408.2938995
836,408.1428731
837,407.7715251
838,403.5402832
839,399.3090261
840,405.4639486
841,413.4778442
842,413.5091299
843,409.1215617
844,406.9000549
845,407.4299113
846,406.5322011
847,401.0790965
848,396.1503042
849,404.4863892
850,412.8224742
851,416.6470795
852,419.60436
853,418.4302572
854,414.9401143
855,412.6291097
856,411.7940216
857,411.6579692
858,413.6330007
859,415.0759227
860,407.3231252
861,399.5703227
862,409.1852112
863,421.5818431
864,420.615387
865,413.08166
866,409.6055552
867,410.519282
868,411.6108195
869,413.1345876
870,414.5079244
871,414.5841522
872,414.6603902
873,410.1167094
874,405.1585643
875,404.2247976
876,404.7590688
877,405.2515869
878,405.7098084
879,406.1120758
880,406.4177399
881,406.4821625
882,405.4881795
883,404.5317586
884,409.9636739
885,415.3955943
886,411.3931376
887,405.4221242
888,405.7736104
889,409.5268504
890,408.7737478
891,403.0255687
892,400.5167948
893,405.5781962
894,409.4085083
895,404.727768
896,400.0470276
897,407.0141551
898,414.538503
899,409.6047821
900,401.2308909
901,399.5579732
902,402.094691
903,406.7247264
904,413.9548238
905,416.6745707
906,407.7470296
907,399.1249644
908,392.8873596
909,386.6497701
910,391.160848
911,396.2463532
912,393.4536794
913,388.5193481
914,391.532781
915,399.3243917
916,406.6882731
917,413.5582326
918,415.6719971
919,406.9442851
920,398.704483
921,393.2947286
922,387.8849589
923,393.0414683
924,398.2997844
925,405.1115468
926,412.2299703
927,409.7014618
928,402.6562195
929,397.8189545
930,394.9527079
931,393.663269
932,394.9809825
933,397.7755992
934,405.6089732
935,412.0429331
936,401.8767802
937,391.7106171
938,394.6833598
939,398.6435293
940,394.0196279
941,387.026942
942,383.5566762
943,382.0795542
944,380.0246531
945,377.3798218
946,376.598882
947,379.2452749
948,381.8920034
949,384.539978
950,386.6736654
951,382.0759278
952,377.4781901
953,383.0546112
954,389.370519
955,383.6596476
956,374.8433431
957,376.3577372
958,383.2276103
959,384.6592916
960,381.1441905
961,378.5732422
962,377.479009
963,376.5860748
964,376.2732544
965,375.5842743
966,372.2976685
967,369.0110626
968,371.4971364
969,374.0027059
970,373.4492391
971,372.4307505
972,372.050532
973,371.8937531
974,374.0993195
975,377.7859395
976,380.5509287
977,382.3560842
978,381.6013641
979,376.4182485
980,373.1328074
981,375.7259064
982,377.4003093
983,372.525533
984,367.6718038
985,369.2452443
986,370.81869
987,370.8607025
988,370.7032623
989,370.1830292
990,369.5528972
991,368.6144257
992,367.5110575
993,367.5926666
994,368.6967061
995,368.9992727
996,368.2102102
997,368.1334229
998,369.6335398
999,371.7506205
1000,376.3326264
1001,380.0207418
1002,374.724589
1003,369.4284312
1004,366.3040517
1005,363.2193807
1006,363.9411163
1007,365.2073771
1008,361.9684855
1009,357.3755697
1010,358.6753031
1011,362.9540049
1012,365.2779287
1013,366.070755
1014,364.3536428
1015,359.6732076
1016,357.7738037
1017,360.8694916
1018,362.7569224
1019,361.1684469
1020,361.2910156
1021,370.430186
1022,378.5789185
1023,371.8198598
1024,365.0608063
1025,366.1404266
1026,367.493042
1027,368.2218119
1028,368.8587138
1029,364.5987396
1030,358.9428609
1031,358.9709727
1032,361.6013285
1033,363.8529867
1034,365.8468577
1035,365.9059753
1036,364.0705211
1037,362.234609
1038,360.3980561
1039,360.3777008
1040,364.0529785
1041,366.2882741
1042,364.0498149
1043,361.3032735
1044,355.8637899
1045,351.0078786
1046,353.3290405
1047,355.6501974
1048,354.7919464
1049,353.9109904
1050,366.1823781
1051,379.7252248
1052,371.4590759
1053,358.7901917
1054,355.0621745
1055,354.2598725
1056,356.0625
1057,359.1130778
1058,357.0560913
1059,351.5939128
1060,351.2790833
1061,355.6192627
1062,355.9667714
1063,351.4631602
1064,349.5512339
1065,351.884847
1066,353.2025248
1067,352.236318
1068,352.2092285
1069,355.1901398
1070,356.5891062
1071,350.2206726
1072,344.6640828
1073,346.2773082
1074,347.8905589
1075,349.5047353
1076,351.1189169
1077,349.1290894
1078,347.0294189
1079,349.1043549
1080,351.6093089
1081,348.4513703
1082,344.2470245
1083,350.4251557
1084,359.486084
1085,358.2566274
1086,353.075882
1087,349.8819733
1088,347.6950429
1089,345.1144359
1090,342.2778473
1091,338.8610128
1092,334.9685109
1093,335.3261973
1094,340.0324402
1095,341.3440806
1096,338.3400421
1097,337.4128621
1098,339.7687836
1099,343.408493
1100,349.5862935
1101,350.1910044
1102,336.8520305
1103,327.4940135
1104,330.993515
1105,334.9078573
1106,340.6080984
1107,344.5640767
1108,337.9641673
1109,332.0549724
1110,332.6256714
1111,333.2473602
1112,334.7973328
1113,336.3605499
1114,339.3807119
1115,342.4008738
1116,346.2916921
1117,350.2120718
1118,339.74764
1119,328.1429698
1120,332.7093506
1121,339.3328552
1122,339.2914124
1123,338.0641124
1124,346.4085744
1125,356.9696655
1126,349.732193
1127,337.3626251
1128,334.2882436
1129,334.4521739
1130,332.5830638
1131,329.8765615
1132,329.6103465
1133,330.5130514
1134,329.9856771
1135,328.671875
1136,327.6609955
1137,326.8393758
1138,329.7811534
1139,335.37146
1140,335.3935344
1141,331.0337982
1142,329.351298
1143,330.0097656
1144,331.5061646
1145,333.8121643
1146,331.8832499
1147,325.4555715
1148,326.1558024
1149,335.1434326
1150,335.7632091
1151,325.7801921
1152,322.5023397
1153,328.4461822
1154,332.0664266
1155,332.2316335
1156,329.6327464
1157,322.6073558
1158,318.1970927
1159,318.2797902
1160,320.9302114
1161,328.2949524
1162,331.7652486
1163,327.625295
1164,324.9142609
1165,325.1628062
1166,324.6307475
1167,322.3925171
1168,321.9657745
1169,325.6983897
1170,326.7956747
1171,321.5669047
1172,319.5668996
1173,325.6292369
1174,330
1175,330
1176,328.6820628
1177,323.8596751
1178,320.2662506
1179,320.0166779
1180,320.2531026
1181,321.8347371
1182,322.9342194
1183,322.6843414
1184,321.7349294
1185,318.8179474
1186,316.9293569
1187,317.9300588
1188,318.864858
1189,319.6158295
1190,318.4088186
1191,311.8129985
1192,308.2871018
1193,313.0489349
1194,316.2468923
1195,315.3273977
1196,315.2786662
1197,317.4533234
1198,317.8641408
1199,313.9307048
1200,311.9135437
1201,314.4257355
1202,314.1858928
1203,307.7340749
1204,304.5860265
1205,308.5264994
1206,312.1632284
1207,315.1832428
1208,316.1006419
1209,312.9948832
1210,313.7638397
1211,321.4908498
1212,323.1647237
1213,314.6767578
1214,308.2534637
1215,305.0580597
1216,304.3684285
1217,307.3133036
1218,307.129598
1219,302.7517497
1220,302.8217926
1221,308.3815867
1222,310.5030009
1223,308.7329203
1224,307.1697083
1225,305.8202718
1226,306.1675186
1227,308.1084824
1228,311.1457927
1229,315.1144867
1230,313.0973562
1231,306.5071157
1232,306.7975489
1233,311.785436
1234,310.8742828
1235,306.3909607
1236,303.9495875
1237,302.5953217
1238,306.5079956
1239,312.859848
1240,316.0006714
1241,317.8649852
1242,323.7301025
1243,330.9374441
1244,320.7385864
1245,305.7214254
1246,303.8341065
1247,304.8528162
1248,304.7819824
1249,304.5271556
1250,305.9427999
1251,307.5576935
1252,305.4460958
1253,303.0648499
1254,304.4072266
1255,305.8164292
1256,304.6243922
1257,303.5290095
1258,304.0401917
1259,304.6542028
1260,306.188652
1261,307.2147573
1262,305.2529068
1263,304.2385941
1264,307.225797
1265,308.4196752
1266,303.8935064
1267,300.0288798
1268,297.8071772
1269,296.9665146
1270,298.8475393
1271,300.9278081
1272,303.3232625
1273,306.922404
1274,312.0585633
1275,311.2939097
1276,304.441625
1277,303.4405924
1278,307.2972971
1279,305.4792684
1280,299.9051463
1281,298.4518331
1282,299.1382853
1283,299.2104085
1284,299.0386963
1285,296.2714462
1286,292.7491862
1287,297.0452245
1288,302.8904877
1289,302.9607061
1290,302.3586273
1291,305.5487289
1292,308.6527608
1293,300.2136587
1294,293.3740031
1295,303.5413997
1296,310.7805303
1297,301.6416804
1298,294.895902
1299,296.7075094
1300,297.2332306
1301,294.557368
1302,291.9731038
1303,289.5547613
1304,289.1607208
1305,291.4940847
1306,290.8599396
1307,287.228096
1308,286.2585653
1309,287.2968496
1310,288.7256953
1311,290.3706258
1312,292.1407776
1313,293.959933
1314,286.824674
1315,277.3767522
1316,280.0989838
1317,284.6089223
1318,283.1840744
1319,281.5928548
1320,284.7188365
1321,287.624588
1322,288.7540919
1323,288.9487254
1324,285.210467
1325,282.1651713
1326,280.9473394
1327,281.41642
1328,284.8980001
1329,283.545606
1330,276.1428426
1331,273.498675
1332,275.0672506
1333,276.3131561
1334,277.3594996
1335,276.433988
1336,274.6890539
1337,275.7928797
1338,277.6261571
1339,279.3829041
1340,281.129921
1341,279.968778
1342,280.075119
1343,297.3036423
1344,308.5957057
1345,290.1318512
1346,278.5622686
1347,286.4425303
1348,286.4159622
1349,272.2230632
1350,269.1354752
1351,279.304334
1352,280.0387548
1353,273.1970088
1354,265.778155
1355,258.0546748
1356,262.403717
1357,270.6587067
1358,270.5520808
1359,269.0582759
1360,269.2534867
1361,269.2410787
1362,265.2821655
1363,262.3009491
1364,264.0615082
1365,265.8223623
1366,267.5839691
1367,269.515803
1368,271.7191213
1369,269.3461177
1370,262.2913183
1371,266.0056865
1372,276.7706579
1373,278.3172226
1374,276.1982676
1375,268.2280579
1376,259.0404409
1377,258.0008265
1378,257.6871974
1379,261.0482051
1380,263.2571132
1381,259.8941167
1382,260.4083964
1383,270.5033951
1384,273.8380636
1385,267.2812754
1386,265.9353307
1387,269.3043264
1388,269.4699224
1389,267.8731283
1390,264.1669414
1391,259.8175329
1392,259.4911906
1393,259.7108892
1394,263.35451
1395,266.0623602
1396,262.8611806
1397,260.5466945
1398,260.7246399
1399,260.6254272
1400,260.0912679
1401,258.17497
1402,254.9680786
1403,255.2731781
1404,257.501503
1405,259.4539286
1406,261.3268331
1407,261.2570343
1408,260.8717372
1409,257.6572164
1410,255.6660665
1411,259.5079092
1412,256.082545
1413,236.3255107
1414,231.1668091
1415,244.3161697
1416,252.2750066
1417,256.4817276
1418,255.0934143
1419,251.5111059
1420,250.7695185
1421,250.5006866
1422,253.0041555
1423,255.1044668
1424,254.6558787
1425,253.273997
1426,249.503624
1427,248.3625666
1428,250.7878265
1429,254.1853968
1430,258.3197581
1431,259.5
1432,259.5
1433,256.8650233
1434,253.8905487
1435,260.1931839
1436,263.7064413
1437,252.3549525
1438,245.5551376
1439,248.9806366
1440,250.6676738
1441,250.3068822
1442,251.2702026
1443,253.0752411
1444,249.0114365
1445,243.1415863
1446,244.3276291
1447,246.2900238
1448,250.1777725
1449,252.183609
1450,247.931694
1451,244.7700856
1452,243.3217621
1453,244.9981639
1454,249.2551346
1455,252.7443975
1456,255.9163615
1457,251.528918
1458,246.1000061
1459,243.9223557
1460,242.764796
1461,245.8516337
1462,246.8251165
1463,244.0089747
1464,242.4288127
1465,241.9743246
1466,240.4531377
1467,238.4522171
1468,241.0533244
1469,244.3875656
1470,246.4819234
1471,247.8459066
1472,246.2058716
1473,243.9308853
1474,240.557696
1475,239.4909617
1476,240.4031804
1477,240.2771963
1478,239.7295431
1479,238.373169
1480,236.9559148
1481,236.2248459
1482,236.0775248
1483,237.814855
1484,238.7197673
1485,238.4452871
1486,239.7969233
1487,242.268692
1488,239.3702088
1489,234.8817495
1490,233.9685593
1491,232.8552068
1492,229.2785187
1493,227.7332713
1494,230.5779673
1495,234.57149
1496,239.7133458
1497,235.4181137
1498,226.782018
1499,231.1904907
1500,237.3741354
1501,240.9614588
1502,242.3087845
1503,236.7865601
1504,233.9070409
1505,234.4595947
1506,236.9712041
1507,240.6570562
1508,238.0208384
1509,233.9950867
1510,233.4415563
1511,233.1680705
1512,233.9988658
1513,234.0235443
1514,232.8227971
1515,237.0963059
1516,245.1368485
1517,240.4855093
1518,232.4402008
1519,228.68131
1520,225.9414469
1521,227.4228032
1522,227.8692678
1523,226.6649475
1524,229.2098364
1525,234.4007289
1526,232.9412181
1527,229.6949895
1528,232.2425207
1529,234.0430323
1530,232.5572841
1531,231.703888
1532,231.7967962
1533,230.6486333
1534,228.6962713
1535,228.3333333
1536,228.2434006
1537,224.2409566
1538,222.527331
1539,228.3948542
1540,231.9552511
1541,232.6075846
1542,230.0284017
1543,225.73909
1544,227.1879069
1545,229.1311366
1546,226.6105169
1547,223.4006704
1548,218.5432536
1549,216.8349762
1550,218.1435191
1551,224.7601013
1552,233.3641841
1553,222.9508336
1554,212.7174886
1555,208.9721426
1556,208.57562
1557,213.5411453
1558,215.5567652
1559,215.6505051
1560,220.0916774
1561,225.028389
1562,222.3065694
1563,218.7577871
1564,213.0291901
1565,212.0001678
1566,215.6648814
1567,215.7784983
1568,214.5561981
1569,214.4102478
1570,214.7455419
1571,217.0047658
1572,217.673729
1573,216.0724945
1574,215.136701
1575,214.571228
1576,215.3242391
1577,216.1767298
1578,216.2710902
1579,217.3615926
1580,220.3828252
1581,218.6787466
1582,213.4829127
1583,212.1167781
1584,211.8874334
1585,216.521932
1586,218.5634842
1587,214.1155141
1588,210.3613459
1589,207.2364527
1590,199.1855901
1591,189.7290904
1592,201.4850362
1593,209.0428874
1594,203.8254624
1595,202.3303655
1596,204.7033208
1597,204.775261
1598,204.0154623
1599,207.8169759
1600,211.176918
1601,212.6983083
1602,212.4648082
1603,210.2765045
1604,208.6366272
1605,207.2086283
1606,209.2007268
1607,209.7803701
1608,205.01474
1609,201.6891963
1610,199.9725545
1611,201.2289302
1612,203.6145706
1613,203.2930781
1614,203.3333816
1615,204.7664617
1616,203.773435
1617,200.2364095
1618,199.9031754
1619,200.6808777
1620,206.99764
1621,210.8672943
1622,207.802803
1623,205.236112
1624,203.1280289
1625,204.6139425
1626,207.0452067
1627,208.1004944
1628,206.8094915
1629,200.1860301
1630,200.6141993
1631,206.3771439
1632,205.8102951
1633,205.1559601
1634,215.06073
1635,215.2996699
1636,198.8460973
1637,196.865504
1638,203.2197596
1639,201.0483246
1640,199.2184601
1641,203.3632609
1642,205.1524887
1643,203.9951146
1644,199.6578217
1645,194.0605443
1646,195.5282796
1647,197.6837769
1648,201.5485331
1649,199.8473333
1650,193.3700282
1651,194.2144852
1652,196.1554718
1653,192.3806331
1654,191.2519506
1655,194.6416245
1656,197.2785695
1657,199.5073853
1658,198.586263
1659,197.5853043
1660,197.1972224
1661,195.0425542
1662,191.0623856
1663,197.0919648
1664,204.2760112
1665,183.5740764
1666,175.8262024
1667,192.7476451
1668,194.7666499
1669,188.0524572
1670,195.0056814
1671,200.2159449
1672,193.9809138
1673,191.991806
1674,194.3313294
1675,191.5391769
1676,187.7040863
1677,188.1920624
1678,189.1485164
1679,190.9062729
1680,186.0646744
1681,177.8569743
1682,185.0748189
1683,190.1871211
1684,186.9588547
1685,186.9485575
1686,189.5914256
1687,186.0255687
1688,182.8028081
1689,188.3887965
1690,186.981926
1691,176.7839127
1692,176.6464564
1693,180.0088018
1694,183.9357529
1695,185.1705806
1696,181.3395411
1697,180.7031479
1698,181.7843348
1699,183.5233663
1700,184.2192383
1701,181.8574982
1702,182.6735916
1703,185.9229101
1704,182.9762955
1705,179.869222
1706,180.0663834
1707,179.3427251
1708,177.6658656
1709,176.8585815
1710,176.1435827
1711,174.4647395
1712,175.9798228
1713,181.8098272
1714,183.0411937
1715,182.435964
1716,178.083018
1717,175.1874975
1718,174.7915395
1719,174.531044
1720,174.3352458
1721,175.3263041
1722,174.8250682
1723,171.1559805
1724,170.0236969
1725,170.3213654
1726,173.3826192
1727,176.169253
1728,177.9573796
1729,177.4672572
1730,175.4792786
1731,174.1353073
1732,172.8421656
1733,171.5484568
1734,171.1720835
1735,171.4708049
1736,171.9494883
1737,172.2646993
1738,171.9656194
1739,171.8333334
1740,171.8333359
1741,169.177803
1742,167.8736903
1743,172.6674093
1744,174.1759949
1745,172.9768575
1746,173.5374883
1747,173.6542002
1748,171.2530975
1749,170.4955292
1750,171.0961609
1751,170.282603
1752,169.5657502
1753,169.866422
1754,170.3901062
1755,171.0920817
1756,170.2698619
1757,169.8037999
1758,171.1090063
1759,171.37898
1760,170.8766785
1761,171.8436305
1762,172.4095357
1763,171.4037526
1764,171.4216741
1765,172.1261368
1766,170.3634898
1767,170.7370834
1768,176.7824809
1769,173.446312
1770,164.675321
1771,170.5304057
1772,173.4424388
1773,169.707845
1774,166.8600642
1775,164.5079804
1776,164.811142
1777,165.6099777
1778,167.2277934
1779,164.4963862
1780,160.6730118
1781,162.7989019
1782,164.1762517
1783,164.581426
1784,166.9875005
1785,168.8521958
1786,164.3900757
1787,160.2830048
1788,156.5285518
1789,158.5298971
1790,160.9217962
1791,161.3281606
1792,162.3799871
1793,163.9047521
1794,161.9021403
1795,160.1203944
1796,159.4079971
1797,159.3686727
1798,159.6016719
1799,156.9525121
1800,155.2936986
1801,155.1917445
1802,154.1667277
1803,153.2944705
1804,155.7441762
1805,157.0995484
1806,157.3038127
1807,159.6937001
1808,160.7542597
1809,155.9484456
1810,153.8175074
1811,153.5105718
1812,149.2496465
1813,143.6368052
1814,135.6471049
1815,140.8328807
1816,150.6641986
1817,152.6126963
1818,154.6559423
1819,156.8108165
1820,154.1665332
1821,151.9637248
1822,154.9430059
1823,154.9551799
1824,152.899292
1825,151.7382266
1826,150.0343704
1827,147.2556585
1828,149.1240209
1829,151.9269638
1830,148.2176552
1831,145.9275449
1832,145.1027616
1833,145.4515228
1834,144.7876905
1835,140.7621714
1836,143.8635394
1837,150.5340296
1838,146.2970988
1839,143.9631539
1840,144.2733574
1841,146.0859337
1842,147.0835749
1843,143.2532476
1844,143.7903735
1845,147.4157817
1846,146.0826912
1847,144.3254687
1848,142.043958
1849,143.475647
1850,146.4411341
1851,151.424825
1852,150.2944921
1853,144.1651027
1854,143.5383657
1855,143.4045881
1856,143.612606
1857,142.5883255
1858,141.6653951
1859,144.0604426
1860,144.7181155
1861,143.8845685
1862,139.3323911
1863,139.4640325
1864,149.1654218
1865,147.7158814
1866,143.6526171
1867,146.9946543
1868,145.169042
1869,139.1080411
1870,138.6336912
1871,139.217041
1872,141.2048747
1873,145.2830963
1874,148.3757477
1875,143.8716812
1876,133.9757105
1877,120.2459691
1878,131.01002
1879,139.7094778
1880,145.1658529
1881,145.5665283
1882,144.2537206
1883,140.9970614
1884,141.7248332
1885,144.554053
1886,145.5006434
1887,143.3150202
1888,137.6321347
1889,141.8665365
1890,144.2481092
1891,139.6121775
1892,134.5925611
1893,131.8890368
1894,143.9144198
1895,142.9245898
1896,131.8420779
1897,135.2005603
1898,136.9900843
1899,136.1447105
1900,135.1236585
1901,134.493632
1902,135.1284065
1903,137.2687785
1904,139.6810061
1905,138.1981341
1906,137.1634827
1907,136.5275904
1908,138.528848
1909,140.7318891
1910,143.0662283
1911,134.4238192
1912,127.4535726
1913,133.4024836
1914,131.3847097
1915,126.8407987
1916,133.1157545
1917,132.7223117
1918,126.6565208
1919,129.5082359
1920,130.9847654
1921,130.1324285
1922,135.3124403
1923,137.0736173
1924,127.2602501
1925,128.488884
1926,132.864591
1927,130.9423319
1928,131.6963501
1929,134.029218
1930,130.2871119
1931,129.9693273
1932,133.3926837
1933,128.8413659
1934,123.6729177
1935,118.6389758
1936,123.2006404
1937,128.9000257
1938,131.1518682
1939,130.0375646
1940,127.6169001
1941,126.1139145
1942,128.7406617
1943,133.780838
1944,128.2992579
1945,124.8684972
1946,123.5779585
1947,123.8033219
1948,124.2945099
1949,125.0482063
1950,121.8070335
1951,121.0088552
1952,127.8000489
1953,122.8694242
1954,116.3408686
1955,118.8230947
1956,115.8171412
1957,111.3478355
1958,117.1824888
1959,120.9083112
1960,122.8623339
1961,118.6434835
1962,118.7895584
1963,123.4438286
1964,119.2326457
1965,117.5746829
1966,120.1754519
1967,116.0397937
1968,134.3087972
1969,198.3191681
1970,158.6829147
1971,112.3390376
1972,117.9872271
1973,118.3063952
1974,117.7560717
1975,121.5621859
1976,119.4272588
1977,115.6140849
1978,120.1867561
1979,118.9760043
1980,114.0608686
1981,110.3548584
1982,112.4671338
1983,119.2567647
1984,114.5642751
1985,113.8754832
1986,117.3696073
1987,116.5533981
1988,116.4301478
1989,117.4140218
1990,116.4019368
1991,114.4322866
1992,111.2583351
1993,109.9797122
1994,109.2956225
1995,109.1860453
1996,108.534935
1997,109.1633453
1998,113.002931
1999,108.67173
2000,105.0573565
2001,109.6702321
2002,111.9017461
2003,112.2117297
2004,108.8030129
2005,108.9354769
2006,110.5201632
2007,112.2815526
2008,109.8075447
2009,106.3580704
2010,107.4602229
2011,105.0613543
2012,102.6598612
2013,110.383934
2014,112.2484538
2015,110.7267481
2016,108.6277695
2017,108.0394325
2018,108.4968453
2019,109.9346631
2020,108.7540181
2021,106.2894135
2022,107.5074476
2023,108.3959478
2024,108.7164879
2025,105.6124242
2026,103.1594556
2027,101.3143768
2028,101.0923996
2029,101.0000013
2030,100.9354706
2031,100.1576449
2032,104.1766485
2033,110.2055016
2034,100.7494723
2035,97.74631755
2036,99.06802243
2037,97.95425414
2038,98.29188155
2039,99.68311437
2040,101.5787265
2041,103.6764755
2042,105.1235618
2043,100.0999171
2044,96.65492758
2045,94.69261296
2046,96.25734584
2047,96.48000589
2048,95.92080179
2049,95.36132049
2050,94.58259964
2051,93.61356609
2052,92.26924515
2053,93.5754649
2054,95.01001486
2055,91.53314463
2056,92.55076599
2057,95.00445175
2058,95.79046503
2059,87.34781139
2060,80.63592275
2061,89.17970022
2062,89.00856655
2063,87.25727717
2064,88.1576678
2065,91.23391469
2066,92.56830724
2067,89.18791834
2068,89.33418529
2069,89.54309464
2070,88.75342052
2071,88.86761856
2072,87.55192439
2073,84.05073039
2074,84.99922942
2075,90.79809444
2076,101.8792483
2077,91.59276836
2078,85.21494548
2079,83.02646509
2080,87.44399389
2081,86.28476969
2082,81.41923015
2083,80.6254158
2084,79.54444631
2085,78.8520368
2086,81.00916927
2087,77.48105176
2088,74.59598414
2089,82.32520168
2090,81.65425619
2091,79.09730148
2092,78.30072403
2093,75.89384715
2094,73.99898084
2095,73.54326566
2096,68.54772949
2097,68.22861735
2098,74.3879172
2099,72.25899188
2100,72.71485138
2101,75.26648076
2102,71.49591319
2103,72.96565819
2104,76.3846995
2105,71.00827344
2106,69.01812935
2107,69.22542954
2108,71.63044675
2109,67.53648249
2110,65.86721866
2111,73.20529111
2112,72.97034073
2113,70.2555294
2114,65.66391945
2115,74.13899549
2116,75.90485446
2117,71.1883901
2118,71.5333608
2119,70.04297956
2120,68.17525546
2121,70.24746958
2122,71.16382535
2123,71.74930954
2124,72.67135874
2125,69.69620705
2126,67.81454023
2127,69.08382479
2128,67.65577316
2129,68.13843664
2130,70.77873421
2131,73.09053421
2132,70.70260684
2133,65.68770154
2134,62.7946078
2135,64.5196387
2136,66.33737882
2137,64.02022616
2138,65.63139471
2139,67.23760986
2140,67.81756783
2141,67.15591176
2142,66.77100118
2143,66.39532852
2144,63.72289276
2145,62.29040655
2146,62.31874657
2147,65.11059825
2148,64.82776388
2149,63.52220853
2150,61.77528699
2151,63.19663175
2152,65.95292282
2153,69.33594386
2154,67.23600324
2155,70.59417534
2156,73.09157181
2157,62.22934532
2158,61.02168274
2159,63.04024315
2160,66.31436857
2161,65.61706352
2162,66.74579684
2163,69.3217055
2164,67.44753774
2165,68.40919812
2166,69.99058724
2167,69.28696124
2168,65.66468303
2169,64.12619972
2170,66.47431755
2171,76.37605159
2172,74.03025309
2173,63.73659834
2174,60.91397794
2175,61.72404353
2176,63.95527712
2177,66.42791685
2178,62.30274836
2179,59.8333327
2180,60.11605517
2181,63.89040311
2182,67.50997035
2183,69.13497607
2184,65.0020256
2185,66.31405004
2186,64.78528659
2187,58.28667704
2188,65.02911822
2189,67.66666667
2190,66.50239627
2191,60.69958751
2192,59.31200473
2193,60.26706378
2194,63.11252848
2195,63.51578267
2196,62.64105606
2197,60.3091685
2198,55.32100614
2199,56.99802144
2200,60.07328224
2201,62.09462547
2202,61.59301313
2203,59.92479388
2204,57.77496274
2205,57.41763942
2206,62.88787015
2207,65.6691157
2208,60.66083972
2209,67.19792302
2210,69.55316353
2211,68.72934977
2212,69.08769989
2213,66.27803676
2214,64.50666301
2215,65.82212766
2216,65.5960598
2217,60.69825681
2218,55.44664892
2219,60.83736865
2220,65.44887288
2221,67.69434674
2222,66.87792524
2223,63.39791807
2224,67.13228353
2225,70.72479375
2226,62.55540975
2227,60.2438736
2228,66.19885318
2229,77.7766482
2230,68.75078265
2231,65.39321391
2232,65.26230494
2233,67.06955083
2234,66.82444572
2235,65.91868591
2236,64.6795756
2237,63.83474414
2238,68.8903389
2239,70.63240178
2240,65.96987089
2241,65.24448331
2242,66.12275569
2243,66.91912715
2244,65.46668879
2245,60.93387731
2246,59.63360468
2247,61.41343181
2248,62.98961131
2249,63.99734497
2250,61.03258451
2251,52.95669238
2252,56.47882907
2253,61.29093043
2254,65.23749606
2255,65.48068047
2256,63.70805105
2257,59.95103836
2258,55.71088092
2259,55.95448303
2260,60.16216215
2261,63.054334
2262,63.63771185
2263,69.61620267
2264,67.67865245
2265,62.33801651
2266,56.59698614
2267,68.75577672
2268,68.27320544
2269,61.90582657
2270,61.53874969
2271,63.58059947
2272,63.03404299
2273,60.66919581
2274,61.64974658
2275,59.24171829
2276,58.11249606
2277,59.93159358
2278,66.19332822
2279,61.93953196
2280,60.65688324
2281,69.87763659
2282,65.08104515
2283,60.28262202
2284,58.32301013
2285,62.50942739
2286,52.11369006
2287,52.94347127
2288,58.94426982
2289,58.08088493
2290,57.44075267
2291,60.32378388
2292,63.40744527
2293,56.48854256
2294,56.55959638
2295,59.81061363
2296,63.5070432
2297,59.42285601
2298,58.86847814
2299,57.19871267
2300,54.14038213
2301,56.61988068
2302,60.35745684
2303,60.34035428
2304,55.99692218
2305,61.33695666
2306,62.94661586
2307,61.58764267
2308,58.077425
2309,59.19701703
2310,59.6815726
2311,59.97918256
2312,60.38528888
2313,61.38218181
2314,61.04295667
2315,59.27425703
2316,56.09862964
2317,54.47591337
2318,54.61786016
2319,56.9809742
2320,61.61361313
2321,60.23820368
2322,56.56693141
2323,53.71341642
2324,54.1650397
2325,62.05582746
2326,58.1819617
2327,55.32062658
2328,61.31624858
2329,57.80325254
2330,60.74099287
2331,62.20817884
2332,57.8082091
2333,55.043293
2334,55.6417745
2335,56.1935126
2336,55.17840004
2337,55.30429205
2338,59.40337563
2339,60.70253181
2340,57.5312233
2341,57.7834371
2342,60.46493276
2343,59.25013352
2344,55.326931
2345,62.52723503
2346,56.85761833
2347,56.44005458
2348,61.7186025
2349,61.9716746
2350,70.43272909
2351,65.73736636
2352,55.14457321
2353,58.31335386
2354,54.68070602
2355,55.47374026
2356,56.92526563
2357,53.50251961
2358,56.55144501
2359,56.62435023
2360,55.64118958
2361,55.12388484
2362,54.48761241
2363,53.6581618
2364,53.28095627
2365,54.89517021
2366,64.83786202
2367,64.69424311
2368,59.1015021
2369,52.67051633
2370,54.20275815
2371,63.09869258
2372,64.33708573
2373,58.99156126
2374,50.85748609
2375,58.02412097
2376,58.46110217
2377,54.18528175
2378,48.14926847
2379,51.35408338
2380,50.87344933
2381,51.57572556
2382,52.28933461
2383,44.58474477
2384,49.63091723
2385,53.95632235
2386,53.8550307
2387,47.02188237
2388,48.69498062
2389,50.4612236
2390,52.31907463
2391,53.93282827
2392,53.41715813
2393,59.27456601
2394,56.37643814
2395,48.45920944
2396,50.26711019
2397,48.34172185
2398,54.0225296
2399,56.65193939
2400,49.19147428
2401,49.45032756
2402,53.99995359
2403,58.21965663
2404,58.09487788
2405,47.85286458
2406,44.37800598
2407,52.99212774
2408,59.72796631
2409,54.3459301
2410,54.47586759
2411,48.67739042
2412,48.38027891
2413,53.12424914
2414,54.94644928
2415,60.68813642
2416,57.27899933
2417,51.97438558
2418,49.43569565
2419,43.95679665
2420,44.61876742
2421,46.08932495
2422,46.72314136
2423,45.99337578
2424,51.87682406
2425,54.02235476
2426,51.30654144
2427,45.65088082
2428,43.94835345
2429,44.93299357
2430,47.32521121
2431,48.60483106
2432,47.67658106
2433,50.56425158
2434,48.10065015
2435,45.67579587
2436,44.13116137
2437,43.10435104
2438,45.47229322
2439,45.28395081
2440,44.63146464
2441,44.91546822
2442,47.2873923
2443,38.79995219
2444,40.20895099
2445,42.14980666
2446,41.08806483
2447,45.05013339
2448,43.73826408
2449,45.81336085
2450,48.2204698
2451,49.11087036
2452,54.4054629
2453,48.06354141
2454,44.49957911
2455,45.85297839
2456,49.80092366
2457,42.23923938
2458,47.089866
2459,47.83280818
2460,44.55811691
2461,42.18803279
2462,47.77226448
2463,50.00736554
2464,47.15063413
2465,43.52345657
2466,44.78909493
2467,48.25372823
2468,50.27665202
2469,48.35715548
2470,44.13202921
2471,41.17265383
2472,45.17923927
2473,43.48528226
2474,47.85048993
2475,56.47736931
2476,61.15483348
2477,42.14800072
2478,45.26616351
2479,46.20926412
2480,43.06563314
2481,40.3073225
2482,42.85616239
2483,50.94627254
2484,48.95251147
2485,45.43477504
2486,47.60308457
2487,41.821798
2488,41.9491202
2489,40.43643633
2490,42.6598053
2491,49.54973857
2492,50.62772179
2493,45.85843404
2494,38.31572692
2495,55.39085643
2496,78.38660304
2497,43.16666667
2498,43.16666603
2499,40.71076203
2500,41.14177449
2501,40.78233973
2502,33.8567365
2503,35.88808886
2504,36.40049966
2505,44.1358579
2506,46.79043198
2507,37.99831772
2508,40.84852982
2509,43.95740573
2510,47.37535667
2511,48.69755682
2512,47.12833087
2513,43.98863602
2514,43.71643384
2515,40.99596532
2516,40.23250516
2517,41.64049276
2518,43.05737178
2519,40.05650139
2520,42.61257299
2521,41.67230797
2522,41.12675603
2523,40.85316277
2524,35.87478097
2525,44.21843338
2526,38.88053386
2527,38.50017484
2528,39.34887314
2529,36.0062809
2530,40.80422401
2531,39.94749451
2532,37.11384455
2533,37.24533081
2534,39.15287209
2535,38.13842837
2536,37.86350091
2537,41.87409274
2538,40.99904823
2539,38.13697815
2540,38.83637715
2541,47.33090019
2542,43.74697367
2543,37.96522554
2544,37.92576059
2545,42.15521876
2546,45.39523443
2547,41.79415894
2548,37.09454441
2549,36.94362895
2550,35.67986139
2551,32.3131876
2552,30.17023373
2553,37.23520883
2554,34.59972986
2555,36.82564354
2556,39.94809278
2557,39.02374903
2558,33.58373133
2559,34.97283936
2560,39.22435951
2561,39.94936752
2562,35.53547796
2563,34.05489222
2564,40.8662281
2565,42.8163325
2566,37.30713749
2567,38.05229092
2568,37.32510154
2569,35.55340163
2570,35.42207845
2571,35.87741629
2572,38.25321992
2573,31.73689588
2574,33.63432249
2575,38.99171511
2576,40.20752779
2577,38.36924744
2578,36.26718966
2579,36.61195914
2580,34.14556599
2581,40.73413022
2582,48.06847445
2583,35.37766902
2584,38.46914896
2585,48.66947047
2586,36.33730126
2587,32.60550531
2588,37.19338481
2589,35.66771793
2590,36.65802002
2591,46.80888748
2592,40.15317345
2593,33.72247314
2594,32.3975633
2595,32.43873119
2596,28.46844101
2597,35.6783301
2598,36.82600181
2599,36.3597606
2600,36.97931385
2601,36.52902381
2602,33.35060279
2603,31.99999936
2604,32
2605,33.73278586
2606,31.85658773
2607,32.17636458
2608,32.77195676
2609,29.37278493
2610,35.18755945
2611,38.46045176
2612,33.411424
2613,32.87069194
2614,31.13539346
2615,31.36027368
2616,40.27611033
2617,25.00849692
2618,38.5227267
2619,37.71586132
2620,34.0888923
2621,31.70503489
2622,26.07797972
2623,17.30382157
2624,40.35174179
2625,33.38443374
2626,30.9772466
2627,31.36074162
2628,23.38450384
2629,21.76568047
2630,43.1518383
2631,35.08303165
2632,38.96294753
2633,34.4210434
2634,33.57606157
2635,31.27044201
2636,29.11149406
2637,32.55207252
2638,37.04376316
2639,30.70031166
2640,27.65652561
2641,25.02444299
2642,26.62379106
2643,24.75988706
2644,24.11054675
2645,40.1597697
2646,33.21709442
2647,30.86800544
2648,29.16038672
2649,29.26646455
2650,28.80628808
2651,31.16877461
2652,36.65409374
2653,32.29867013
2654,26.49114195
2655,32.74988937
2656,27.56531525
2657,28.82655684
2658,30.09316413
2659,28.97176552
2660,31.42857425
2661,29.37278239
2662,25.1463631
2663,27.39866257
2664,31.9980367
2665,18.87182347
2666,17.00234683
2667,30.97346783
2668,31.76926454
2669,23.2148064
2670,25.99431928
2671,28.36335786
2672,27.66274707
2673,26.19774564
2674,26.19114399
2675,26.09178384
2676,24.33333333
2677,24.11353207
2678,22.20457363
2679,23.46270688
2680,27.14781253
2681,26.5531381
2682,22.09293207
2683,20.3445406
2684,21.87954394
2685,21.10077508
2686,27.75908121
2687,29.52879397
2688,30.34696579
2689,29.79793167
2690,24.69643307
2691,17.85197735
2692,15.92898242
2693,20.86916447
2694,26.4350675
2695,32.09126918
2696,23.50083955
2697,-10.24820407
2698,10.85926604
2699,25.09486485
2700,26
2701,25.87887955
2702,28.21214485
2703,34.78974597
2704,29.5584933
2705,27.02979215
2706,23.81352107
2707,29.4995416
2708,29.25187524
2709,26.65853151
2710,29.16241296
2711,28.86530082
2712,-20.7832241
2713,-160.9057541
2714,21.0450657
2715,24.52017689
2716,9.623958589
2717,19.37017632
2718,24.83241876
2719,25.47937457
2720,26.16419919
2721,23.13730653
2722,66.69547971
2723,276.1723938
2724,17.54284509
2725,19.83397007
2726,22.65754414
2727,20.64225753
2728,23.05208524
2729,24.23021921
2730,24.95894782
2731,26.52386029
2732,22.65342045
2733,28.22972457
2734,20.83928108
2735,18.57157072
2736,37.65191237
2737,37.26808135
2738,26.2912124
2739,19.86028163
2740,19.58446566
2741,22.41159185
2742,24.12474442
2743,16.60240857
2744,12.29911558
2745,26.4005998
2746,23.54088179
2747,24.77419376
2748,27.7878987
2749,25.80556107
2750,26.69213136
2751,24.34117635
2752,24.72864596
2753,33.07099247
2754,32.60338243
2755,52.29106204
2756,23.60757478
2757,28.64057954
2758,23.33205064
2759,23.09950701
2760,24.35722637
2761,25.23297183
2762,22.39943918
2763,17.47231261
2764,18.59536394
2765,23.51033115
2766,19.34073242
2767,23.67391809
2768,18.46769969
2769,22.60961946
2770,20.3650128
2771,19.86791611
2772,21.85711861
2773,23.51532904
2774,22.78848219
2775,21.02954515
2776,20.84304921
2777,22.10819404
2778,21.94619688
2779,20.13196818
2780,21.27352587
2781,19.41418553
2782,21.88422426
2783,19.49727949
2784,19.43683052
2785,19.13094076
2786,16.8903815
2787,15.83333333
2788,15.65876691
2789,16.93490585
2790,19.17734369
2791,20.15666962
2792,19.64557219
2793,17.20458412
2794,18.57701047
2795,21.93468698
2796,20.3803374
2797,18.07112885
2798,18.67175357
2799,19.60574595
2800,17.47713343
2801,18.10440667
2802,20.82754898
2803,18.31965494
2804,14.21746127
2805,20.03455528
2806,25.96614615
2807,18.94851812
2808,21.9119854
2809,14.20998526
2810,18.52653917
2811,16.93143702
2812,22.72784487
2813,22.25308927
2814,19.65513118
2815,26.17338657
2816,20.60318915
2817,17.11450116
2818,15.7235651
2819,15.36567942
2820,14.35420736
2821,12.56371204
2822,12.06347775
2823,13.74189186
2824,16.63811429
2825,17.0796628
2826,22.76733367
2827,25.42737007
2828,22.14730644
2829,21.83924484
2830,22.78756396
2831,16.36169307
2832,24.47350598
2833,24.93067138
2834,24.03984515
2835,23.13049046
2836,18.25555992
2837,16.13611364
2838,15.3110253
2839,18.83630514
2840,19.75792249
2841,15.72225062
2842,19.2242624
2843,21.87946192
2844,14.31966781
2845,18.50891876
2846,24.62894694
2847,16.95766687
2848,22.15298971
2849,18.53276317
2850,8.909578086
2851,12.74238221
2852,23.90870381
2853,15.11887487
2854,15.56702073
2855,11.2158699
2856,17.27477153
2857,21.29730225
2858,21.53465144
2859,15.39302874
2860,16.06846205
2861,18.04058981
2862,15.08869267
2863,20.78247738
2864,23.56087303
2865,17.59646225
2866,15.03675445
2867,14.40879313
2868,15.1257569
2869,11.65045714
2870,13.04383946
2871,12.19551102
2872,15.3603212
2873,22.16743597
2874,16.66046031
2875,10.18634097
2876,32.69453526
2877,17.34301678
2878,17.37332789
2879,13.17217127
2880,19.49090354
2881,24.70963605
2882,19.64127477
2883,21.09977818
2884,23.49897671
2885,23.55306848
2886,23.36403052
2887,25.57543055
2888,21.0511659
2889,16.64873298
2890,20.47186692
2891,21.75146771
2892,19.02065007
2893,22.63389588
2894,21.36538569
2895,23.04875151
2896,17.69395304
2897,16.44168171
2898,17.28343248
2899,16.21402184
2900,15.28118626
2901,16.16545105
2902,2.011557261
2903,0.330255091
2904,24.28870996
2905,24.14887683
2906,16.11709341
2907,18.34037225
2908,21.47850355
2909,23.26528057
2910,20.66666699
2911,18.44733572
2912,13.31871049
2913,12.53046449
2914,15.26272392
2915,14.46288331
2916,13.09923267
2917,19.89460691
2918,23.21266874
2919,16.33308808
2920,19.95693652
2921,18.32947858
2922,20.64861934
2923,34.33900229
2924,11.97164551
2925,16.42722241
2926,10.74398371
2927,10.54901195
2928,14.56977081
2929,19.24760087
2930,15.67728599
2931,11.36996826
2932,14.89951054
2933,13.72343111
2934,7.865930319
2935,9.558885176
2936,15.70803372
2937,13.88271443
2938,13.29058123
2939,19.36310959
2940,10.86940789
2941,10.64259307
2942,15.26314783
2943,9.042405288
2944,13.9129467
2945,13.57664617
2946,10.21150907
2947,14.16156339
2948,14.77470064
2949,19.04136277
2950,11.71238407
2951,7.855836113
2952,13.6666344
2953,9.960406939
2954,19.16256746
2955,20.93533675
2956,11.93570892
2957,14.09780073
2958,6.976451636
2959,14.31823794
2960,17.68308481
2961,16.40372133
2962,11.85019008
2963,8.995262664
2964,8.765883605
2965,17.5607942
2966,14.94975218
2967,11.56547737
2968,15.74511337
2969,15.02208773
2970,9.654238225
2971,12.50747315
2972,13.76273012
2973,10.69357276
2974,17.8417271
2975,16.08705044
2976,4.864561022
2977,8.50756534
2978,16.12932539
2979,16.44381396
2980,15.60356299
2981,11.46458753
2982,9.220440269
2983,7.861002445
2984,11.94103686
2985,8.584521295
2986,11.25316405
2987,14.43661165
2988,9.957877795
2989,13.59602745
2990,8.511154015
2991,14.62652318
2992,-2.124760555
2993,17.04438035
2994,18.75103633
2995,19.36036428
2996,11.20401438
2997,14.76595799
2998,19.07668273
2999,16.19086202
3000,5.28512764
