Frequency,Density
0,266.2
1,266.2
2,266.2
3,266.2
4,266.2
5,266.2
6,266.2
7,266.2
8,266.2
9,266.2
10,266.2
11,266.2
12,266.2
13,266.2
14,266.2
15,266.2
16,266.2
17,266.2
18,266.2
19,266.2
20,266.2
21,266.2
22,266.2
23,266.2
24,266.2
25,266.2
26,266.2
27,266.2
28,266.2
29,266.2
30,266.2
31,266.2
32,266.2
33,266.2
34,266.2
35,266.2
36,266.2
37,266.2
38,266.2
39,266.2
40,266.2
41,266.2
42,266.2
43,266.2
44,266.2
45,266.2
46,266.2
47,266.2
48,266.2
49,266.2
50,266.2
51,266.2
52,266.2
53,266.2
54,266.2
55,266.2
56,266.2
57,266.2
58,266.2
59,266.2
60,266.2
61,266.2
62,266.2
63,266.2
64,266.2
65,266.2
66,266.2
67,266.2
68,266.2
69,266.2
70,266.2
71,266.2
72,266.2
73,266.2
74,266.2
75,266.2
76,266.2
77,266.2
78,266.2
79,266.2
80,266.2
81,266.2
82,266.2
83,266.2
84,266.2
85,266.2
86,266.2
87,266.2
88,266.2
89,266.2
90,266.2
91,266.2
92,266.2
93,266.2
94,266.2
95,266.2
96,266.2
97,266.2
98,266.2
99,266.2
100,266.2
101,266.2
102,266.2
103,266.2
104,266.2
105,266.2
106,266.2
107,266.2
108,266.2
109,266.2
110,266.2
111,266.2
112,266.2
113,266.2
114,266.2
115,266.2
116,266.2
117,266.2
118,266.2
119,266.2
120,266.2
121,266.2
122,266.2
123,266.2
124,266.2
125,266.2
126,266.2
127,266.2
128,266.2
129,266.2
130,266.2
131,266.2
132,266.2
133,266.2
134,266.2
135,266.2
136,266.2
137,266.2
138,266.2
139,266.2
140,266.2
141,266.2
142,266.2
143,266.2
144,266.2
145,266.2
146,266.2
147,266.2
148,266.2
149,266.2
150,266.2
151,266.2
152,266.2
153,266.2
154,266.2
155,266.2
156,266.2
157,266.2
158,266.2
159,266.2
160,266.2
161,266.2
162,266.2
163,266.2
164,266.2
165,266.2
166,266.2
167,266.2
168,266.2
169,266.2
170,266.2
171,266.2
172,266.2
173,266.2
174,266.2
175,266.2
176,266.2
177,266.2
178,266.2
179,266.2
180,266.2
181,266.2
182,266.2
183,266.2
184,266.2
185,266.2
186,266.2
187,266.2
188,266.2
189,266.2
190,266.2
191,266.2
192,266.2
193,266.2
194,266.2
195,266.2
196,266.2
197,266.2
198,266.2
199,281.247113
200,333.9029785
201,386.558844
202,407.8643982
203,415.9223816
204,422.2359985
205,415.9563782
206,409.6767639
207,409.5322937
208,414.5744568
209,419.6166138
210,413.2180969
211,406.3877686
212,402.7408386
213,404.1387756
214,405.5367066
215,403.9708923
216,401.7173462
217,402.0535706
218,410.6842895
219,419.3150208
220,422.925116
221,424.0143128
222,424.9556091
223,424.4885437
224,424.0214539
225,421.6700989
226,417.6197388
227,413.5693787
228,412.8772522
229,412.3316894
230,410.1657532
231,405.4867676
232,400.8077759
233,397.9341431
234,395.4372131
235,393.5587403
236,393.402594
237,393.2464416
238,392.1571838
239,390.6728821
240,389.0993957
241,386.9888855
242,384.8783936
243,388.1551392
244,395.2724976
245,402.0977112
246,398.2630188
247,394.4283386
248,389.8179993
249,384.3366699
250,378.8553284
251,381.4892212
252,384.8583069
253,384.2295899
254,376.6250733
255,369.020575
256,369.2585266
257,371.298053
258,372.1586792
259,369.7255127
260,367.2923401
261,365.8695435
262,364.8485901
263,364.9287231
264,370.4294373
265,375.9301575
266,377.6567078
267,377.1063171
268,376.7008118
269,377.9596008
270,379.2183899
271,377.2167419
272,372.4147949
273,367.612854
274,369.0140076
275,370.4318176
276,371.9222168
277,373.4984802
278,375.0747437
279,370.5540283
280,365.5070068
281,364.432135
282,369.7188354
283,375.0055359
284,378.8860352
285,382.5178528
286,383.9997009
287,380.8397461
288,377.6797791
289,378.3028503
290,379.9628113
291,381.7841675
292,384.0778381
293,386.3714966
294,387.57453
295,388.3659119
296,388.4805786
297,385.8674683
298,383.2543701
299,383.6265137
300,385.4488525
301,387.7432312
302,392.7377686
303,397.7323181
304,399.6993225
305,399.8579773
306,400.1829773
307,401.9291565
308,403.6753357
309,401.4730225
310,396.4696411
311,391.5773926
312,388.2398438
313,384.9022949
314,380.5143249
315,375.2665222
316,370.0818176
317,366.6607849
318,363.2397461
319,361.1440491
320,360.2683899
321,359.4165589
322,361.4078735
323,363.3991882
324,363.4881958
325,361.6551025
326,359.8220093
327,363.8182739
328,367.8853516
329,368.8891419
330,366.5751282
331,364.2611084
332,362.9562866
333,361.678833
334,363.0215332
335,367.3354675
336,371.649408
337,371.1828491
338,370.5433655
339,369.4963135
340,367.9766602
341,366.4570007
342,365.398645
343,364.3582703
344,365.4698242
345,369.0732544
346,372.6766784
347,374.5023865
348,376.2651062
349,376.861145
350,376.1396057
351,375.4180725
352,372.5062805
353,369.5382263
354,367.8453308
355,367.5242676
356,367.2032166
357,364.5761841
358,361.9258667
359,359.2346191
360,356.5023743
361,353.8123047
362,354.9380066
363,356.0636963
364,356.6
365,356.6
366,356.4846191
367,353.4255371
368,350.3664612
369,350.8718933
370,354.2549744
371,357.5814819
372,360.1605896
373,362.7396973
374,363.8474976
375,363.9281311
376,363.885791
377,362.8367981
378,361.7877991
379,360.7384155
380,359.6888
381,358.0944458
382,353.489563
383,348.8846863
384,347.5643188
385,347.8068237
386,348.032898
387,348.1946777
388,348.3564331
389,351.4158935
390,355.5433472
391,357.48656
392,353.1947143
393,348.9028686
394,350.1753418
395,352.9302124
396,354.2269531
397,352.4433289
398,350.6597046
399,355.459607
400,361.3814758
401,363.7687073
402,360.6031189
403,357.4375061
404,355.7726379
405,354.2295227
406,355.3541931
407,359.5799805
408,363.8128906
409,373.2452148
410,382.6775452
411,391.4076599
412,399.5437805
413,406.4625671
414,400.03125
415,393.5999267
416,390.8936401
417,390.4048889
418,388.5737182
419,380.2601746
420,371.9466369
421,365.7953186
422,360.4943481
423,357.6610046
424,361.6594788
425,365.6579529
426,363.6071289
427,360.1778442
428,357.4633484
429,355.9927857
430,354.5222229
431,353.8753357
432,353.3031189
433,352.8461365
434,352.5189575
435,352.2246765
436,353.2067932
437,354.1889038
438,352.8383301
439,349.808374
440,347.2684082
441,347.7600403
442,348.2516846
443,345.3655884
444,341.0202454
445,340.3914001
446,350.3998047
447,360.4082153
448,362.2
449,362.2
450,358.0002869
451,347.0765991
452,336.1529053
453,332.7131897
454,329.6724731
455,330.999054
456,336.4262451
457,341.0700439
458,337.1206604
459,333.1712952
460,332.9285827
461,334.6574524
462,335.300531
463,332.1702514
464,329.0399658
465,329.5147461
466,330.9159607
467,331.0998779
468,329.2029907
469,327.3061035
470,329.0697449
471,331.0502625
472,329.8942322
473,325.8482727
474,322.3867859
475,324.28703
476,326.1872742
477,326.8
478,326.8
479,326.5009399
480,325.3428955
481,324.1848633
482,323.443573
483,322.7814392
484,325.3489258
485,332.3053772
486,339.1212097
487,330.254773
488,321.3883545
489,322.2421204
490,329.7042725
491,335.4505981
492,333.5424804
493,331.6343567
494,329.6612549
495,327.6689941
496,326.852301
497,328.0981995
498,329.3440918
499,330.3525696
500,331.3498718
501,331.3437622
502,330.5121704
503,329.5013
504,327.4211243
505,325.3409424
506,323.7527039
507,322.3373474
508,322.6098084
509,326.1919433
510,329.7740905
511,334.2953918
512,338.8799133
513,336.8304321
514,329.0738525
515,322.6795776
516,324.6824585
517,326.6853394
518,328.0686401
519,329.237677
520,329.8837219
521,329.5495117
522,329.2153076
523,329.3595398
524,329.5267456
525,329.3649841
526,328.9467285
527,328.6429382
528,328.894043
529,329.1451416
530,332.3417358
531,336.3617309
532,336.8876221
533,332.0272522
534,327.1931457
535,326.1869568
536,325.1807739
537,323.861322
538,322.3511475
539,321.2997925
540,321.7195251
541,322.13927
542,323.3495117
543,324.6934814
544,324.4831421
545,322.5500427
546,321.245935
547,325.9553833
548,330.6648315
549,329.5280884
550,326.078064
551,323.027771
552,320.7544617
553,318.4811462
554,318.6437134
555,318.89646
556,319.049762
557,319.1340576
558,319.4387451
559,320.5352478
560,321.6317505
561,325.2294067
562,329.2804138
563,329.5076843
564,325.5387268
565,321.8900879
566,320.8761414
567,319.8621826
568,323.7371704
569,329.3171997
570,330.6697266
571,325.0017944
572,319.3585083
573,315.8033814
574,312.2482483
575,312.9235412
576,315.8879089
577,317.5370605
578,315.926886
579,314.3167114
580,314.0426941
581,313.8731018
582,313.1724731
583,312.0694702
584,311.1281006
585,310.7885071
586,310.4489258
587,314.7625244
588,319.8593567
589,322.3147339
590,322.144751
591,320.9643188
592,313.9904175
593,307.01651
594,309.3297302
595,314.0101135
596,315.8013428
597,314.0132202
598,312.1500061
599,309.594043
600,307.0380859
601,308.7667847
602,311.9210083
603,310.4548706
604,302.1808044
605,294.7154663
606,300.0071716
607,305.298877
608,309.0634643
609,312.223291
610,313.7200806
611,312.4383118
612,311.0782349
613,307.4871643
614,303.8960815
615,303.9293518
616,305.5548462
617,308.0975586
618,312.2921204
619,316.3168213
620,312.291095
621,308.2653625
622,307.176294
623,307.4334107
624,306.5432495
625,303.5418274
626,300.6511169
627,303.2253052
628,305.7994812
629,306.0084229
630,305.1498657
631,304.1366638
632,302.8480469
633,301.7569397
634,306.7425415
635,311.7281372
636,314.1092651
637,315.399408
638,313.9794129
639,308.1273132
640,302.7672668
641,305.7811706
642,308.7950684
643,310.8630249
644,312.586261
645,314.0969543
646,315.3039368
647,315.6389038
648,307.3575134
649,299.0761292
650,297.7340942
651,298.4246094
652,301.3225891
653,306.8500611
654,310.8827942
655,305.784137
656,300.6854859
657,307.2310119
658,316.2237976
659,316.5580994
660,308.6847595
661,302.1554504
662,300.943457
663,299.7314514
664,299.4455444
665,299.2722961
666,298.6949707
667,297.8282287
668,298.0830322
669,301.2918823
670,304.5007202
671,301.5726807
672,298.4487183
673,300.3993713
674,304.9144409
675,306.6084961
676,303.3070617
677,300.251178
678,301.1204895
679,301.989801
680,302.1340515
681,302.0470642
682,301.2810791
683,299.7144592
684,298.7924744
685,301.2308899
686,303.669281
687,307.5400146
688,311.6354675
689,310.7699402
690,306.1489136
691,302.487793
692,301.3536499
693,300.219519
694,300.4573669
695,300.7192444
696,297.900293
697,293.7077576
698,291.1648804
699,291.0774841
700,291.138855
701,292.3631164
702,293.5873963
703,293.0769531
704,292.2019592
705,291.7999939
706,291.8
707,292.4959045
708,295.2116089
709,297.9273193
710,296.890979
711,295.7514587
712,293.5196594
713,290.8007263
714,288.1172241
715,285.4844482
716,284.1062195
717,290.9555054
718,297.8048035
719,297.4482544
720,295.8667053
721,294.1320679
722,292.2858398
723,289.6382446
724,285.1518982
725,281.124469
726,291.9509155
727,302.7773682
728,302.063147
729,297.6595398
730,292.7826904
731,287.4071045
732,284.1008301
733,288.2451294
734,292.3894409
735,289.1664184
736,285.5490295
737,286.3878967
738,289.301178
739,291.4418823
740,292.501886
741,293.0760315
742,290.9547791
743,288.8335022
744,287.734259
745,286.7614441
746,286.2331543
747,285.967688
748,285.8652283
749,286.0423096
750,287.5394104
751,299.7656311
752,311.9918518
753,303.1491272
754,290.6497192
755,285.1770783
756,284.4674622
757,284.0605774
758,284.2380798
759,284.7820801
760,289.1335876
761,293.4850952
762,299.6952576
763,306.270813
764,303.0189758
765,292.7941406
766,285.4627075
767,283.8613434
768,283.0070801
769,289.950415
770,296.89375
771,293.6570312
772,288.4909668
773,284.6493439
774,281.7082916
775,281.8354309
776,287.6318542
777,292.3357727
778,288.0528015
779,283.7698242
780,282.1937561
781,281.0331055
782,281.7759796
783,283.6520019
784,284.1755982
785,282.5666229
786,281.3616608
787,282.4349518
788,283.5082337
789,283.1089477
790,282.571991
791,280.3305725
792,277.2859894
793,277.5191651
794,281.8199554
795,285.0272614
796,284.2203796
797,283.413504
798,282.3415344
799,281.2650635
800,282.5561218
801,284.6205933
802,286.8745239
803,289.2994751
804,289.7382324
805,285.5145294
806,281.8764526
807,285.653064
808,289.4296875
809,287.708429
810,285.0092407
811,282.1963257
812,279.3154938
813,278.1830261
814,279.624295
815,280.1356934
816,276.530365
817,272.9250458
818,274.1058868
819,275.4586822
820,273.9782532
821,271.5417725
822,272.7510559
823,277.1754395
824,279.6854736
825,278.0592224
826,276.989975
827,280.7868073
828,284.5836487
829,280.3289276
830,275.0825562
831,272.723703
832,271.7281128
833,271.7102783
834,272.7970215
835,274.4991272
836,277.9425262
837,281.0433289
838,278.1419068
839,275.2404785
840,276.4159607
841,278.3211487
842,275.0850616
843,269.0029846
844,268.0006195
845,273.4504944
846,277.8602264
847,278.9508453
848,279.9757965
849,279.3392212
850,278.702652
851,281.6528137
852,285.2925476
853,283.5662567
854,278.8318024
855,275.0671264
856,272.5162964
857,271.3709656
858,274.4702423
859,277.2154083
860,273.8406525
861,270.4659088
862,279.3610351
863,290.2213989
864,286.1465454
865,274.7318146
866,269.9411224
867,272.3167969
868,274.7728271
869,277.4241882
870,279.5147827
871,276.7703491
872,274.0259369
873,270.7760345
874,267.4807648
875,265.5933685
876,264.2195282
877,264.254126
878,265.4454956
879,266.4017456
880,266.9519379
881,267.5532806
882,268.3790558
883,269.2558105
884,278.8037476
885,288.3516968
886,280.4996094
887,269.0169098
888,270.6176117
889,279.2577423
890,279.7869446
891,271.3256317
892,266.2273438
893,268.9881073
894,270.5273102
895,263.6212952
896,256.7152863
897,263.5222107
898,270.9851166
899,270.3605225
900,267.502655
901,268.8927673
902,272.9515075
903,276.9290008
904,280.8055664
905,280.944635
906,271.4321716
907,263.0839569
908,263.8232269
909,264.5624908
910,263.8978241
911,263.1581055
912,261.4723816
913,259.5295014
914,262.2110931
915,267.6729462
916,274.3829407
917,282.534259
918,286.3064392
919,280.096637
920,273.0134979
921,260.8647156
922,248.7159424
923,258.4341797
924,268.3631134
925,267.7512878
926,265.058667
927,265.1491577
928,266.5427185
929,266.0212402
930,263.79021
931,261.3133118
932,258.4298614
933,258.7526398
934,270.014087
935,279.5384125
936,268.4565185
937,257.3746277
938,260.3266876
939,264.3334473
940,261.1810669
941,256.0530792
942,254.4383118
943,254.8114838
944,256.1547211
945,258.4883911
946,259.0129456
947,256.2108826
948,254.8873108
949,259.0929047
950,262.6216705
951,257.2914215
952,251.9611633
953,254.9146973
954,258.4703217
955,253.4703705
956,246.2612824
957,244.5403595
958,245.6645203
959,248.7033692
960,253.4838959
961,254.09552
962,248.1866638
963,243.5340606
964,242.5017395
965,241.7425323
966,242.8693695
967,243.9962036
968,243.8127197
969,243.6247925
970,247.6804352
971,252.3811615
972,249.7676361
973,244.59375
974,249.0797546
975,259.6219238
976,263.6159424
977,260.7904633
978,256.8251984
979,250.8881744
980,246.6991486
981,247.9249756
982,248.8258972
983,247.4106384
984,245.9984589
985,245.5264282
986,245.0543884
987,242.4926758
988,239.6587982
989,240.3058258
990,242.0071625
991,240.5665283
992,237.4455536
993,238.5400268
994,243.2715912
995,243.8753967
996,238.856958
997,235.6358368
998,236.3937866
999,238.7460083
1000,247.4676178
1001,254.790564
1002,248.0557434
1003,241.320932
1004,245.1147613
1005,249.1011017
1006,240.543869
1007,230.1922119
1008,231.526358
1009,236.3726746
1010,236.4842804
1011,234.2023041
1012,235.0672882
1013,238.3971527
1014,238.9340118
1015,236.173349
1016,234.6043945
1017,235.1759064
1018,235.2066528
1019,233.6817139
1020,232.962793
1021,236.4913055
1022,239.9842865
1023,242.9423675
1024,245.9004456
1025,245.446405
1026,244.8735352
1027,240.2200226
1028,234.965567
1029,233.8743866
1030,233.9699768
1031,234.8529449
1032,236.0963806
1033,235.5180756
1034,233.6996643
1035,235.170813
1036,239.8632019
1037,240.9227905
1038,236.8983551
1039,236.0007477
1040,241.4657257
1041,243.5910645
1042,235.3407562
1043,228.8418579
1044,231.6255951
1045,234.4022339
1046,237.0915771
1047,239.7809204
1048,231.4981781
1049,223.1370362
1050,239.6740509
1051,258.6180084
1052,252.5933807
1053,241.5281372
1054,236.5512726
1055,233.5666962
1056,233.0559174
1057,233.7302582
1058,234.2891693
1059,234.7711243
1060,234.6454743
1061,233.9703369
1062,234.5149567
1063,236.5415771
1064,236.8483276
1065,234.3376861
1066,231.9158203
1067,229.6935455
1068,229.219104
1069,234.3430481
1070,238.10896
1071,235.2068848
1072,231.2610504
1073,218.0971771
1074,206.0043182
1075,223.0500488
1076,240.0957733
1077,229.9732849
1078,219.022644
1079,225.560321
1080,233.8993927
1081,232.4975891
1082,229.2958038
1083,230.9554962
1084,233.9650207
1085,234.6596222
1086,234.4653442
1087,232.851886
1088,230.519162
1089,228.9517304
1090,227.8819305
1091,223.8706695
1092,217.448053
1093,216.1251312
1094,220.0199463
1095,223.1865723
1096,225.4274262
1097,225.9689789
1098,223.8242798
1099,223.5795624
1100,227.091156
1101,229.2934235
1102,228.2197967
1103,226.8227753
1104,224.3812714
1105,222.713147
1106,224.3743591
1107,225.0928589
1108,220.1062591
1109,215.6188476
1110,215.8145203
1111,216.1223145
1112,218.4717438
1113,220.8291229
1114,224.0615173
1115,227.2939026
1116,229.7698059
1117,232.2200378
1118,227.1298279
1119,221.4419067
1120,224.1079773
1121,227.8367645
1122,226.7329315
1123,224.7692413
1124,229.0266388
1125,234.7247162
1126,227.7595459
1127,217.1430237
1128,215.713031
1129,217.4835022
1130,216.6755676
1131,214.8056244
1132,214.5994965
1133,215.1903564
1134,215.3999969
1135,215.4
1136,214.4291107
1137,212.8516113
1138,213.4159607
1139,215.4876587
1140,216.7314423
1141,217.3237122
1142,216.4407257
1143,214.2677856
1144,218.980368
1145,230.3456665
1146,230.5419128
1147,218.8731842
1148,214.1555694
1149,217.5197418
1150,216.0810364
1151,208.5566467
1152,206.3269897
1153,211.3792511
1154,215.1174316
1155,216.9016449
1156,216.4749634
1157,212.5076904
1158,209.2332611
1159,207.1492004
1160,207.4806763
1161,212.2470703
1162,215.0636597
1163,214.0700684
1164,213.6913422
1165,214.5861023
1166,214.4817993
1167,212.1938263
1168,211.7777405
1169,215.6596649
1170,217.0820038
1171,212.6002014
1172,211.1098114
1173,217.0891052
1174,220.5653046
1175,217.573877
1176,214.3365601
1177,210.4453949
1178,206.982898
1179,204.6867401
1180,205.0149109
1181,212.6067139
1182,218.094751
1183,217.6949432
1184,216.4819214
1185,212.9815338
1186,209.7695526
1187,207.3678589
1188,206.2870605
1189,208.8904419
1190,210.0790619
1191,207.3739441
1192,205.8064544
1193,207.3101929
1194,206.5776245
1195,199.9572388
1196,196.8100403
1197,202.5310455
1198,206.4259949
1199,205.8234283
1200,205.489624
1201,205.7910858
1202,205.8147827
1203,205.211499
1204,204.9599182
1205,205.4629547
1206,206.2650635
1207,207.6744049
1208,208.2542572
1209,207.2469849
1210,207.7175507
1211,210.8419525
1212,209.6376678
1213,201.166507
1214,197.8107727
1215,202.4524963
1216,206.2300812
1217,208.7542603
1218,207.4375488
1219,200.9718109
1220,201.2457916
1221,209.8382172
1222,211.5531525
1223,205.4843048
1224,201.7031891
1225,200.2862854
1226,200.3832733
1227,201.9022919
1228,203.6957275
1229,205.72229
1230,205.7953247
1231,204.3758911
1232,202.59422
1233,200.5652466
1234,200.4322388
1235,201.4473267
1236,201.9325623
1237,202.1356964
1238,207.0622833
1239,214.1763672
1240,215.2540711
1241,213.9320953
1242,216.190448
1243,219.6499695
1244,211.6287781
1245,200.429541
1246,197.6493042
1247,196.7324585
1248,198.4313263
1249,200.5719025
1250,201.5289978
1251,202.3449402
1252,202.1144989
1253,201.8083374
1254,201.8
1255,201.7362549
1256,197.2405517
1257,193.1392578
1258,195.5929169
1259,197.7588806
1260,197.3496918
1261,196.9702362
1262,196.7655182
1263,196.6784393
1264,197.0881043
1265,196.7395752
1266,193.9726349
1267,192
1268,192
1269,191.8273132
1270,191.3143066
1271,193.9027191
1272,201.3970642
1273,204.8781677
1274,203.2345917
1275,200.8316681
1276,197.6453522
1277,199.0096741
1278,204.151947
1279,202.7324066
1280,196.9696289
1281,194.2544769
1282,193.1218292
1283,191.9149445
1284,190.678595
1285,188.722934
1286,186.5580353
1287,191.7098999
1288,198.3116119
1289,197.3358887
1290,195.4780579
1291,196.0925445
1292,196.7977875
1293,196.6944549
1294,196.9910797
1295,201.5405579
1296,205.1018493
1297,203.1361389
1298,199.8580261
1299,191.8869599
1300,186.7342651
1301,188.5987396
1302,188.3253235
1303,184.1795868
1304,184.5391662
1305,190.9688782
1306,192.7546112
1307,189.8491455
1308,188.9551392
1309,189.5781097
1310,188.3285034
1311,186.0429199
1312,188.1643097
1313,192.0105347
1314,192.0560242
1315,191.1199005
1316,187.3701752
1317,183.2071442
1318,184.1874695
1319,185.3752411
1320,184.5416443
1321,184.1105225
1322,186.9255829
1323,188.8193268
1324,186.8371796
1325,186.1461822
1326,188.8602051
1327,190.899942
1328,191.7355194
1329,189.3222717
1330,182.8426697
1331,179.2453308
1332,178.1996094
1333,178.7050873
1334,180.1699615
1335,181.0437683
1336,181.6719422
1337,182.300415
1338,182.9289612
1339,184.4875946
1340,186.1647247
1341,186.6107117
1342,188.4069397
1343,207.926767
1344,221.2309143
1345,203.3796142
1346,192.2622711
1347,200.1425293
1348,196.9525665
1349,173.9285309
1350,166.9625671
1351,179.1652008
1352,183.4324371
1353,181.3272858
1354,177.0843536
1355,171.7130249
1356,174.301477
1357,179.4652314
1358,180.8330872
1359,181.5712067
1360,176.6317718
1361,171.7516663
1362,171.0126709
1363,170.6708557
1364,172.2553619
1365,172.431723
1366,168.9437469
1367,168.3488281
1368,172.3676819
1369,173.6676819
1370,172.1861725
1371,176.463266
1372,184.5105225
1373,183.5403687
1374,178.984607
1375,174.338855
1376,169.6743744
1377,169.2003326
1378,169.1418793
1379,171.6891724
1380,173.8
1381,173.8
1382,175.57565
1383,181.7389129
1384,184.4935028
1385,182.2606506
1386,181.5909637
1387,182.3356934
1388,181.3639038
1389,179.4477539
1390,173.7759338
1391,166.9589111
1392,168.2837158
1393,170.6232941
1394,172.5428619
1395,174.0541229
1396,172.9870605
1397,171.6676819
1398,169.6390625
1399,168.9821228
1400,170.4777832
1401,171.1447235
1402,171.0378265
1403,170.8617767
1404,170.6478577
1405,171.5969787
1406,172.8812561
1407,166.2941712
1408,159.3068878
1409,161.9856537
1410,164.4788177
1411,166.0870331
1412,161.3196015
1413,142.2241119
1414,138.6954132
1415,154.6893341
1416,166.4495972
1417,175.1494446
1418,173.8173187
1419,168.5513245
1420,168.0765686
1421,168.3991699
1422,170.1171356
1423,171.4358063
1424,170.251532
1425,169.9448028
1426,171.8838501
1427,172.8170227
1428,172.3858704
1429,171.8932098
1430,171.3539429
1431,171.2
1432,171.2
1433,168.1310303
1434,164.6353088
1435,168.5249359
1436,170.9117645
1437,165.2900726
1438,161.1667603
1439,160.4095429
1440,162.3854553
1441,167.5808777
1442,167.3487854
1443,163.66651
1444,161.3084198
1445,159.3578186
1446,163.9835846
1447,168.6057526
1448,166.0018646
1449,164.2258911
1450,165.2029297
1451,165.7155121
1452,165.4982635
1453,164.6261414
1454,163.2131897
1455,164.8776703
1456,167.8140045
1457,164.1359284
1458,159.6299988
1459,160.6099396
1460,161.4211121
1461,161.5300598
1462,160.6633301
1463,158.0470459
1464,159.1975891
1465,163.7788086
1466,161.5864014
1467,156.3476166
1468,156.7234558
1469,158.1075134
1470,162.2598084
1471,165.1723175
1472,162.9856048
1473,159.3154754
1474,153.0796326
1475,152.3209717
1476,156.261734
1477,157.0884277
1478,156.6503021
1479,157.2790863
1480,157.953714
1481,157.1860901
1482,156.1848144
1483,154.4291992
1484,155.3079712
1485,159.9191925
1486,161.5398071
1487,161.1003784
1488,160.7455658
1489,160.415802
1490,157.6773773
1491,154.6850952
1492,150.8332764
1493,148.4786896
1494,149.3596283
1495,151.3428955
1496,154.428009
1497,152.6815155
1498,148.7125854
1499,155.9813843
1500,164.1063477
1501,159.0289154
1502,154.9827393
1503,154.0991821
1504,152.2538971
1505,149.1596192
1506,153.6000244
1507,162.5566406
1508,159.8636413
1509,154.5724884
1510,151.4726959
1511,149.1344604
1512,149.7990906
1513,150.727768
1514,152.0578247
1515,155.2935425
1516,159.8406067
1517,159.2239868
1518,157.226532
1519,151.2837189
1520,146.7091278
1521,148.3756562
1522,148.9287903
1523,147.7059478
1524,147.9825287
1525,149.3173309
1526,151.5300507
1527,153.9786347
1528,155.8766937
1529,156.7032867
1530,153.1374786
1531,150.910675
1532,150.6876831
1533,150.6
1534,150.6
1535,147.9645294
1536,144.9556091
1537,151.8807678
1538,156.0596344
1539,151.1420898
1540,149.1420685
1541,150.8195068
1542,150.156073
1543,148.2538544
1544,150.5225128
1545,153.3168243
1546,154.7731873
1547,152.8575348
1548,142.8811462
1549,143.270108
1550,153.5888886
1551,157.461496
1552,158.9204468
1553,149.3384644
1554,141.5759643
1555,146.2950973
1556,149.1567764
1557,149.0443512
1558,145.3217422
1559,139.2470917
1560,142.3921204
1561,147.1198914
1562,145.5431152
1563,144.4309906
1564,144.5436875
1565,144.2050934
1566,143.4157715
1567,142.5441193
1568,141.6415008
1569,139.3382202
1570,137.5442719
1571,138.3350006
1572,139.2190414
1573,140.2362976
1574,140.7453201
1575,140.9715103
1576,142.7803574
1577,144.6120773
1578,144.7253067
1579,145.1855942
1580,146.3185577
1581,143.6056366
1582,138.0508224
1583,140.7708786
1584,145.2270325
1585,145.7945221
1586,146.1027374
1587,145.7620392
1588,141.4884674
1589,133.6478241
1590,135.4499619
1591,140.2018127
1592,140.5431122
1593,139.3359283
1594,133.4165298
1595,130.9585724
1596,132.0975983
1597,133.8230911
1598,135.7605713
1599,136.3585831
1600,137.7019073
1601,141.6955688
1602,142.5037598
1603,139.7636261
1604,136.280693
1605,132.5107788
1606,134.0642303
1607,135.1978302
1608,134.2828293
1609,134.232431
1610,135.1479752
1611,136.5618423
1612,138.1649918
1613,138.2
1614,137.3198654
1615,133.5365341
1616,129.6401123
1617,125.6251129
1618,126.5659515
1619,129.2105942
1620,133.9194549
1621,137.4899307
1622,137.8346848
1623,136.7431824
1624,134.3284699
1625,133.5303772
1626,133.4958878
1627,140.4032394
1628,142.630603
1629,134.2216843
1630,132.371666
1631,135.4836594
1632,135.6152328
1633,136.2949493
1634,147.2575073
1635,149.5847778
1636,136.9992401
1637,132.1800659
1638,131.8334671
1639,131.0689331
1640,130.5804504
1641,131.6214707
1642,131.8400726
1643,131.0299149
1644,123.9158417
1645,114.3039688
1646,125.4328476
1647,134.4712906
1648,137.0220352
1649,136.7639755
1650,134.0957123
1651,129.6303818
1652,124.9455749
1653,122.1580048
1654,123.0612824
1655,130.2667679
1656,130.7641052
1657,127.6243759
1658,129.3447204
1659,130.5118118
1660,128.1833344
1661,126.8281265
1662,126.4786484
1663,127.8452789
1664,129.8206665
1665,133.5528442
1666,136.2009064
1667,136.7843979
1668,133.0243362
1669,126.7188278
1670,130.7034104
1671,133.4443527
1672,127.8328263
1673,126.7956345
1674,130.4218903
1675,127.7066589
1676,123.6987839
1677,124.9870422
1678,124.5894348
1679,121.3082962
1680,119.2682312
1681,117.8611938
1682,121.2788056
1683,123.9999985
1684,124
1685,123.0986771
1686,121.4542236
1687,118.9147003
1688,116.4647904
1689,115.5239944
1690,114.6350785
1691,113.8113937
1692,119.2889328
1693,126.5631516
1694,125.7384934
1695,123.2774582
1696,117.7371842
1697,117.8710831
1698,121.0556732
1699,118.27061
1700,115.3244995
1701,112.7265808
1702,114.6782501
1703,120.1134705
1704,119.9736496
1705,119.5660599
1706,121.5771057
1707,120.448053
1708,116.0684906
1709,113.8707016
1710,112.4267883
1711,112.6638
1712,114.0104904
1713,116.8563232
1714,118.476416
1715,119.5307892
1716,118.2249069
1717,117.0062393
1718,115.9371613
1719,116.4950958
1720,117.7919723
1721,113.6295242
1722,111.7145432
1723,114.5704788
1724,114.0770889
1725,111.6957398
1726,112.1717407
1727,114.1412658
1728,119.6248428
1729,119.2812393
1730,115.1064865
1731,114.2470642
1732,114.2193542
1733,115.8912262
1734,110.3361664
1735,99.46257934
1736,106.49077
1737,114.0863404
1738,117.0771179
1739,116.2638352
1740,112.4333801
1741,109.1320251
1742,107.5103134
1743,111.7048172
1744,111.2335846
1745,106.9166901
1746,108.6180923
1747,109.7288117
1748,105.646933
1749,106.6939926
1750,111.9795441
1751,115.46436
1752,116.4483032
1753,109.3524948
1754,110.2793915
1755,117.6200638
1756,115.7095886
1757,112.9232681
1758,110.8750931
1759,110.138092
1760,110.3791962
1761,110.5102142
1762,110.6617111
1763,110.9031006
1764,111.144574
1765,111.3861038
1766,109.1223068
1767,109.9708878
1768,118.918071
1769,114.3865341
1770,102.0466583
1771,112.1208832
1772,116.4206665
1773,107.9421372
1774,108.3978745
1775,112.9329712
1776,110.386409
1777,107.8850326
1778,105.4583084
1779,109.046698
1780,114.0638596
1781,109.9335648
1782,106.2252197
1783,103.0648972
1784,105.2810364
1785,108.0466507
1786,105.6127685
1787,105.7440201
1788,108.4228683
1789,108.2765747
1790,108.8880798
1791,113.8863678
1792,110.1568939
1793,100.0324494
1794,100.6587158
1795,100.7239197
1796,97.7929184
1797,101.6480621
1798,108.5540176
1799,98.52796326
1800,94.87341462
1801,101.235144
1802,100.4924515
1803,98.00612944
1804,99.72092134
1805,103.3475342
1806,108.9851654
1807,108.5411392
1808,106.5459244
1809,102.7421738
1810,100.8350144
1811,100.2211441
1812,99.96277161
1813,100.2978211
1814,101.7728424
1815,102.1126266
1816,101.8029632
1817,99.46476288
1818,101.2526184
1819,107.9019424
1820,108.1771057
1821,106.6696136
1822,103.2177567
1823,99.61932372
1824,95.91872712
1825,97.71145017
1826,98.44208068
1827,96.83660125
1828,100.4484924
1829,104.9394501
1830,100.7355652
1831,96.5304596
1832,92.32409973
1833,92.88365478
1834,93.4460907
1835,92.08360748
1836,96.79641418
1837,104.4408386
1838,99.35651551
1839,97.85398865
1840,101.3282501
1841,96.69212495
1842,92.12949677
1843,95.85629882
1844,97.25437468
1845,97.00577239
1846,98.33632049
1847,97.50231018
1848,92.89781036
1849,88.38607941
1850,85.54872131
1851,91.65374145
1852,94.53717194
1853,94.78650513
1854,96.45181732
1855,95.67621003
1856,90.05966187
1857,90.72587891
1858,93.9103302
1859,99.0336441
1860,98.50685883
1861,93.13046875
1862,94.91348724
1863,97.50621339
1864,100.7608734
1865,97.41681213
1866,92.90979462
1867,95.04034119
1868,94.96625519
1869,93.08525543
1870,87.84917145
1871,86.21147766
1872,91.23336792
1873,98.66847992
1874,103.0824219
1875,89.88446655
1876,77.78455505
1877,66.46537857
1878,83.29060821
1879,92.58419037
1880,90.56952972
1881,91.74321594
1882,91.75558472
1883,85.45237427
1884,88.55024261
1885,96.4
1886,96.39999847
1887,94.37134705
1888,90.07761231
1889,94.3167984
1890,96.6072342
1891,92.05559234
1892,88.14328766
1893,87.0124527
1894,101.0631637
1895,101.9923248
1896,92.74634552
1897,89.48185883
1898,86.57025146
1899,84.03413544
1900,89.06836395
1901,94.54501953
1902,96.70325013
1903,93.87319184
1904,88.63857117
1905,83.17311554
1906,82.34988403
1907,85.6565155
1908,91.64308319
1909,97.11543122
1910,101.5718887
1911,95.03532562
1912,88.76066437
1913,91.05524292
1914,87.75086518
1915,82.94844666
1916,88.05349426
1917,86.74279327
1918,79.97464447
1919,88.01559296
1920,91.69287567
1921,88.49660797
1922,93.94272919
1923,96.04830476
1924,85.55226593
1925,84.34897156
1926,85.23197327
1927,77.79924316
1928,80.00092621
1929,88.34816284
1930,86.93685303
1931,86.3227005
1932,86.57945252
1933,84.59109955
1934,84.50616913
1935,88.10490112
1936,85.37585449
1937,83.68959198
1938,89.60872192
1939,86.01269226
1940,79.38144836
1941,79.25262146
1942,83.24129791
1943,89.58341522
1944,84.16632843
1945,85.44161835
1946,93.70106201
1947,91.04545136
1948,87.13195648
1949,82.35137787
1950,83.01649475
1951,84.69743042
1952,86.37905884
1953,82.82165375
1954,79.44736328
1955,83.59160156
1956,71.39834518
1957,55.06186066
1958,71.00991745
1959,77.42750549
1960,76.7703476
1961,75.8616745
1962,76.10284119
1963,77.53159332
1964,74.25901489
1965,73.22094803
1966,75.69167938
1967,77.13877869
1968,102.1218033
1969,173.4662475
1970,128.6845184
1971,74.45252838
1972,73.14910279
1973,77.09697876
1974,81.46300507
1975,79.76656952
1976,78.59125519
1977,78.15090637
1978,80.76386108
1979,78.40786896
1980,73.32501373
1981,75.02541809
1982,77.65272827
1983,80.9465805
1984,77.6727478
1985,77.53793488
1986,80.68264618
1987,77.89708862
1988,76.65882568
1989,77.70828857
1990,75.40422668
1991,76.55820007
1992,83.6503418
1993,79.59209137
1994,74.53285828
1995,70.85115738
1996,71.71615753
1997,74.15669937
1998,77.97434082
1999,76.6321289
2000,75.92893829
2001,80.93720551
2002,79.53719025
2003,75.27431336
2004,68.67679748
2005,70.38983765
2006,74.24092712
2007,73.44830322
2008,74.65237884
2009,75.64204407
2010,71.27751465
2011,69.53739166
2012,68.98128433
2013,67.52474441
2014,73.86540527
2015,82.57871246
2016,77.80629578
2017,73.27947082
2018,69.86789703
2019,73.98226776
2020,73.90774231
2021,69.0566452
2022,45.80327148
2023,51.52520523
2024,74.06537857
2025,68.2120018
2026,65.64348297
2027,65.35450363
2028,64.82175827
2029,63.4331192
2030,61.86549835
2031,65.06569595
2032,68.34477081
2033,70.92890778
2034,65.32203979
2035,63.07825546
2036,63.16448822
2037,62.76353149
2038,62.28324738
2039,61.78707428
2040,61.65326538
2041,67.72472992
2042,76.11930695
2043,69.8230072
2044,67.72983398
2045,67.58914032
2046,62.62670822
2047,59.78241806
2048,58.1338974
2049,56.25403442
2050,60.50616074
2051,65.89895477
2052,60.38723907
2053,59.41804352
2054,60.37458191
2055,60.23999405
2056,63.60742798
2057,66.75463943
2058,63.79024963
2059,59.53912582
2060,58.93408279
2061,70.67053528
2062,66.35596466
2063,60.18591385
2064,61.53649978
2065,62.8877182
2066,62.83344498
2067,59.85870132
2068,56.08147201
2069,55.44093857
2070,60.44973068
2071,63.77312317
2072,64.59101791
2073,62.15147705
2074,62.76313171
2075,65.83901978
2076,71.53789978
2077,63.6770752
2078,59.02896728
2079,57.53463287
2080,56.03946838
2081,53.84328613
2082,51.44153976
2083,51.84978485
2084,52
2085,51.44414978
2086,48.03815384
2087,49.5587532
2088,54.70181427
2089,64.79526825
2090,60.75436325
2091,54.55722504
2092,53.73788757
2093,52.69087296
2094,50.59144363
2095,46.76343079
2096,45.28573913
2097,46.96480102
2098,52.30286255
2099,49.84524994
2100,49.24309158
2101,50.08581162
2102,45.01268463
2103,46.64155273
2104,51.48055801
2105,49.2842308
2106,49.16736526
2107,49.57649536
2108,48.61448746
2109,32.9066906
2110,26.72358055
2111,49.42574539
2112,48.69139633
2113,46.14266586
2114,46.00491714
2115,48.65815353
2116,47.87669983
2117,44.2693779
2118,48.54699707
2119,48.3362915
2120,45.70882034
2121,45.15623016
2122,50.84968872
2123,55.52852326
2124,50.82606888
2125,50.45630951
2126,50.53752365
2127,49.84518661
2128,42.67721176
2129,40.3661232
2130,43.54792862
2131,46.59950638
2132,44.34826126
2133,40.08279495
2134,42.99903488
2135,44.20314255
2136,45.0770874
2137,46.74543762
2138,43.34560623
2139,42.39673157
2140,46.29404907
2141,46.67096863
2142,44.55606613
2143,40.91325493
2144,42.0287056
2145,46.02985764
2146,48.6024025
2147,41.76236877
2148,39.95258522
2149,38.72353744
2150,36.34772301
2151,41.44559631
2152,47.0406189
2153,51.68595963
2154,45.10614319
2155,45.07454071
2156,48.35937729
2157,50.88221588
2158,47.61048584
2159,42.53100968
2160,36.91822662
2161,42.29493332
2162,43.30504455
2163,40.50814209
2164,45.84952087
2165,45.89806671
2166,43.82391968
2167,43.12029648
2168,42.0661377
2169,42.55143814
2170,45.36918259
2171,49.02509232
2172,47.46278534
2173,42.92902069
2174,43.77580566
2175,42.85792236
2176,43.91798324
2177,50.55878754
2178,44.17515488
2179,40.40741806
2180,40.84240799
2181,41.40856018
2182,43.66210785
2183,44.65585785
2184,39.27121201
2185,40.77685852
2186,40.39819794
2187,35.83789864
2188,37.96708984
2189,40.96171265
2190,42.54543838
2191,36.2926178
2192,38.27110748
2193,40.68996048
2194,40.40541382
2195,43.75151825
2196,43.96926651
2197,42.17549972
2198,42.03298111
2199,44.63041916
2200,46.48661041
2201,45.63051148
2202,42.29575958
2203,38.94877853
2204,36.38678741
2205,37.53022079
2206,37.14438248
2207,37.80315285
2208,41.09430466
2209,47.71315307
2210,46.01917114
2211,39.80116768
2212,42.09461441
2213,43.82999725
2214,46.34762878
2215,50.36577301
2216,45.70197296
2217,42.07997284
2218,40.72034149
2219,45.17667084
2220,42.83395996
2221,40.72226181
2222,41.05051422
2223,42.49051667
2224,46.53800201
2225,48.85115204
2226,42.07536964
2227,43.33541565
2228,49.28337173
2229,56.49052811
2230,41.18266067
2231,42.67824554
2232,46.67516556
2233,42.04861908
2234,47.41243439
2235,48.04165115
2236,44.2247406
2237,38.86609039
2238,44.06840591
2239,47.31841278
2240,44.33974152
2241,42.88896561
2242,41.91881943
2243,41.73136368
2244,42.89331436
2245,41.94412994
2246,41.70942001
2247,42.70112304
2248,45.90198135
2249,45.34786377
2250,44.875531
2251,45.96426849
2252,44.9440628
2253,40.54082565
2254,37.85743522
2255,43.54794388
2256,47.22550812
2257,45.18037491
2258,40.728508
2259,45.8441452
2260,47.98918915
2261,47.49598312
2262,45.09992981
2263,48.90664368
2264,21.80674591
2265,6.086968279
2266,35.10970383
2267,50.73948822
2268,49.32793731
2269,41.8430893
2270,46.68851166
2271,41.41812134
2272,39.73222046
2273,42.53599625
2274,46.80139694
2275,42.69586716
2276,41.20408401
2277,44.36362076
2278,39.79623985
2279,37.62072258
2280,38.82535171
2281,44.01129532
2282,44.45405731
2283,44.50100403
2284,45.2405014
2285,47.90010605
2286,39.74733505
2287,38.74465179
2288,40.83749847
2289,37.87731934
2290,38.80797424
2291,40.80011215
2292,31.49475136
2293,-23.36226807
2294,11.65008831
2295,38.46624069
2296,41.81621933
2297,39.43996506
2298,39.12108612
2299,38.50272827
2300,37.32896042
2301,38.37034988
2302,43.00909271
2303,42.88906402
2304,36.526968
2305,42.189888
2306,44.49583817
2307,44.09977646
2308,41.97164002
2309,47.34568024
2310,49.12682877
2311,47.82481918
2312,43.82854767
2313,40.53880386
2314,40.77613831
2315,38.40563431
2316,30.0386528
2317,35.73064079
2318,36.23489303
2319,37.65629311
2320,43.70482941
2321,36.05254745
2322,38.67311783
2323,41.70971756
2324,38.64009247
2325,44.35151901
2326,43.43247146
2327,42.40538101
2328,45.2188736
2329,41.75606155
2330,43.1991211
2331,44.30408935
2332,41.8966217
2333,37.52302704
2334,39.65241089
2335,40.43356018
2336,36.93791885
2337,40.56361084
2338,36.05080109
2339,33.88703575
2340,37.59341507
2341,40.77129822
2342,40.67124939
2343,39.39795303
2344,38.0977066
2345,38.70404854
2346,36.24660721
2347,38.6899086
2348,54.19751969
2349,100.9652374
2350,71.52462006
2351,47.84782944
2352,39.03363724
2353,39.94624634
2354,41.7186821
2355,40.96802292
2356,39.20893555
2357,38.60000076
2358,38.6
2359,35.34258346
2360,32.86114578
2361,34.54419098
2362,42.63756714
2363,37.6553833
2364,32.18855667
2365,33.50348663
2366,48.49400787
2367,46.79364929
2368,39.32461319
2369,32.9801403
2370,38.34298401
2371,41.18417664
2372,39.95337677
2373,36.78856812
2374,34.79999962
2375,34.8
2376,35.87719879
2377,36.0630558
2378,33.82373543
2379,27.97815361
2380,26.18551788
2381,28.18258934
2382,32.06175995
2383,32.36994362
2384,32.95656777
2385,39.17589721
2386,43.47370224
2387,35.3454628
2388,31.17558784
2389,33.99463539
2390,35.95500717
2391,33.48060532
2392,34.09941063
2393,46.64418106
2394,45.71387482
2395,35.51488609
2396,36.75458984
2397,37.5468544
2398,36.96416092
2399,34.05255852
2400,29.86330376
2401,38.87142334
2402,37.96281815
2403,37.45333176
2404,37.39252624
2405,30.54723053
2406,32.71203003
2407,40.63712006
2408,43.70304184
2409,35.94419861
2410,41.55751267
2411,37.26437225
2412,40.3492897
2413,47.90180206
2414,43.52852325
2415,45.97862167
2416,43.45135803
2417,38.66736755
2418,34.22407188
2419,31.40635261
2420,35.15524216
2421,36.20209122
2422,34.24061661
2423,31.80426712
2424,31.9611599
2425,36.01601181
2426,36.99663544
2427,33.0654335
2428,28.50790024
2429,33.33174515
2430,34.36860771
2431,34.70324059
2432,36.63832245
2433,31.9130436
2434,27.31933174
2435,24.85121002
2436,24.54424973
2437,25.92696762
2438,33.34651794
2439,31.93122406
2440,32.34167862
2441,34.79096604
2442,30.67963142
2443,31.68606682
2444,30.1850769
2445,28.8
2446,28.67924271
2447,28.04531136
2448,29.9140831
2449,31.65867767
2450,30.59851265
2451,28.61598053
2452,43.70556869
2453,40.18002167
2454,32.49653168
2455,29.95557938
2456,36.36208343
2457,30.79031639
2458,32.05033798
2459,31.46359672
2460,28.85773277
2461,27.23418617
2462,36.16895637
2463,34.65046005
2464,29.63708649
2465,26.40277672
2466,28.93357048
2467,32.93122482
2468,30.5357235
2469,25.45547943
2470,23.64243469
2471,29.74570846
2472,29.1046547
2473,29.40252304
2474,34.0452507
2475,42.24810715
2476,48.81969452
2477,28.42081375
2478,30.19189987
2479,32.1069706
2480,32.91167603
2481,35.28944321
2482,32.7137722
2483,38.0578949
2484,31.57867584
2485,26.38838882
2486,32.77448654
2487,30.03173713
2488,31.13009987
2489,25.91755981
2490,26.51262131
2491,37.88795776
2492,46.29623413
2493,37.24344025
2494,38.84064445
2495,60.69304199
2496,78.89808502
2497,39.59653931
2498,30.84056892
2499,28.74373169
2500,28.41915588
2501,27.30275383
2502,24.84561691
2503,25.33314133
2504,29.46869545
2505,34.70048294
2506,36.16094551
2507,31.34641495
2508,25.3202507
2509,29.16608467
2510,27.81886826
2511,28.97549629
2512,32.48474731
2513,29.35000038
2514,32.94307251
2515,29.05980682
2516,29.80702477
2517,30.88120918
2518,26.45872421
2519,29.56871643
2520,31.46754417
2521,30.38393555
2522,27.77183952
2523,26.293153
2524,29.08016434
2525,35.31738625
2526,26.76369247
2527,21.7999752
2528,23.07338219
2529,26.91665459
2530,28.72616425
2531,21.69558601
2532,25.43663025
2533,29.52359924
2534,28.06516342
2535,22.08471718
2536,22.90949745
2537,27.70197372
2538,26.93499451
2539,27.23957291
2540,31.26727562
2541,32.89853974
2542,30.74818459
2543,25.40661697
2544,22.99146843
2545,26.64444427
2546,32.23339958
2547,24.72762298
2548,-7.948517705
2549,10.77356939
2550,25.97941627
2551,28.33881607
2552,28.05165176
2553,29.38152962
2554,24.15148125
2555,28.21657295
2556,29.25606041
2557,25.87767944
2558,22.87042999
2559,24.3706665
2560,24.23647652
2561,26.41645965
2562,24.29146233
2563,25.2376339
2564,34.12913666
2565,31.62185745
2566,26.12906571
2567,22.60414848
2568,19.79209843
2569,22.14161911
2570,28.69955597
2571,23.67779121
2572,27.87038803
2573,19.17551117
2574,23.62243233
2575,29.19177666
2576,25.8847641
2577,26.15815888
2578,25.48550034
2579,26.86870041
2580,22.67720871
2581,29.89888077
2582,39.23011551
2583,23.5442009
2584,24.72458458
2585,38.69863358
2586,28.33329964
2587,21.44267578
2588,21.70300255
2589,20.23859158
2590,24.58435669
2591,36.42703552
2592,27.25522347
2593,23.81447983
2594,19.37242661
2595,13.66516227
2596,21.61503639
2597,25.34721451
2598,25.75824089
2599,23.75123444
2600,21.32689247
2601,19.66054363
2602,19.60684147
2603,22.04722976
2604,18.81340199
2605,21.22196579
2606,23.03218689
2607,28.69123573
2608,31.88868713
2609,24.7216919
2610,25.3869194
2611,23.33780441
2612,13.29728165
2613,20.30576172
2614,25.97759628
2615,25.07182732
2616,30.28416061
2617,19.32572479
2618,26.65154648
2619,26.73326073
2620,27.99555283
2621,26.13284721
2622,18.10966301
2623,11.76514149
2624,29.28728752
2625,25.98452873
2626,23.68723526
2627,22.7704689
2628,12.26140499
2629,11.55930443
2630,38.11368179
2631,17.46939201
2632,30.05756149
2633,25.11064263
2634,23.8912735
2635,23.84854698
2636,25.00068893
2637,28.80236664
2638,27.42763023
2639,19.46948166
2640,21.01949348
2641,19.22933159
2642,18.52475796
2643,18.37376766
2644,21.5348732
2645,32.14137878
2646,23.46303482
2647,19.7796093
2648,20.51525669
2649,18.96068726
2650,20.60350418
2651,24.74623413
2652,26.66089516
2653,27.51780701
2654,17.93538475
2655,23.65406189
2656,22.91536255
2657,21.77309723
2658,19.13578072
2659,18.38049927
2660,24.08571053
2661,25.94462395
2662,22.27201252
2663,15.51916828
2664,14.95952911
2665,14.27788639
2666,12.96285858
2667,15.84995346
2668,22.59977684
2669,19.89190292
2670,28.84485931
2671,24.78694801
2672,27.45223045
2673,25.74442368
2674,18.79237595
2675,14.83043995
2676,17.37919121
2677,16.23479137
2678,13.06298466
2679,12.30877895
2680,22.49424667
2681,21.22488823
2682,11.44958229
2683,7.79613266
2684,13.12230149
2685,16.10024757
2686,21.652137
2687,18.82059555
2688,22.0287075
2689,21.39586372
2690,16.56501884
2691,16.35343628
2692,16.57886314
2693,13.29356499
2694,19.71365624
2695,27.64441566
2696,15.02537174
2697,15.08448296
2698,18.44618435
2699,21.54673576
2700,18.35761566
2701,18.48706074
2702,26.58544769
2703,23.58615532
2704,20.01527157
2705,20.37226486
2706,18.25867901
2707,21.24125976
2708,22.35572281
2709,20.07949981
2710,21.59540596
2711,25.46849442
2712,-14.44698715
2713,-152.8773407
2714,15.44957247
2715,19.67893867
2716,19.02385826
2717,16.10492611
2718,16.62982502
2719,19.97524948
2720,20.35399933
2721,14.72953549
2722,-8.626425168
2723,-83.72068184
2724,9.403957319
2725,15.21053829
2726,16.21735687
2727,13.70543671
2728,11.13276939
2729,17.95681458
2730,25.40667877
2731,20.31436768
2732,12.24531412
2733,14.60385838
2734,10.80305901
2735,12.79035111
2736,33.58847122
2737,33.38193779
2738,20.05057869
2739,15.2168705
2740,16.38631096
2741,17.81680908
2742,20.01227036
2743,12.82465134
2744,6.515999842
2745,15.43177719
2746,12.20629101
2747,14.21129074
2748,18.80333672
2749,17.89425697
2750,17.4768528
2751,21.73631859
2752,26.09097519
2753,23.60816955
2754,24.57504997
2755,57.05666351
2756,16.73691368
2757,23.142556
2758,14.58796101
2759,18.0567461
2760,29.83892708
2761,27.52640533
2762,17.01228695
2763,10.20958595
2764,9.810761548
2765,14.13643808
2766,18.9142334
2767,18.54276085
2768,11.79109897
2769,17.68182907
2770,18.34846878
2771,12.0599823
2772,16.25707207
2773,17.70890388
2774,14.0686924
2775,13.91490974
2776,20.78296242
2777,24.62730064
2778,16.39945431
2779,9.033448838
2780,15.55818939
2781,15.20606403
2782,15.39131718
2783,13.9866991
2784,14.12419643
2785,13.46188183
2786,14.26591244
2787,10.63694401
2788,8.952139473
2789,13.8062767
2790,17.63398419
2791,15.96132527
2792,13.68173981
2793,10.16114502
2794,12.56449852
2795,10.54513721
2796,9.239483072
2797,17.88686542
2798,12.93106041
2799,16.43447494
2800,20.34469566
2801,16.00919437
2802,13.8079689
2803,15.73363094
2804,14.84381409
2805,18.8380415
2806,25.91033669
2807,18.96506252
2808,18.52844677
2809,12.73741665
2810,13.40127401
2811,11.108179
2812,17.49989376
2813,13.85631275
2814,10.55359354
2815,13.11409759
2816,14.57626495
2817,15.59511871
2818,13.33655644
2819,8.41858902
2820,13.08414993
2821,18.24404431
2822,13.4480135
2823,6.493550921
2824,3.156871891
2825,16.26089401
2826,14.32080059
2827,18
2828,17.81413937
2829,14.83783245
2830,20.90707779
2831,15.60127869
2832,14.99999981
2833,23.01996841
2834,21.69038124
2835,17.36692295
2836,14.69206429
2837,10.48774748
2838,11.76878471
2839,15.82436848
2840,14.96212292
2841,10.76685352
2842,12.49855003
2843,17.07020435
2844,13.30303287
2845,18.29408474
2846,17.41557541
2847,12.51786652
2848,13.6580534
2849,17.26873379
2850,12.1313797
2851,8.681855966
2852,16.64914265
2853,16.30489445
2854,8.849248029
2855,15.42252617
2856,14.87371101
2857,23.33245544
2858,17.38609695
2859,11.6839119
2860,15.40665874
2861,-1.355235612
2862,-4.331222355
2863,9.113062668
2864,17.31341744
2865,16.82507591
2866,9.659061433
2867,7.77601223
2868,9.233986664
2869,11.39046078
2870,8.254739189
2871,11.00767918
2872,20.12262878
2873,21.53048439
2874,11.29148884
2875,8.935871602
2876,21.03801269
2877,10.8721776
2878,8.911082077
2879,12.6
2880,12.6
2881,26.40512924
2882,16.54379196
2883,15.24311771
2884,18.14527435
2885,14.90050259
2886,14.03683624
2887,17.95664215
2888,22.83662491
2889,14.92553215
2890,0.555831122
2891,7.511473418
2892,13.21142349
2893,16.34941311
2894,17.8
2895,20.25184326
2896,13.4998991
2897,14.22048893
2898,17.891716
2899,25.78247185
2900,24.81145325
2901,9.50380249
2902,-12.27765732
2903,-11.49245834
2904,17.54456043
2905,21.69183388
2906,10.26487217
2907,11.57858315
2908,15.13607388
2909,19.61066132
2910,18.20892696
2911,9.803365135
2912,14.52650928
2913,12.03284664
2914,11.95269108
2915,17.5818222
2916,13.79932365
2917,19.7668251
2918,33.80603981
2919,16.51979389
2920,20.37514152
2921,19.49203415
2922,9.56715212
2923,7.789330482
2924,9.045183658
2925,11.37974606
2926,11.47333736
2927,9.213533592
2928,8.389303779
2929,11.88172064
2930,15.78252754
2931,12.80380974
2932,15.29115696
2933,8.412780761
2934,6.021439934
2935,9.750749111
2936,12.1732214
2937,14.28966408
2938,9.766466236
2939,20.76287842
2940,8.364933872
2941,7.05156498
2942,14.54736481
2943,12.95343971
2944,16.26224442
2945,14.18135796
2946,11.50838413
2947,13.81837196
2948,18.1851862
2949,16.51664581
2950,10.12995472
2951,10.83185711
2952,4.764005423
2953,8.161990547
2954,17.4841528
2955,21.50168342
2956,15.1141283
2957,9.666165829
2958,-7.238631869
2959,10.52050228
2960,11.43383026
2961,10.57019014
2962,14.16704655
2963,12.44047547
2964,8.757841492
2965,11.29126015
2966,12.22438164
2967,9.000000096
2968,8.452932262
2969,10.44599381
2970,8.699612809
2971,14.04674358
2972,18.01019173
2973,10.53243618
2974,8.124055671
2975,13.66315231
2976,13.77744789
2977,12.24793224
2978,12.74190827
2979,7.664121437
2980,9.887317372
2981,7.584783935
2982,12.27215042
2983,10.04400921
2984,4.68143785
2985,4.408613825
2986,7.268916751
2987,7.284011649
2988,3.831503409
2989,8.515233134
2990,7.682677079
2991,17.28978424
2992,7.824157738
2993,13.03137589
2994,28.28253097
2995,18.59788132
2996,8.702343082
2997,15.21564922
2998,23.09983978
2999,23.76216812
3000,8.305200577
