Frequency,Density
0,568.1428571
1,568.1428571
2,568.1428571
3,568.1428571
4,568.1428571
5,568.1428571
6,568.1428571
7,568.1428571
8,568.1428571
9,568.1428571
10,568.1428571
11,568.1428571
12,568.1428571
13,568.1428571
14,568.1428571
15,568.1428571
16,568.1428571
17,568.1428571
18,568.1428571
19,568.1428571
20,568.1428571
21,568.1428571
22,568.1428571
23,568.1428571
24,568.1428571
25,568.1428571
26,568.1428571
27,568.1428571
28,568.1428571
29,568.1428571
30,568.1428571
31,568.1428571
32,568.1428571
33,568.1428571
34,568.1428571
35,568.1428571
36,568.1428571
37,568.1428571
38,568.1428571
39,568.1428571
40,568.1428571
41,568.1428571
42,568.1428571
43,568.1428571
44,568.1428571
45,568.1428571
46,568.1428571
47,568.1428571
48,568.1428571
49,568.1428571
50,568.1428571
51,568.1428571
52,568.1428571
53,568.1428571
54,568.1428571
55,568.1428571
56,568.1428571
57,568.1428571
58,568.1428571
59,568.1428571
60,568.1428571
61,568.1428571
62,568.1428571
63,568.1428571
64,568.1428571
65,568.1428571
66,568.1428571
67,568.1428571
68,568.1428571
69,568.1428571
70,568.1428571
71,568.1428571
72,568.1428571
73,568.1428571
74,568.1428571
75,568.1428571
76,568.1428571
77,568.1428571
78,568.1428571
79,568.1428571
80,568.1428571
81,568.1428571
82,568.1428571
83,568.1428571
84,568.1428571
85,568.1428571
86,568.1428571
87,568.1428571
88,568.1428571
89,568.1428571
90,568.1428571
91,568.1428571
92,568.1428571
93,568.1428571
94,568.1428571
95,568.1428571
96,568.1428571
97,568.1428571
98,568.1428571
99,568.1428571
100,568.1428571
101,568.1428571
102,568.1428571
103,568.1428571
104,568.1428571
105,568.1428571
106,568.1428571
107,568.1428571
108,568.1428571
109,568.1428571
110,568.1428571
111,568.1428571
112,568.1428571
113,568.1428571
114,568.1428571
115,568.1428571
116,568.1428571
117,568.1428571
118,568.1428571
119,568.1428571
120,568.1428571
121,568.1428571
122,568.1428571
123,568.1428571
124,568.1428571
125,568.1428571
126,568.1428571
127,568.1428571
128,568.1428571
129,568.1428571
130,568.1428571
131,568.1428571
132,568.1428571
133,568.1428571
134,568.1428571
135,568.1428571
136,568.1428571
137,568.1428571
138,568.1428571
139,568.1428571
140,568.1428571
141,568.1428571
142,568.1428571
143,568.1428571
144,568.1428571
145,568.1428571
146,568.1428571
147,568.1428571
148,568.1428571
149,568.1428571
150,568.1428571
151,568.1428571
152,568.1428571
153,568.1428571
154,568.1428571
155,568.1428571
156,568.1428571
157,568.1428571
158,568.1428571
159,568.1428571
160,568.1428571
161,568.1428571
162,568.1428571
163,568.1428571
164,568.1428571
165,568.1428571
166,568.1428571
167,568.1428571
168,568.1428571
169,568.1428571
170,568.1428571
171,568.1428571
172,568.1428571
173,568.1428571
174,568.1428571
175,568.1428571
176,568.1428571
177,568.1428571
178,568.1428571
179,568.1428571
180,568.1428571
181,568.1428571
182,568.1428571
183,568.1428571
184,568.1428571
185,568.1428571
186,568.1428571
187,568.1428571
188,568.1428571
189,568.1428571
190,568.1428571
191,568.1428571
192,568.1428571
193,568.1428571
194,568.1428571
195,568.1428571
196,568.1428571
197,568.1428571
198,568.1428571
199,583.8538121
200,638.8327375
201,693.8116498
202,714.4611685
203,720.604296
204,725.2791182
205,719.3539124
206,713.4286935
207,713.9269801
208,719.855678
209,725.7843671
210,723.0616499
211,720.0123901
212,720.1388071
213,725.2978647
214,730.4569005
215,727.5991603
216,722.8811558
217,720.4221758
218,725.1984995
219,729.9748448
220,735.2709918
221,740.8281381
222,745.8254307
223,745.4918039
224,745.15819
225,744.356345
226,743.1323374
227,741.9083252
228,746.2844892
229,750.9050599
230,751.6616734
231,746.4256679
232,741.189658
233,737.9339556
234,735.0914786
235,733.2209995
236,734.0575388
237,734.8940473
238,733.8491254
239,732.0077123
240,730.4444886
241,730.5561436
242,730.6678074
243,731.0730678
244,731.6875873
245,732.264849
246,731.4822475
247,730.6996547
248,727.8881443
249,722.7983268
250,717.708531
251,720.7752119
252,724.580815
253,724.6947195
254,718.3669608
255,712.0392107
256,710.3559396
257,709.7396109
258,708.5616412
259,705.8145228
260,703.0673872
261,702.6469247
262,703.1518032
263,704.3201033
264,708.7543465
265,713.1885812
266,711.2841274
267,705.5555376
268,700.4252276
269,702.1673105
270,703.9093758
271,702.2338867
272,697.6231036
273,693.0123509
274,700.2945033
275,707.6085423
276,709.946446
277,706.3998456
278,702.8532497
279,703.7640294
280,705.0595878
281,706.8970468
282,709.6023821
283,712.3077218
284,712.5226048
285,712.2970145
286,711.3747603
287,708.9483642
288,706.5219901
289,711.3620955
290,718.1938913
291,722.854065
292,721.1592451
293,719.4644078
294,721.7495597
295,725.5369132
296,727.8069196
297,723.9607849
298,720.1146459
299,721.142565
300,724.5382298
301,727.723502
302,729.7054661
303,731.6874389
304,732.0738438
305,731.5072414
306,731.392103
307,735.1339024
308,738.8757237
309,739.3334438
310,737.4614258
311,735.5136153
312,732.5053013
313,729.4969439
314,725.0510646
315,719.4284014
316,714.0529959
317,715.5873587
318,717.1217084
319,718.39008
320,719.4135699
321,720.4124843
322,718.4780665
323,716.5436271
324,716.874006
325,719.4927193
326,722.1114328
327,716.8527048
328,711.4982823
329,709.2341483
330,710.3170559
331,711.3999721
332,711.039917
333,710.6407034
334,712.2468784
335,716.1271537
336,720.0074071
337,716.1203396
338,711.9522879
339,708.3386622
340,705.3679112
341,702.3971557
342,699.0395683
343,695.6669225
344,696.6931893
345,702.8132934
346,708.933402
347,706.1581421
348,703.0676618
349,703.4724513
350,707.8245806
351,712.1767056
352,710.0511736
353,707.7592425
354,706.820003
355,707.3360028
356,707.8519723
357,701.666761
358,695.4138445
359,692.6873081
360,693.4909014
361,694.3145839
362,696.9565429
363,699.5984846
364,702.7527727
365,706.3732343
366,709.677137
367,704.9045149
368,700.131884
369,697.3314646
370,696.1232344
371,695.2066084
372,698.1426435
373,701.0786699
374,701.6072824
375,700.4552089
376,700.476484
377,710.101907
378,719.7273254
379,717.4695522
380,708.2421569
381,699.9334498
382,696.7019566
383,693.4704503
384,690.707162
385,688.1666259
386,685.943076
387,684.9609331
388,683.9787815
389,683.840999
390,684.0144261
391,684.7130824
392,686.9110675
393,689.1090437
394,690.7139413
395,692.1608363
396,692.4730486
397,690.3883056
398,688.3035366
399,692.9011797
400,698.6376517
401,700.8574568
402,697.5526864
403,694.2479596
404,695.5024763
405,697.1268179
406,698.0536892
407,698.1697736
408,698.2971453
409,706.6607797
410,715.0244097
411,721.1239275
412,725.3082319
413,729.0893947
414,728.449755
415,727.8101196
416,725.6384277
417,722.5546962
418,719.8102243
419,718.7040841
420,717.5979439
421,707.2932041
422,693.3708758
423,685.864951
424,696.1234262
425,706.3819056
426,705.7683192
427,702.6773071
428,699.3939558
429,695.7759008
430,692.1578544
431,691.9641985
432,692.0809936
433,692.5550013
434,693.4313659
435,694.3062744
436,695.1246992
437,695.943137
438,694.5172424
439,691.4755815
440,689.1096017
441,690.923972
442,692.7383423
443,691.240958
444,688.3128357
445,687.2352557
446,691.4542368
447,695.6732353
448,694.0699507
449,691.1969954
450,687.0603115
451,680.9003383
452,674.7403565
453,672.8681292
454,671.2245004
455,674.1545977
456,681.3790893
457,687.4255109
458,680.5493774
459,673.6732265
460,670.9786159
461,670.5081787
462,669.7747149
463,668.1271973
464,666.4796796
465,667.3138079
466,668.785675
467,668.801069
468,666.3268869
469,663.8526873
470,664.2151097
471,664.7456055
472,665.3376596
473,665.986424
474,666.704847
475,668.062173
476,669.4194772
477,667.2965872
478,663.5174561
479,659.7377755
480,655.9564165
481,652.1750575
482,654.9000637
483,658.8610055
484,659.7887573
485,656.5944737
486,653.4574934
487,656.7128732
488,659.9682268
489,660.8273969
490,660.0574908
491,660.1338806
492,663.9856872
493,667.8374765
494,665.3253784
495,660.9376744
496,657.47515
497,655.635982
498,653.7968096
499,655.4152919
500,657.1961931
501,659.1732047
502,661.311554
503,660.3180193
504,640.6454773
505,620.9729135
506,627.6942662
507,643.6913801
508,655.2503531
509,658.10655
510,660.9627293
511,658.5767822
512,655.8379865
513,656.7170585
514,660.7085353
515,664.3924778
516,666.1807818
517,667.9690508
518,666.9217311
519,664.8938206
520,663.6960101
521,664.0540858
522,664.4121617
523,667.7334159
524,671.1968994
525,672.0763898
526,670.9411272
527,668.9163034
528,662.5789838
529,656.2416643
530,662.7114781
531,672.7614702
532,676.7846113
533,671.5172293
534,666.3175311
535,670.9891139
536,675.6607012
537,674.0761457
538,668.6826695
539,664.5714199
540,664.5714373
541,664.5714286
542,667.4965166
543,670.9164429
544,671.091265
545,667.6693333
546,664.7420698
547,666.5441502
548,668.3462394
549,667.8666556
550,666.4842443
551,664.9994071
552,663.3154733
553,661.6315395
554,660.6429792
555,659.6801627
556,658.3615679
557,656.7960641
558,655.1516506
559,653.2237418
560,651.2958287
561,651.9696263
562,653.1149946
563,653.1103559
564,651.8436671
565,650.5180097
566,648.7073931
567,646.896759
568,649.7418954
569,654.21075
570,654.7743487
571,648.8526175
572,643.025395
573,645.2020177
574,647.3786229
575,646.4941014
576,643.9532252
577,642.1080497
578,641.9869821
579,641.8659058
580,644.216653
581,646.7605416
582,645.8228411
583,642.2471619
584,639.2873361
585,638.6202916
586,637.9532471
587,635.6239363
588,633.0148577
589,634.6069118
590,640.3745858
591,644.9970224
592,643.0530831
593,641.109144
594,638.4376875
595,635.5808411
596,631.9625941
597,627.4010794
598,623.3809422
599,624.3546535
600,625.328343
601,625.7085004
602,625.8911787
603,626.985308
604,629.4224418
605,631.6852025
606,631.1974923
607,630.7097691
608,627.6874738
609,623.6614467
610,622.6511841
611,626.6796047
612,630.7205156
613,635.117763
614,639.5150059
615,634.7858102
616,626.0472455
617,623.8996059
618,633.6216736
619,643.0050615
620,636.3363124
621,629.6675546
622,628.6627895
623,630.2544469
624,630.1427089
625,626.8962446
626,623.7276742
627,624.4018685
628,625.0760542
629,625.0321917
630,624.6642325
631,625.0904803
632,626.9313616
633,628.8727809
634,633.9075012
635,638.9422084
636,640.8182547
637,641.3711722
638,639.7549351
639,634.5913261
640,629.8474295
641,632.2462333
642,634.6450544
643,634.9699664
644,634.5391497
645,630.5078735
646,621.3322972
647,613.4813494
648,618.7188372
649,623.9563119
650,623.7599662
651,621.9719849
652,624.8007769
653,633.1289978
654,639.9557626
655,637.6101379
656,635.2645133
657,634.3978184
658,633.841932
659,633.634892
660,633.7584795
661,632.9962507
662,628.729514
663,624.4627729
664,622.896746
665,621.6592756
666,621.9364842
667,623.2985055
668,624.8653085
669,626.9715053
670,629.0777021
671,623.0161394
672,616.6938171
673,616.3842381
674,619.1131199
675,621.0139204
676,621.4483207
677,621.7694048
678,620.2791617
679,618.7889012
680,619.4649484
681,620.831822
682,621.7996608
683,622.2970014
684,623.1548287
685,625.8918152
686,628.6287972
687,625.3416312
688,621.1092398
689,620.8807678
690,623.6832711
691,624.0846122
692,618.1646816
693,612.2447771
694,613.9812055
695,615.8517587
696,613.5806405
697,609.4629822
698,606.5233808
699,605.3372716
700,604.1581944
701,603.0338614
702,601.9095372
703,600.1132551
704,598.1757638
705,602.356999
706,611.7375227
707,618.5058332
708,617.6923872
709,616.8789063
710,607.1684221
711,597.2132699
712,596.0492031
713,598.8057251
714,601.5371268
715,604.2325963
716,607.0444467
717,610.6196333
718,614.1948024
719,610.9594421
720,606.5662667
721,605.2954669
722,606.3002232
723,605.4551609
724,600.3655962
725,595.5453971
726,599.4434291
727,603.3414394
728,602.4266052
729,599.9731663
730,598.8062308
731,598.9950649
732,599.9232221
733,603.5132577
734,607.1033107
735,602.5600499
736,597.5814209
737,597.4199219
738,599.5008371
739,601.1614162
740,602.234048
741,602.467926
742,598.0486232
743,593.6293422
744,594.7169233
745,596.4856829
746,597.4209246
747,597.8633728
748,597.909899
749,597.277444
750,597.7750026
751,607.4572449
752,617.1395002
753,612.5283857
754,605.4365103
755,599.8526045
756,595.2908456
757,594.0595921
758,599.2580174
759,603.8551854
760,602.2059283
761,600.5566755
762,605.1656669
763,611.0049787
764,610.2708915
765,604.8726806
766,600.5821054
767,598.4850943
768,596.5602984
769,596.4331403
770,596.3059823
771,594.2532872
772,591.8356846
773,591.0845032
774,591.4664612
775,593.7049778
776,599.374006
777,603.7377712
778,597.3642883
779,590.9908142
780,593.0731114
781,596.4530596
782,599.0742624
783,601.243818
784,599.9697658
785,593.2656948
786,587.8023856
787,589.335641
788,590.8689139
789,588.8954991
790,586.5942296
791,586.1614685
792,586.6092093
793,589.3988865
794,595.0948748
795,598.6665911
796,594.4400896
797,590.2135838
798,586.2366333
799,582.2639378
800,585.4418204
801,590.9556318
802,594.1446272
803,595.2352208
804,594.0824105
805,587.663426
806,582.0151847
807,586.1257847
808,590.2363935
809,587.6380266
810,583.8463135
811,582.1870161
812,581.8011867
813,581.5714286
814,581.5714286
815,581.7019261
816,582.4101083
817,583.1182992
818,583.0806667
819,583.0162441
820,578.6143188
821,572.7487183
822,573.4957406
823,580.0742754
824,583.9384809
825,581.9379229
826,580.6469073
827,585.5543823
828,590.4618617
829,583.7517875
830,575.6108791
831,574.5370353
832,576.7997436
833,577.0280413
834,574.9580558
835,573.3271615
836,572.9388166
837,572.5049831
838,571.2744751
839,570.0439453
840,571.28622
841,572.9710911
842,574.4478978
843,575.809566
844,574.6566467
845,570.3097273
846,567.8674229
847,571.5028251
848,575.1506653
849,579.1130109
850,583.0753566
851,579.7347107
852,574.9900687
853,570.9937308
854,567.4168876
855,566.4400679
856,568.7175947
857,571.0602461
858,573.5995658
859,575.8610142
860,573.3201861
861,570.7793405
862,573.7998788
863,577.711186
864,575.9823521
865,571.4816807
866,570.2714408
867,572.6209978
868,572.820003
869,567.7915649
870,563.5030256
871,565.5940072
872,567.6850063
873,566.1171614
874,564.2210781
875,563.6184213
876,563.4875793
877,562.5659877
878,560.9949603
879,560.9126718
880,563.4016244
881,565.2704293
882,564.4184309
883,563.5763986
884,564.4289028
885,565.2814026
886,560.3255048
887,554.1576538
888,558.1042393
889,567.4928284
890,568.6273891
891,560.6127973
892,555.984933
893,559.2715498
894,561.8187125
895,559.2536272
896,556.688542
897,558.4556143
898,560.4299273
899,558.8963187
900,556.3940212
901,555.4285758
902,555.4285714
903,555.7814287
904,556.5725664
905,555.9090794
906,551.4892883
907,547.8038025
908,549.849993
909,551.8961966
910,555.0093602
911,558.179548
912,556.9346226
913,554.4894976
914,557.1642412
915,562.9170184
916,565.9692906
917,565.9031285
918,563.2731846
919,554.7992554
920,547.3668649
921,545.9757821
922,544.5847037
923,550.5454625
924,556.5770656
925,553.8051017
926,549.2952881
927,548.8514927
928,550.3114232
929,550.4737723
930,549.4777658
931,549.2828064
932,550.4122663
933,552.0692923
934,555.526171
935,557.9644034
936,548.3192967
937,538.6742031
938,544.623849
939,551.7455096
940,546.5004883
941,537.8428781
942,535.5228533
943,536.7889448
944,537.2636152
945,536.9302324
946,537.4898333
947,539.6914499
948,541.2595738
949,540.4584961
950,539.4535304
951,535.7798026
952,532.106066
953,537.4024048
954,543.3507167
955,540.7977382
956,536.0496303
957,532.7980216
958,530.3221915
959,529.8440813
960,531.1831665
961,531.6864668
962,530.8825335
963,529.5258833
964,526.5763899
965,523.7030553
966,521.3554775
967,519.007904
968,520.4715315
969,521.9480111
970,519.5197231
971,516.4978158
972,519.2978036
973,524.135716
974,529.0167193
975,533.9247437
976,533.9240853
977,528.8113316
978,523.0810067
979,516.2823835
980,512.7207685
981,519.1866717
982,524.1441563
983,518.348332
984,512.5672477
985,511.2860195
986,510.0047825
987,512.9614476
988,516.4700666
989,517.0266157
990,516.6890564
991,516.3073425
992,515.9020211
993,515.7142857
994,515.714277
995,514.6262033
996,512.0561305
997,511.4859488
998,515.3433794
999,518.7132525
1000,520.1352496
1001,520.619254
1002,511.675633
1003,502.7320295
1004,508.8963013
1005,515.3368269
1006,518.576028
1007,521.357278
1008,517.9291861
1009,512.634892
1010,511.9849069
1011,513.6827959
1012,515.6861398
1013,517.9286848
1014,516.2117397
1015,509.8200727
1016,505.9576111
1017,506.6379874
1018,507.300899
1019,507.9136004
1020,509.0804487
1021,513.1675415
1022,517.2760053
1023,521.7063075
1024,526.1366185
1025,518.7067653
1026,510.8638742
1027,509.3813041
1028,508.8353882
1029,505.3668475
1030,501.0651943
1031,502.2449951
1032,505.9343305
1033,507.8353141
1034,508.5189253
1035,510.2741045
1036,513.0785915
1037,513.1454642
1038,509.3811079
1039,506.5186593
1040,505.4914028
1041,505.4484514
1042,508.463514
1043,510.4558367
1044,507.0275879
1045,503.7436523
1046,502.2343227
1047,500.724993
1048,500.441646
1049,500.1670619
1050,512.1056693
1051,525.2249451
1052,513.4184919
1053,496.5800868
1054,495.6928406
1055,500.0252991
1056,501.7542158
1057,502.2359009
1058,501.6849932
1059,500.4456918
1060,499.3506819
1061,498.3861956
1062,497.8571341
1063,497.8571429
1064,497.2035305
1065,495.4791739
1066,494.0519932
1067,493.2928205
1068,494.1108398
1069,499.9805865
1070,504.401171
1071,501.7063991
1072,498.9692688
1073,495.8580409
1074,492.6707546
1075,487.4131295
1076,482.1555176
1077,483.8136597
1078,485.6826128
1079,488.9968175
1080,492.4598912
1081,488.72995
1082,483.6708592
1083,489.1386021
1084,497.5291966
1085,495.6458566
1086,489.8175049
1087,485.4612514
1088,481.8510873
1089,482.1123788
1090,484.8910828
1091,485.64631
1092,484.7426889
1093,482.15431
1094,477.8421936
1095,475.8575308
1096,476.8318089
1097,479.0744324
1098,483.3220477
1099,486.5173122
1100,487.632115
1101,486.8359767
1102,481.2586888
1103,478.2204154
1104,483.3824594
1105,487.0056588
1106,484.0043117
1107,480.4777919
1108,473.7731193
1109,468.2124198
1110,473.3836801
1111,478.1655796
1112,475.8581063
1113,473.582149
1114,474.7715498
1115,475.9609593
1116,478.9114772
1117,481.9217616
1118,475.3279768
1119,467.9729048
1120,470.8114755
1121,474.9467904
1122,469.5580706
1123,462.4747663
1124,471.1140616
1125,483.3944135
1126,477.8588126
1127,467.1861093
1128,466.4606498
1129,469.2006574
1130,469.8008379
1131,469.5196446
1132,469.8565979
1133,470.489672
1134,468.3075518
1135,464.577288
1136,465.6134164
1137,469.6276027
1138,471.9061018
1139,472.9630911
1140,473.1523612
1141,472.6588135
1142,471.6381574
1143,470.1566075
1144,470.9005912
1145,473.7948565
1146,471.620963
1147,464.0631496
1148,463.4313965
1149,470.8523734
1150,472.3173785
1151,466.2356306
1152,462.2078683
1153,461.0049395
1154,463.1896144
1155,470.4114249
1156,472.1066197
1157,464.9513637
1158,460.6111276
1159,461.107339
1160,461.1034415
1161,460.1813703
1162,458.8026515
1163,456.5315944
1164,456.9191415
1165,462.8132237
1166,465.1843262
1167,459.855181
1168,455.7977295
1169,454.6601781
1170,454.5684378
1171,456.9871957
1172,460.0373535
1173,464.6641889
1174,466.5293536
1175,461.2587455
1176,455.8119856
1177,449.8968506
1178,446.4338423
1179,449.6427482
1180,452.7764195
1181,455.7018345
1182,458.1766445
1183,459.390346
1184,459.1990095
1185,455.0556946
1186,451.9624765
1187,451.8195147
1188,451.166905
1189,449.0927822
1190,448.1245292
1191,450.1998814
1192,451.2497733
1193,449.531202
1194,448.7196176
1195,450.2959028
1196,450.6215297
1197,447.7538583
1198,444.8442644
1199,441.8314253
1200,439.9490226
1201,440.7385646
1202,441.8810512
1203,443.820186
1204,444.8230199
1205,443.8169468
1206,444.2106018
1207,447.446337
1208,447.7933393
1209,442.6130807
1210,440.4187186
1211,443.5863211
1212,443.6890913
1213,438.6467285
1214,435.0934361
1215,433.8681205
1216,434.6732657
1217,438.4234793
1218,438.9682225
1219,435.2157811
1220,432.4965101
1221,431.0524031
1222,431.0652117
1223,432.7269178
1224,432.7537428
1225,431.0910492
1226,430.8451974
1227,431.9302107
1228,435.0504891
1229,439.8997628
1230,439.4546029
1231,434.9645582
1232,435.4252319
1233,439.2657863
1234,441.3013698
1235,442.2439532
1236,438.7839268
1237,432.9799652
1238,432.3832354
1239,434.1980504
1240,431.4399065
1241,426.8638436
1242,432.5169394
1243,441.601811
1244,436.8506165
1245,428.2693939
1246,426.1780744
1247,425.5231846
1248,427.6087145
1249,430.157026
1250,429.5173318
1251,428.4973907
1252,426.8651079
1253,425.1885136
1254,427.9809592
1255,430.8105774
1256,427.5263716
1257,424.4824502
1258,425.4317801
1259,426.1241695
1260,424.5166561
1261,423.7168841
1262,427.6649606
1263,430.4789799
1264,428.5037602
1265,426.7379303
1266,425.6399296
1267,424.100211
1268,421.4634617
1269,421.0217721
1270,424.9059601
1271,428.4786137
1272,431.558476
1273,431.6100289
1274,427.7945992
1275,425.6403242
1276,425.1998138
1277,425.0401393
1278,425.1135995
1279,423.7275151
1280,421.3753575
1281,420.474605
1282,420.3275059
1283,418.968665
1284,417.1288605
1285,415.4022892
1286,413.7086726
1287,415.9498487
1288,418.9707184
1289,420.60643
1290,422.080913
1291,420.2348175
1292,418.1814728
1293,413.3099278
1294,409.5999385
1295,418.2409908
1296,424.9885777
1297,421.1458239
1298,418.5306833
1299,420.3053197
1300,419.620939
1301,412.8141392
1302,407.1908918
1303,403.7114345
1304,402.9450226
1305,405.833943
1306,408.2812609
1307,410.2824794
1308,409.7476785
1309,407.3002886
1310,408.2918374
1311,411.1859131
1312,411.5730831
1313,410.9790693
1314,404.5982797
1315,396.7229593
1316,398.8255659
1317,402.3938664
1318,402.005964
1319,401.3489859
1320,398.6695687
1321,396.1214164
1322,394.6319733
1323,393.4428885
1324,393.5173994
1325,393.1409411
1326,391.5751473
1327,392.7138563
1328,398.6822793
1329,397.723186
1330,388.0933729
1331,386.8202275
1332,392.9451316
1333,395.4242467
1334,395.6484637
1335,394.2878963
1336,392.2687574
1337,392.0358603
1338,392.2603498
1339,392.8169992
1340,393.415972
1341,391.0816738
1342,390.1754739
1343,408.4659402
1344,420.6329346
1345,402.1065717
1346,391.2764631
1347,402.158735
1348,404.031917
1349,389.7639248
1350,384.9456962
1351,391.4076843
1352,392.8679635
1353,390.3117
1354,386.7204328
1355,382.5828574
1356,380.7183293
1357,379.5892356
1358,380.1391819
1359,380.9676841
1360,381.2172677
1361,381.1622424
1362,377.0902274
1363,373.752982
1364,373.9793331
1365,375.5051466
1366,380.4124778
1367,382.6133902
1368,380.4982191
1369,378.0087825
1370,375.1364659
1371,374.5941903
1372,375.5774122
1373,377.5898329
1374,380.0115117
1375,375.9782322
1376,370.6019549
1377,372.2110944
1378,373.9950561
1379,371.3416443
1380,370.0526842
1381,375.3626883
1382,379.4271393
1383,380.4138641
1384,379.3041709
1385,375.1270686
1386,372.6641235
1387,371.7522103
1388,372.8020216
1389,374.9310673
1390,373.3296095
1391,370.5906416
1392,369.0679583
1393,367.7540327
1394,371.0294909
1395,373.7841949
1396,373.2506692
1397,371.4563075
1398,366.1178349
1399,364.163947
1400,367.5215541
1401,367.2475848
1402,363.5825631
1403,362.3350787
1404,362.411475
1405,365.27708
1406,368.9464591
1407,366.4395512
1408,363.4132996
1409,363.03062
1410,362.7408404
1411,362.8940037
1412,362.669645
1413,361.5968628
1414,361.8503592
1415,363.7671814
1416,364.4823652
1417,364.3289403
1418,358.9370291
1419,351.4909341
1420,354.379606
1421,358.9881788
1422,355.0904454
1423,352.2260655
1424,355.9172995
1425,358.7443804
1426,359.3599505
1427,360.3350939
1428,361.7979409
1429,361.4205518
1430,359.6486729
1431,359.2530191
1432,359.4071852
1433,358.4321551
1434,357.3221414
1435,361.3352552
1436,363.7626059
1437,357.7393581
1438,352.8574241
1439,350.5394113
1440,351.2381003
1441,355.4902954
1442,355.5348489
1443,352.90465
1444,352.8776136
1445,353.6516658
1446,354.9956076
1447,356.4822715
1448,359.1171635
1449,359.5472695
1450,352.6459656
1451,349.9071023
1452,353.7089517
1453,353.7703029
1454,350.7425472
1455,350.1869289
1456,350.653013
1457,348.7565177
1458,346.6809365
1459,350.25851
1460,352.3436693
1461,348.2192448
1462,344.6236071
1463,341.9761745
1464,342.3045262
1465,345.3430873
1466,343.9196647
1467,340.489515
1468,341.8055616
1469,343.9076625
1470,345.8589347
1471,347.1841845
1472,345.9346335
1473,344.656178
1474,343.3277392
1475,340.9888938
1476,337.7831159
1477,335.6331046
1478,333.9119045
1479,335.0308838
1480,336.3907841
1481,335.7641558
1482,335.6934836
1483,337.4177508
1484,338.785505
1485,339.6481498
1486,338.6990313
1487,336.5019052
1488,336.9692666
1489,338.2255162
1490,334.2466583
1491,331.1809126
1492,335.7401995
1493,337.6627546
1494,333.8873138
1495,333.141425
1496,335.4237867
1497,335.1180333
1498,333.6218087
1499,333.908905
1500,334.4650465
1501,335.0957881
1502,334.8342852
1503,331.8365108
1504,329.8337969
1505,329.1233848
1506,331.4250597
1507,335.5321524
1508,333.6400212
1509,330.4299752
1510,330.5881239
1511,331.0024087
1512,332.4266292
1513,332.6574162
1514,331.0740138
1515,332.6340877
1516,336.3572976
1517,334.4536285
1518,331.0452794
1519,328.2609798
1520,325.411183
1521,322.2368447
1522,320.2551226
1523,320.1757093
1524,323.589713
1525,329.4691947
1526,326.9544438
1527,322.1844722
1528,324.3507364
1529,326.5160937
1530,328.4263502
1531,329.7309331
1532,330.1291417
1533,327.6261924
1534,323.2433276
1535,322.7531346
1536,323.1410631
1537,323.0612815
1538,322.278013
1539,319.1646336
1540,319.0187269
1541,322.613218
1542,325.4773865
1543,327.9550563
1544,322.3952331
1545,316.2391401
1546,317.4394401
1547,317.3883275
1548,314.3457772
1549,313.9618988
1550,316.1249978
1551,314.9062413
1552,312.4212167
1553,313.9541103
1554,315.9432417
1555,319.0732814
1556,319.7650975
1557,316.5529
1558,312.7070465
1559,308.4483577
1560,310.642116
1561,313.8896506
1562,311.7175576
1563,309.567252
1564,307.4743674
1565,308.5239955
1566,312.7122497
1567,310.8119856
1568,306.6212485
1569,305.5053929
1570,304.9939968
1571,306.5270429
1572,306.2645613
1573,303.4388559
1574,304.4526629
1575,307.6031756
1576,307.1522064
1577,306.156311
1578,304.9431327
1579,304.858963
1580,306.963041
1581,304.9235404
1582,299.8221806
1583,298.2001931
1584,297.6062186
1585,301.3354339
1586,303.6526228
1587,302.4358542
1588,303.7724566
1589,307.4249289
1590,303.0094103
1591,296.1527841
1592,298.0218092
1593,298.9056876
1594,296.7916129
1595,296.113266
1596,296.9268515
1597,298.6377019
1598,300.672869
1599,297.2031948
1600,294.7046662
1601,295.9272112
1602,299.3490862
1603,305.2208056
1604,302.1483808
1605,295.6203962
1606,293.7643411
1607,292.7534834
1608,294.2240252
1609,295.8494154
1610,297.6477988
1611,297.6686423
1612,297.0142931
1613,295.3188542
1614,293.352284
1615,290.5680128
1616,290.8227561
1617,294.2641907
1618,292.7617427
1619,289.5695801
1620,288.7492218
1621,288.2070945
1622,288.4533451
1623,286.6049783
1624,282.8268585
1625,286.2369297
1626,291.3228956
1627,288.8559875
1628,288.6261706
1629,293.4806322
1630,294.7746451
1631,293.375072
1632,290.4632241
1633,287.9995357
1634,292.2856402
1635,292.6409803
1636,286.2079969
1637,282.7050934
1638,280.8895918
1639,278.1779327
1640,277.3179321
1641,285.7452305
1642,287.9678497
1643,282.4289965
1644,278.8428432
1645,276.0304239
1646,280.2573482
1647,283.5157471
1648,283.8470132
1649,283.4648416
1650,282.4704503
1651,280.3954184
1652,278.2478507
1653,277.8330361
1654,276.8355887
1655,274.8432879
1656,273.7658452
1657,273.184409
1658,276.8470829
1659,278.9015786
1660,273.6625017
1661,272.0230517
1662,274.103278
1663,275.1521192
1664,276.0246102
1665,278.8570709
1666,279.1931566
1667,274.7752424
1668,273.0902732
1669,273.0068621
1670,275.0678907
1671,276.1004726
1672,272.4262608
1673,270.0749381
1674,269.0722918
1675,267.0842111
1676,265.48109
1677,271.7550703
1678,274.6643045
1679,271.8184182
1680,266.5865282
1681,260.1376234
1682,265.2276459
1683,268.6051396
1684,265.3349413
1685,261.6958095
1686,257.7524741
1687,254.5878666
1688,252.8812779
1689,259.0132642
1690,261.0508074
1691,257.9409681
1692,257.4554378
1693,257.8496225
1694,257.6813245
1695,256.3442754
1696,252.8079311
1697,254.4753265
1698,258.9404929
1699,258.3380803
1700,257.1440626
1701,254.9510127
1702,254.5257873
1703,255.4541626
1704,251.4396885
1705,248.432748
1706,253.1646184
1707,254.7405635
1708,253.0496129
1709,252.9177508
1710,252.9132407
1711,250.8817008
1712,249.0658068
1713,247.5412554
1714,251.1493334
1715,256.1104366
1716,252.803336
1717,250.6830335
1718,250.598186
1719,250.7457951
1720,250.9927891
1721,247.2550812
1722,244.7687247
1723,244.9387185
1724,247.2299783
1725,250.7169538
1726,248.733538
1727,246.712071
1728,245.1793954
1729,247.1929932
1730,251.5381426
1731,247.8286133
1732,244.4216592
1733,243.8245588
1734,244.7022618
1735,246.6653137
1736,244.3143311
1737,242.3977836
1738,243.508643
1739,244.8582873
1740,246.3972996
1741,245.0539812
1742,243.9557975
1743,245.0686231
1744,244.6793257
1745,243.0519322
1746,245.422287
1747,246.3416203
1748,239.91008
1749,239.771844
1750,244.8343004
1751,246.337895
1752,245.9969264
1753,240.7566834
1754,237.7598179
1755,236.5564292
1756,237.9659468
1757,239.2456534
1758,239.0735387
1759,238.3095463
1760,237.1040257
1761,238.180869
1762,239.5395704
1763,241.0913587
1764,241.4044865
1765,240.8869193
1766,238.7421417
1767,237.6391667
1768,239.3664245
1769,236.9358935
1770,232.0967342
1771,233.9489376
1772,235.540959
1773,236.3196019
1774,234.404371
1775,231.3427168
1776,233.5081569
1777,235.5760411
1778,237.4827598
1779,234.2714975
1780,229.2960183
1781,225.9119568
1782,228.041251
1783,237.3312073
1784,235.5129329
1785,231.2392774
1786,229.9354117
1787,228.5002463
1788,226.934688
1789,235.3882032
1790,240.5181231
1791,227.8047093
1792,225.6970912
1793,231.3605063
1794,231.5508161
1795,230.6985059
1796,228.2560032
1797,225.6394087
1798,222.9635729
1799,221.4788796
1800,221.8964735
1801,225.3045458
1802,225.6154153
1803,224.7160448
1804,222.3538317
1805,220.0336042
1806,217.7575389
1807,220.0512031
1808,221.4642923
1809,217.1697388
1810,216.0021188
1811,216.9667729
1812,217.4236243
1813,217.1512735
1814,215.4830943
1815,215.1248169
1816,215.6338599
1817,219.7652664
1818,219.6176638
1819,214.4283785
1820,213.5714253
1821,213.1242501
1822,211.0108708
1823,214.7638114
1824,222.6055559
1825,218.6758401
1826,215.1827349
1827,213.2420469
1828,213.6782118
1829,214.5088283
1830,211.3294187
1831,211.3664387
1832,214.7244568
1833,215.4524743
1834,214.8639832
1835,211.5904824
1836,208.8296759
1837,206.5034376
1838,208.8950195
1839,208.6536865
1840,204.7540011
1841,206.7898516
1842,209.2240524
1843,207.4493822
1844,206.8703112
1845,207.1366686
1846,209.7460785
1847,210.1176104
1848,206.5620139
1849,210.8622611
1850,215.2299423
1851,206.5974742
1852,204.1350043
1853,206.7173636
1854,203.5703605
1855,201.5605425
1856,202.3629041
1857,204.5520597
1858,207.401644
1859,211.3289272
1860,210.8360334
1861,206.5492129
1862,204.1051363
1863,204.0909544
1864,208.561639
1865,208.2534921
1866,206.2980805
1867,204.4181824
1868,202.5869119
1869,200.795481
1870,200.9709702
1871,200.8840768
1872,200.1666587
1873,200.9643816
1874,201.7004525
1875,199.9945907
1876,197.2905797
1877,193.8768583
1878,197.0743997
1879,199.6555612
1880,201.2744838
1881,198.1175657
1882,196.1571165
1883,201.8300084
1884,202.4095655
1885,200.0540706
1886,195.9972501
1887,193.473574
1888,192.6617334
1889,192.8120826
1890,194.243539
1891,198.3075093
1892,196.6802499
1893,194.5422843
1894,202.3180913
1895,201.0773152
1896,192.8445914
1897,195.3869803
1898,195.71281
1899,192.5426647
1900,191.4741974
1901,191.8014984
1902,194.9753636
1903,195.3241316
1904,194.7736348
1905,198.1328027
1906,197.8874817
1907,194.4355055
1908,194.8943667
1909,194.3754839
1910,192.0108337
1911,192.1641606
1912,192.8255255
1913,193.2808053
1914,191.397849
1915,188.2441864
1916,183.8684343
1917,183.2372208
1918,185.7912391
1919,187.9021519
1920,188.3959275
1921,186.5694842
1922,188.986957
1923,190.0772683
1924,185.78011
1925,185.2289374
1926,185.7410758
1927,184.0934306
1928,184.6304637
1929,186.36946
1930,180.8708616
1931,178.7011425
1932,180.1682957
1933,181.2141963
1934,183.3232509
1935,187.3626447
1936,183.2512196
1937,179.1306338
1938,180.785044
1939,180.3878315
1940,179.78925
1941,183.2859999
1942,180.0302996
1943,172.5132893
1944,174.6322196
1945,177.6087973
1946,181.480411
1947,176.3411538
1948,173.5062714
1949,175.1674739
1950,177.2186453
1951,178.4409725
1952,177.5170027
1953,172.6420005
1954,168.7734898
1955,173.9537877
1956,174.0644891
1957,171.900395
1958,172.2708479
1959,173.2267707
1960,174.5563006
1961,174.0926917
1962,172.3054156
1963,169.1510282
1964,168.3812986
1965,167.1172246
1966,164.9808786
1967,168.3746382
1968,177.8713063
1969,197.7718691
1970,177.6884722
1971,157.9232058
1972,166.2092819
1973,168.5649839
1974,168.8624159
1975,169.6081009
1976,167.496703
1977,164.290717
1978,163.2641983
1979,163.6460103
1980,164.520571
1981,159.9425539
1982,159.5877108
1983,162.7097092
1984,162.4290924
1985,160.9583282
1986,158.2441472
1987,161.7489602
1988,164.1029423
1989,164.6651546
1990,166.0832977
1991,164.7744686
1992,159.0519747
1993,163.0009526
1994,163.8561227
1995,155.9667653
1996,155.0355595
1997,155.2576305
1998,154.6934455
1999,154.5714297
2000,154.521468
2001,154.3331877
2002,154.0039346
2003,153.801469
2004,154.178469
2005,156.7149266
2006,159.4475098
2007,159.5418679
2008,158.7933709
2009,157.1516865
2010,153.0894612
2011,152.2144939
2012,152.9565571
2013,153.6186229
2014,152.1014383
2015,149.3567974
2016,146.6107635
2017,149.9878714
2018,156.1239995
2019,154.7019817
2020,154.1428572
2021,153.8080935
2022,150.4861832
2023,150.2175707
2024,152.0046855
2025,153.6200649
2026,151.8261544
2027,147.9918758
2028,147.8967427
2029,148.2461036
2030,148.8018308
2031,148.1351231
2032,147.3570579
2033,146.5714286
2034,146.5714286
2035,147.7452654
2036,148.8696507
2037,140.9459795
2038,139.1849202
2039,141.7517123
2040,145.0969129
2041,143.2625907
2042,138.3438426
2043,136.2386954
2044,137.4311349
2045,140.0616532
2046,138.2414562
2047,137.6925703
2048,137.8164139
2049,137.5286767
2050,138.8678785
2051,140.3218438
2052,137.9212723
2053,135.7794495
2054,134.0157645
2055,133.3428214
2056,132.6696036
2057,131.4094947
2058,128.0408674
2059,131.0275116
2060,135.2890723
2061,136.4453724
2062,134.8644845
2063,132.9223339
2064,132.1505705
2065,129.5137885
2066,126.8009382
2067,124.8692878
2068,127.4322303
2069,127.6878455
2070,122.5630166
2071,120.1914422
2072,119.6406228
2073,121.1895381
2074,123.7386344
2075,127.6562108
2076,133.0837141
2077,123.7427782
2078,119.6435253
2079,120.4356025
2080,117.3287659
2081,115.9444024
2082,115.6791131
2083,113.9294902
2084,114.6995588
2085,116.412614
2086,115.4394728
2087,111.8259533
2088,109.6314817
2089,116.1591001
2090,114.0756215
2091,110.3385626
2092,109.0705392
2093,109.9935515
2094,110.3900207
2095,109.1205259
2096,111.9183023
2097,110.5525529
2098,103.4155856
2099,109.3364367
2100,110.3462317
2101,106.8328808
2102,106.4411338
2103,109.4779837
2104,112.7022662
2105,103.7796865
2106,103.4991074
2107,106.422554
2108,107.0115378
2109,107.0665359
2110,105.3831073
2111,100.3709384
2112,99.37247848
2113,99.347623
2114,99.8395789
2115,94.73070525
2116,93.76060923
2117,96.69566563
2118,96.399977
2119,98.88764572
2120,101.9075448
2121,98.74989045
2122,98.06960242
2123,98.44598554
2124,99.03873062
2125,96.37240764
2126,93.23580933
2127,90.46645901
2128,97.13099234
2129,98.71709823
2130,94.62425994
2131,95.71410915
2132,96.20299094
2133,96.31855719
2134,96.51694106
2135,96.57142801
2136,96.28744888
2137,95.29438292
2138,90.76431875
2139,88.04014914
2140,88.83551898
2141,97.56684221
2142,98.18810492
2143,92.32616153
2144,92.72453798
2145,91.26159941
2146,89.66145979
2147,90.65854537
2148,91.89578574
2149,92.01458849
2150,90.11793027
2151,89.15695789
2152,89.01863806
2153,89.6339264
2154,90.43390383
2155,89.15459933
2156,88.83953804
2157,95.84742574
2158,91.6332877
2159,87.2536959
2160,87.55438124
2161,88.80123194
2162,89.5847484
2163,90.01951817
2164,91.72635051
2165,90.39467729
2166,87.50593458
2167,84.38988494
2168,84.77432905
2169,87.93706076
2170,94.07571847
2171,88.66538076
2172,87.31995992
2173,88.96466065
2174,89.67031478
2175,88.74473027
2176,88.55118015
2177,91.17520577
2178,88.60038757
2179,90.40758405
2180,96.49364307
2181,91.64090837
2182,91.67378943
2183,92.88925117
2184,90.15644292
2185,90.13872527
2186,90.21192496
2187,89.77925437
2188,93.4292973
2189,93.62187848
2190,91.9592672
2191,91.75625393
2192,91.63371604
2193,92.00372533
2194,93.12158857
2195,86.65926633
2196,86.08418384
2197,89.1807142
2198,88.56991903
2199,89.2114345
2200,90.26753344
2201,91.3886163
2202,86.31486456
2203,87.10453469
2204,91.48080172
2205,90.05150878
2206,90.96307973
2207,91.1406032
2208,88.78978129
2209,93.5645049
2210,93.14341301
2211,89.28529685
2212,88.46620941
2213,86.12922505
2214,86.63946969
2215,92.37967574
2216,89.58128137
2217,89.53430448
2218,91.55135672
2219,94.22104699
2220,91.78276716
2221,92.55250439
2222,98.79794584
2223,93.03793608
2224,89.07138988
2225,86.61793954
2226,85.69115993
2227,85.12281037
2228,87.25375093
2229,91.50068228
2230,89.33447539
2231,88.64062391
2232,87.3801531
2233,83.76566261
2234,85.91809192
2235,85.19318935
2236,82.96680451
2237,85.13922991
2238,88.63929858
2239,91.46742304
2240,92.69788687
2241,88.86369542
2242,87.22772816
2243,87.36010579
2244,89.12377984
2245,88.7200699
2246,85.94216101
2247,82.87859235
2248,88.49048559
2249,84.75452532
2250,82.01899556
2251,84.42128045
2252,84.21307373
2253,84.90222658
2254,85.19823457
2255,83.42646353
2256,88.27757154
2257,90.59937778
2258,90.99704415
2259,94.12906757
2260,88.42857035
2261,84.28257316
2262,84.67854636
2263,86.03808703
2264,87.17442322
2265,87.27492251
2266,85.59972872
2267,81.55482919
2268,84.67489624
2269,89.82830047
2270,88.04535185
2271,84.85356957
2272,83.28571265
2273,84.1921147
2274,89.44507
2275,86.84018217
2276,84.95356859
2277,85.62797219
2278,81.73412159
2279,80.8697259
2280,82.04482324
2281,84.7465586
2282,86.01159232
2283,85.08505304
2284,84.4480569
2285,86.76993452
2286,86.14570781
2287,84.63328606
2288,83.46964428
2289,84.7382916
2290,84.09017508
2291,81.53764016
2292,79.08331463
2293,82.26036289
2294,81.62441362
2295,83.53603036
2296,87.4915548
2297,86.11247853
2298,86.20310592
2299,86.67759651
2300,86.74807903
2301,83.56015505
2302,85.17771802
2303,85.65148107
2304,83.25181797
2305,84.42272241
2306,83.4345169
2307,83.69470106
2308,86.16586739
2309,80.30134092
2310,80.4262461
2311,81.5237721
2312,80.90911865
2313,84.64746585
2314,83.34673418
2315,80.96244213
2316,80.21014677
2317,81.81502914
2318,79.94036811
2319,78.81413977
2320,81.28158024
2321,81.1744036
2322,83.03459495
2323,83.83272607
2324,81.89185225
2325,89.5142457
2326,87.12941252
2327,84.53683472
2328,87.73562296
2329,82.68120956
2330,83.54462651
2331,84.23402459
2332,81.488351
2333,82.35014289
2334,83.53273228
2335,81.67210552
2336,76.65371213
2337,83.66769953
2338,79.55443028
2339,76.0551845
2340,77.7139206
2341,81.17284121
2342,78.90743801
2343,79.18740027
2344,82.52891594
2345,79.60548456
2346,81.14909526
2347,80.92481341
2348,79.90325601
2349,85.00085068
2350,85.57142966
2351,80.60559082
2352,75.61699731
2353,81.37512316
2354,80.99816894
2355,78.73679461
2356,76.46907152
2357,76.1450179
2358,78.75838143
2359,76.49414553
2360,73.01433345
2361,71.43239594
2362,73.61389922
2363,75.63098852
2364,75.44077029
2365,73.21464157
2366,74.74428613
2367,74.08953367
2368,75.81564876
2369,79.62454769
2370,81.81346349
2371,79.99648994
2372,79.3434481
2373,78.7651438
2374,76.1487721
2375,77.90386799
2376,80.50602559
2377,79.60990361
2378,73.83139856
2379,76.4685026
2380,76.47330093
2381,76.47224752
2382,76.0956579
2383,71.58297022
2384,74.62140765
2385,76.94319916
2386,76.97191675
2387,74.23375375
2388,81.18354415
2389,76.3266122
2390,72.07405254
2391,74.54264014
2392,74.32163839
2393,77.98933901
2394,79.21570097
2395,76.23104749
2396,68.70427595
2397,71.842762
2398,73.59702846
2399,73.20548139
2400,71.18074036
2401,73.06667819
2402,77.46507536
2403,74.70623234
2404,68.52591106
2405,74.41553116
2406,70.38684028
2407,72.47919083
2408,74.33304541
2409,70.53072575
2410,68.63734708
2411,72.91355406
2412,72.60362462
2413,68.79277094
2414,70.24309322
2415,69.85233143
2416,72.95490592
2417,76.12842124
2418,76.43312508
2419,72.18418176
2420,73.77351598
2421,74.79234368
2422,73.2226399
2423,68.49258913
2424,70.84596798
2425,68.47562244
2426,67.50200272
2427,69.37778908
2428,69.82680729
2429,69.5429535
2430,70.76473889
2431,72.875588
2432,73.89426586
2433,65.79378891
2434,67.34333528
2435,66.62365559
2436,64.98591668
2437,67.79503713
2438,72.86919949
2439,69.87907247
2440,68.95834187
2441,71.0127607
2442,69.31852831
2443,66.95842797
2444,64.17910712
2445,62.41761834
2446,62.96228082
2447,67.26395525
2448,67.15075029
2449,66.77314214
2450,69.52293069
2451,74.53131867
2452,66.47597503
2453,63.65676389
2454,62.49977385
2455,63.19842093
2456,65.6752303
2457,65.33410263
2458,59.32996968
2459,60.61820493
2460,65.98977716
2461,68.33734458
2462,65.83013971
2463,64.94974954
2464,67.7950009
2465,69.48902294
2466,64.72391837
2467,66.55141777
2468,63.90706144
2469,61.56242915
2470,61.44857189
2471,63.77958298
2472,62.86379296
2473,62.90596226
2474,61.31107467
2475,60.84420994
2476,64.12591553
2477,59.53674044
2478,57.09685217
2479,58.02993693
2480,62.4900589
2481,67.81733104
2482,59.19343349
2483,65.01315961
2484,66.09873963
2485,63.56315122
2486,61.41034753
2487,59.45123972
2488,58.44120516
2489,61.03091049
2490,64.33930642
2491,66.04637201
2492,66.27736828
2493,60.15939604
2494,59.69066729
2495,70.42223031
2496,79.50615528
2497,57.57950156
2498,57.92696108
2499,58.73219517
2500,60.37001365
2501,61.59324755
2502,59.87963922
2503,49.43268476
2504,55.11520713
2505,58.14285714
2506,60.77007729
2507,64.78011213
2508,56.98565238
2509,64.94768361
2510,64.91448266
2511,63.88960266
2512,63.97267533
2513,60.35876737
2514,62.10863931
2515,63.28701183
2516,63.71428571
2517,61.33605139
2518,55.96061489
2519,56.66211591
2520,59.31305531
2521,57.91664505
2522,57.70253944
2523,60.07375418
2524,60.54643413
2525,53.62921442
2526,50.10189656
2527,54.78607232
2528,60.29559653
2529,59.40585654
2530,57.64334652
2531,57.23312378
2532,56.00502804
2533,57.96604375
2534,59.1970362
2535,52.91765595
2536,53.50678362
2537,53.25656482
2538,56.02403314
2539,58.34087535
2540,58.58028466
2541,58.85854612
2542,52.83282362
2543,49.38026564
2544,51.71159254
2545,58.15238081
2546,62.17487281
2547,52.42165811
2548,51.59231404
2549,52.57022967
2550,52.43422617
2551,53.0668444
2552,55.430233
2553,53.17419188
2554,55.83740997
2555,53.35451916
2556,50.81463405
2557,55.20338712
2558,64.26753834
2559,50.69397054
2560,55.45108196
2561,52.93941525
2562,50.44394384
2563,48.98431614
2564,47.65856443
2565,50.40463202
2566,46.87601716
2567,47.7591065
2568,52.95009014
2569,55.34403011
2570,51.69820813
2571,52.2434845
2572,49.96750314
2573,53.1353114
2574,50.91250719
2575,49.53714943
2576,52.58468682
2577,51.01105826
2578,42.00223977
2579,48.20064435
2580,48.71789823
2581,48.09811374
2582,50.06066758
2583,51.50399726
2584,48.61326272
2585,49.89514787
2586,52.82025582
2587,52.4421839
2588,50.15201705
2589,48.61303902
2590,44.01704407
2591,54.28875624
2592,53.17853737
2593,52.94634792
2594,51.77586637
2595,48.04716137
2596,45.38277572
2597,43.68633107
2598,47.07532992
2599,46.07928222
2600,53.88376944
2601,55.18988527
2602,40.77083996
2603,45.41206605
2604,48.08665957
2605,50.76252801
2606,50.97700936
2607,49.29543032
2608,46.73131561
2609,46.05837359
2610,55.10548292
2611,49.25086812
2612,47.36844008
2613,48.46059309
2614,47.87955611
2615,44.02081381
2616,41.28304808
2617,49.47741536
2618,46.54726219
2619,46.60320827
2620,47.97936385
2621,45.38654055
2622,42.31263978
2623,46.79905183
2624,46.43094008
2625,45.33074052
2626,41.77849851
2627,41.65820176
2628,42.44731576
2629,42.70764923
2630,43.8262182
2631,44.42857143
2632,44.4285717
2633,41.66788455
2634,41.06072181
2635,43.03015845
2636,46.38142722
2637,48.49349049
2638,45.65272495
2639,42.81052889
2640,43.81706265
2641,44.23693194
2642,46.3847471
2643,47.11152867
2644,45.43338803
2645,45.56945801
2646,43.58583559
2647,40.24658067
2648,35.85202435
2649,38.37010111
2650,40.59774453
2651,41.25736318
2652,42.59057917
2653,40.07016645
2654,47.03920038
2655,40.96290561
2656,38.28093883
2657,40.22642626
2658,43.71442468
2659,44.90885353
2660,42.52904701
2661,40.00480924
2662,42.12842859
2663,37.54081944
2664,37.21185957
2665,40.93776839
2666,44.25836509
2667,45.18766185
2668,43.4076391
2669,35.69990594
2670,39.21086993
2671,37.781053
2672,36.5255473
2673,37.5547142
2674,36.99167115
2675,38.88924817
2676,43.90322277
2677,36.18840081
2678,37.82465063
2679,40.20235906
2680,34.92344665
2681,38.74449594
2682,40.68268585
2683,39.5673057
2684,41.34935324
2685,43.86322158
2686,38.60866901
2687,36.58614022
2688,39.69400706
2689,37.92118481
2690,32.99188124
2691,32.11681693
2692,33.72950418
2693,35.20590401
2694,41.8571434
2695,41.78917367
2696,39.37708337
2697,39.48691477
2698,35.21973746
2699,37.61096491
2700,37.81120763
2701,36.69968823
2702,40.50129972
2703,40.46373667
2704,38.93455042
2705,37.40458012
2706,39.16819436
2707,34.45050512
2708,31.03269863
2709,31.94600378
2710,34.68447467
2711,36.60567529
2712,-28.64082228
2713,-282.3823678
2714,22.3628354
2715,36.33901787
2716,36.98506192
2717,36.9533953
2718,36.01973643
2719,33.40452439
2720,33.55365753
2721,35.54886981
2722,31.43827302
2723,37.16212763
2724,46.81168393
2725,41.17591204
2726,37.41941452
2727,33.87686512
2728,35.28692218
2729,36.39648519
2730,34.28243092
2731,32.91835567
2732,35.03761973
2733,38.64155552
2734,36.57309342
2735,31.91865975
2736,34.78664616
2737,38.33648409
2738,35.59791892
2739,31.01104845
2740,30.18980517
2741,32.50600379
2742,33.81797382
2743,33.00503131
2744,31.67580155
2745,32.97547804
2746,35.9344101
2747,33.18548284
2748,31.7136898
2749,34.91871207
2750,37.00000027
2751,36.03388487
2752,35.53262029
2753,37.38705172
2754,39.93315588
2755,42.01143019
2756,31.22668185
2757,35.14850399
2758,28.26266425
2759,29.18906784
2760,28.97952093
2761,29.51343169
2762,29.55227443
2763,30.48972947
2764,33.43625777
2765,33.0376467
2766,27.48957144
2767,29.39872496
2768,27.9914687
2769,27.72848947
2770,30.57670784
2771,28.84892259
2772,35.12236622
2773,31.31031772
2774,27.01226643
2775,28.70720863
2776,33.43497876
2777,34.73828615
2778,28.87143939
2779,26.11555522
2780,30.31757872
2781,28.164514
2782,28.82613128
2783,23.30488941
2784,26.50809956
2785,25.0033256
2786,27.66417503
2787,27.8143252
2788,30.67944118
2789,32.53793417
2790,32.12474877
2791,31.9475659
2792,25.57142857
2793,25.67163304
2794,26.02051871
2795,24.95521368
2796,23.88937405
2797,26.44251946
2798,36.89509991
2799,31.68474034
2800,35.63022832
2801,30.90010834
2802,27.4342635
2803,28.88301277
2804,29.27959251
2805,28.40602902
2806,27.08118752
2807,24.14936869
2808,22.17126574
2809,22.75685651
2810,25.68152918
2811,25.27435112
2812,24.60295214
2813,25.5957628
2814,27.98662758
2815,25.75934464
2816,25.30871337
2817,22.58886174
2818,20.19162723
2819,23.64614214
2820,24.89069039
2821,24.584092
2822,25.3677142
2823,23.50577818
2824,25.60813877
2825,27.10558169
2826,27.88298675
2827,27.09591293
2828,25.73737608
2829,28.38634763
2830,21.61263677
2831,21.28571415
2832,26.76462392
2833,29.54742186
2834,32.36401313
2835,30.63270405
2836,25.08707918
2837,23.49286366
2838,25.59320804
2839,26.4198682
2840,26.59548351
2841,26.75005422
2842,25.10005733
2843,24.91775717
2844,26.43493652
2845,23.00845105
2846,22.84433746
2847,23.32647623
2848,20.12754904
2849,26.45834814
2850,30.96439743
2851,14.81186519
2852,23.38691984
2853,25.53446634
2854,24.85954721
2855,24.59787941
2856,20.80505589
2857,24.44885363
2858,24.14850617
2859,24.22861985
2860,26.4929191
2861,23.97487136
2862,22.13433633
2863,25.13199779
2864,26.74679129
2865,25.05259459
2866,20.94658538
2867,17.88755465
2868,21.26416969
2869,24.21887234
2870,25.49627495
2871,26.3641698
2872,21.82254151
2873,19.84105941
2874,22.89190701
2875,18.94712183
2876,24.93753351
2877,24.27741446
2878,24.14703301
2879,24.2855933
2880,24.14672007
2881,23.73761872
2882,37.49386542
2883,29.28240149
2884,24.18282386
2885,27.5351756
2886,20.47716672
2887,20.40998949
2888,21.73408576
2889,24.12516771
2890,20.12058803
2891,21.07867064
2892,19.87076337
2893,20.95870413
2894,25.67261805
2895,20.70901993
2896,22.12966265
2897,25.65149307
2898,23.14831012
2899,23.64713982
2900,25.42360496
2901,24.92875753
2902,22.08954484
2903,17.83109815
2904,21.58991759
2905,27.6224041
2906,24.23750169
2907,21.46197006
2908,22.64432553
2909,20.57919543
2910,17.25778389
2911,18.01224293
2912,16.45154987
2913,21.76357773
2914,24.97959955
2915,19.8370206
2916,15.70664951
2917,13.18405989
2918,6.21510589
2919,21.20025226
2920,17.76077516
2921,19.75266116
2922,22.99623067
2923,21.9071658
2924,17.46084567
2925,17.13834476
2926,12.40712949
2927,19.77813693
2928,24.05282211
2929,21.77815764
2930,22.39700454
2931,21.16936057
2932,19.42542567
2933,21.53646701
2934,22.27671296
2935,19.18751907
2936,21.14285714
2937,21.50487423
2938,24.23027025
2939,27.03403091
2940,17.00503472
2941,14.5483643
2942,18.37030043
2943,18.971935
2944,22.80630548
2945,22.94673702
2946,16.37957328
2947,23.02785764
2948,20.91930607
2949,18.25026063
2950,22.25979642
2951,21.86558124
2952,23.48283686
2953,19.99321284
2954,20.78629957
2955,18.17762361
2956,16.37346486
2957,21.82449709
2958,20.92871748
2959,21.22246061
2960,21.17007719
2961,15.10736357
2962,16.25471483
2963,20.95836094
2964,19.52348573
2965,16.04557092
2966,17.99129227
2967,19.70830917
2968,18.34450368
2969,20.98713003
2970,20.34917777
2971,18.78693117
2972,23.18886375
2973,20.77108642
2974,21.55694376
2975,19.34760284
2976,14.61890643
2977,15.38960784
2978,13.16093268
2979,17.00294842
2980,19.16783142
2981,20.89180429
2982,19.08760112
2983,15.43095793
2984,18.93782616
2985,17.48598303
2986,16.26140254
2987,7.911614547
2988,13.66300004
2989,13.65799379
2990,12.09280079
2991,20.44395474
2992,15.15659094
2993,21.71639442
2994,16.88480241
2995,21.88368852
2996,18.6913508
2997,15.45514277
2998,15.50302185
2999,13.74130821
3000,17.25755964
