Frequency,Density
0,76.6
1,76.6
2,76.6
3,76.6
4,76.6
5,76.6
6,76.6
7,76.6
8,76.6
9,76.6
10,76.6
11,76.6
12,76.6
13,76.6
14,76.6
15,76.6
16,76.6
17,76.6
18,76.6
19,76.6
20,76.6
21,76.6
22,76.6
23,76.6
24,76.6
25,76.6
26,76.6
27,76.6
28,76.6
29,76.6
30,76.6
31,76.6
32,76.6
33,76.6
34,76.6
35,76.6
36,76.6
37,76.6
38,76.6
39,76.6
40,76.6
41,76.6
42,76.6
43,76.6
44,76.6
45,76.6
46,76.6
47,76.6
48,76.6
49,76.6
50,76.6
51,76.6
52,76.6
53,76.6
54,76.6
55,76.6
56,76.6
57,76.6
58,76.6
59,76.6
60,76.6
61,76.6
62,76.6
63,76.6
64,76.6
65,76.6
66,76.6
67,76.6
68,76.6
69,76.6
70,76.6
71,76.6
72,76.6
73,76.6
74,76.6
75,76.6
76,76.6
77,76.6
78,76.6
79,76.6
80,76.6
81,76.6
82,76.6
83,76.6
84,76.6
85,76.6
86,76.6
87,76.6
88,76.6
89,76.6
90,76.6
91,76.6
92,76.6
93,76.6
94,76.6
95,76.6
96,76.6
97,76.6
98,76.6
99,76.6
100,76.6
101,76.6
102,76.6
103,76.6
104,76.6
105,76.6
106,76.6
107,76.6
108,76.6
109,76.6
110,76.6
111,76.6
112,76.6
113,76.6
114,76.6
115,76.6
116,76.6
117,76.6
118,76.6
119,76.6
120,76.6
121,76.6
122,76.6
123,76.6
124,76.6
125,76.6
126,76.6
127,76.6
128,76.6
129,76.6
130,76.6
131,76.6
132,76.6
133,76.6
134,76.6
135,76.6
136,76.6
137,76.6
138,76.6
139,76.6
140,76.6
141,76.6
142,76.6
143,76.6
144,76.6
145,76.6
146,76.6
147,76.6
148,76.6
149,76.6
150,76.6
151,76.6
152,76.6
153,76.6
154,76.6
155,76.6
156,76.6
157,76.6
158,76.6
159,76.6
160,76.6
161,76.6
162,76.6
163,76.6
164,76.6
165,76.6
166,76.6
167,76.6
168,76.6
169,76.6
170,76.6
171,76.6
172,76.6
173,76.6
174,76.6
175,76.6
176,76.6
177,76.6
178,76.6
179,76.6
180,76.6
181,76.6
182,76.6
183,76.6
184,76.6
185,76.6
186,76.6
187,76.6
188,76.6
189,76.6
190,76.6
191,76.6
192,76.6
193,76.6
194,76.6
195,76.6
196,76.6
197,76.6
198,76.6
199,99.96728975
200,181.7387451
201,263.510199
202,289.5973511
203,292.1542114
204,294.1170349
205,291.7912536
206,289.4654663
207,288.5681397
208,288.8784241
209,289.1887207
210,288.4520569
211,287.6758911
212,286.538971
213,284.8304016
214,283.121814
215,283.8091614
216,285.0524963
217,286.6660278
218,289.4651733
219,292.264331
220,295.0127869
221,297.735791
222,299.8522827
223,296.1935303
224,292.5347839
225,291.4963135
226,292.8204712
227,294.1446289
228,295.170813
229,296.1840027
230,293.804071
231,286.1617126
232,278.5193665
233,276.489862
234,275.6315369
235,274.566803
236,272.9272217
237,271.2876587
238,270.2511414
239,269.4699463
240,268.5327942
241,266.6567871
242,264.7807861
243,266.1917175
244,269.9459351
245,273.497699
246,269.663031
247,265.8283478
248,263.9844299
249,264.3759552
250,264.7674683
251,261.8544586
252,258.6420715
253,255.8574158
254,253.8190918
255,251.780777
256,250.8896881
257,250.262143
258,250.1310059
259,251.3868347
260,252.6426636
261,252.999997
262,253.0000031
263,252.5887085
264,250.1526764
265,247.7166443
266,247.8789062
267,249.608728
268,251.3638214
269,253.4093536
270,255.4548828
271,255.3412872
272,253.3732758
273,251.4052643
274,251.4785523
275,251.5573242
276,250.4083344
277,247.8075043
278,245.2066681
279,247.6859528
280,250.6037567
281,252.4303314
282,252.5092377
283,252.5881409
284,251.4595062
285,250.1173157
286,250.5253967
287,254.7123383
288,258.8992889
289,258.9314301
290,257.8247864
291,258.3294831
292,263.5495484
293,268.7696228
294,268.4189392
295,265.9656555
296,264.0629578
297,264.3796936
298,264.6964417
299,265.5998962
300,266.7883728
301,267.8353882
302,268.0732239
303,268.3110596
304,268.5489868
305,268.786969
306,269.2245606
307,271.3676025
308,273.5106445
309,272.7739014
310,269.9942444
311,267.2091858
312,264.3484375
313,261.487674
314,257.0957123
315,251.450351
316,246.0742096
317,248.2222992
318,250.3703918
319,246.1358612
320,236.0259064
321,226.0648895
322,233.8708649
323,241.6768433
324,243.8953095
325,240.4682221
326,237.0411316
327,237.866684
328,238.7438934
329,238.8935577
330,238.2552094
331,237.616861
332,240.1651703
333,242.7999085
334,245.5476898
335,248.4236481
336,251.2996063
337,248.082785
338,244.6455872
339,243.0592499
340,243.6191254
341,244.1789978
342,242.582431
343,240.901825
344,242.8201416
345,248.9059357
346,254.9917236
347,251.4856964
348,247.6397675
349,246.3153625
350,247.8386017
351,249.3618439
352,247.0537415
353,244.6472046
354,243.9413422
355,245.0650513
356,246.1887634
357,241.8269653
358,237.4097748
359,235.5614258
360,236.2846649
361,237.0061493
362,237.5690033
363,238.1318512
364,238.020871
365,237.2967804
366,236.5271271
367,234.5950744
368,232.6630279
369,197.2145325
370,134.7080704
371,81.12576142
372,145.442221
373,209.7586792
374,237.4822449
375,239.6596497
376,241.6263519
377,241.8684326
378,242.1105072
379,241.1312805
380,239.4357483
381,237.26969
382,232.5032349
383,227.7367828
384,225.9261383
385,225.5219635
386,224.8709534
387,223.2532989
388,221.6356506
389,220.4312439
390,219.3791443
391,219.8394897
392,224.6172027
393,229.3949127
394,227.2649597
395,223.2946838
396,221.6679565
397,224.9919769
398,228.3160004
399,231.7803131
400,235.2685425
401,236.421286
402,233.9050384
403,231.3887878
404,228.4204162
405,225.4153747
406,225.8669342
407,230.3365204
408,234.8074463
409,240.2554291
410,245.7034088
411,250.5801392
412,254.9736389
413,258.5578095
414,253.266214
415,247.9746216
416,245.5404541
417,244.8073456
418,244.0741516
419,243.3406006
420,242.6070587
421,238.4197174
422,232.8740875
423,229.7527375
424,233.3432037
425,236.93367
426,237.932489
427,238.3407349
428,237.1093079
429,233.0244141
430,228.9395172
431,229.1246613
432,229.6968872
433,230.9231964
434,232.8862641
435,234.7999969
436,234.8
437,234.7999969
438,231.4195068
439,225.6052429
440,221.7401306
441,229.9340637
442,238.1279938
443,237.1648193
444,232.2455597
445,228.4937958
446,228.083612
447,227.6734344
448,226.1174408
449,224.3115814
450,221.9369293
451,218.6516083
452,215.3662872
453,215.6681305
454,216.1612183
455,217.6722961
456,220.1391998
457,222.248764
458,220.4386383
459,218.6285095
460,218.3761871
461,218.9524811
462,218.6084991
463,215.0663391
464,211.524176
465,211.5213043
466,212.4279785
467,212.878241
468,212.5483459
469,212.218454
470,211.1872254
471,210.1144409
472,209.9437988
473,210.604364
474,211.1431549
475,210.5648193
476,209.9864777
477,209.5199371
478,209.1065979
479,208.6718292
480,208.175531
481,207.6792267
482,205.3742798
483,202.7257721
484,203.4468018
485,208.7469513
486,213.9801147
487,211.7427979
488,209.5054718
489,207.8596466
490,206.6159546
491,205.9190186
492,207.6612121
493,209.4034119
494,210.1205719
495,210.5356262
496,210.1667725
497,208.4225159
498,206.6782623
499,209.4576813
500,212.4496063
501,212.9331299
502,211.353122
503,210.2389557
504,211.9031037
505,213.5672455
506,211.1045258
507,207.1914764
508,205.1908356
509,206.9402527
510,208.6896728
511,209.5028778
512,210.2530792
513,208.5376282
514,204.7010437
515,201.7844208
516,204.538382
517,207.2923431
518,208.0620483
519,208.1455475
520,208.1418579
521,207.9747589
522,207.8076538
523,209.076355
524,210.4139771
525,210.1069458
526,208.5175812
527,207.2858795
528,207.7880798
529,208.2902832
530,209.8399628
531,211.6824585
532,210.72276
533,205.4434021
534,200.2205597
535,203.2391205
536,206.2576843
537,206.3570252
538,204.6790527
539,203.6195343
540,204.5429627
541,205.466394
542,206.1747559
543,206.8467377
544,204.2102295
545,197.906665
546,192.9883606
547,201.3139832
548,209.6395996
549,211.5176758
550,210.8445007
551,208.5409271
552,203.0681366
553,197.5953583
554,198.6998291
555,200.0477692
556,199.355957
557,197.2485535
558,196.4631622
559,200.4274322
560,204.3917023
561,205.9287995
562,207.025946
563,207.2376434
564,206.4776276
565,205.003128
566,197.6519806
567,190.3008332
568,195.5460235
569,205.1842621
570,208.9743408
571,203.0526215
572,197.1891388
573,196.2580261
574,195.3269226
575,194.8900818
576,194.7206909
577,194.7461884
578,195.2546662
579,195.763147
580,195.0134949
581,194.1655304
582,195.1033356
583,197.3941895
584,198.8225159
585,197.039682
586,195.2568512
587,195.6543793
588,196.4189026
589,197.6951904
590,199.4801331
591,199.5475281
592,189.7670532
593,179.9865692
594,184.103183
595,191.7620056
596,196
597,196
598,195.825
599,194.0358276
600,192.2466583
601,191.6080963
602,191.3523529
603,191.4758881
604,192.1582855
605,192.6575287
606,190.2677307
607,187.8779297
608,188.9128876
609,191.3041107
610,191.6161865
611,188.4544891
612,185.4666778
613,187.4332184
614,189.399762
615,190.1783203
616,190.4349762
617,192.4031921
618,197.453772
619,202.3946899
620,202.1377319
621,201.8807709
622,199.7432007
623,196.7435425
624,194.4074982
625,193.2926758
626,192.182962
627,191.3249024
628,190.4668396
629,188.4844452
630,185.9945984
631,184.7706696
632,185.8015595
633,186.9244751
634,190.8785705
635,194.8326599
636,197.3942017
637,199.3724182
638,199.3590851
639,196.0887878
640,193.0430145
641,193.8180176
642,194.5930176
643,194.5473938
644,194.2027466
645,195.632843
646,199.5986572
647,202.5419678
648,195.3820221
649,188.2220642
650,188.6028259
651,191.1922974
652,192.6
653,192.599997
654,192.891748
655,194.9657715
656,197.0398041
657,197.0427399
658,196.6103943
659,195.6005066
660,194.0431397
661,192.2410461
662,189.470755
663,186.7004639
664,187.4039612
665,188.5300598
666,189.656543
667,190.7833069
668,191.6
669,191.5999969
670,191.6000031
671,189.5817902
672,187.4991455
673,187.6075195
674,188.8231171
675,189.9762634
676,191.0188232
677,191.9590576
678,191.2636047
679,190.5681549
680,189.8723938
681,189.176532
682,187.8813782
683,185.8795868
684,184.6905975
685,187.7386017
686,190.786615
687,193.3842682
688,195.9112549
689,197.1488678
690,197.4104401
691,196.2310638
692,191.2583405
693,186.2856079
694,189.1168549
695,192.0847992
696,189.375357
697,184.1347046
698,181.9131195
699,184.1854156
700,186.5074616
701,189.2183441
702,191.9292297
703,189.7247284
704,186.4872406
705,185.7099793
706,187.0232574
707,188.3367279
708,189.6507782
709,190.9648346
710,191.7677826
711,192.5566833
712,188.6147156
713,182.5629059
714,179.5774811
715,180.9816315
716,182.9551758
717,188.6629211
718,194.3706604
719,188.2159821
720,180.0446838
721,177.3628082
722,178.681543
723,179.7869049
724,180.4026825
725,181.0870514
726,183.9917084
727,186.8963654
728,185.6646179
729,183.1105316
730,182.4436005
731,183.7654694
732,185.0875
733,186.4101501
734,187.7327972
735,185.287619
736,182.6407562
737,183.3662262
738,185.6615387
739,186.447644
740,185.122644
741,183.6625336
742,181.452887
743,179.2432373
744,182.4629303
745,186.3542206
746,185.9647827
747,183.0445862
748,180.2542053
749,177.6864532
750,176.6229401
751,187.7860107
752,198.9490875
753,193.8771149
754,185.9874085
755,182.1656067
756,181.1011933
757,182.0960113
758,187.0662109
759,191.4206543
760,189.3781097
761,187.3355682
762,191.4556152
763,196.7871521
764,194.4752258
765,186.739917
766,181.599997
767,181.6
768,181.9658051
769,186.1496033
770,190.3334167
771,188.0797241
772,184.6059967
773,180.9718933
774,177.2287353
775,175.4576019
776,177.3302917
777,179.4255402
778,183.3515991
779,187.2776581
780,186.7937591
781,185.6330993
782,185.3679962
783,185.6360016
784,184.6552704
785,181.7054809
786,179.2673614
787,179.714566
788,180.1617645
789,173.8981628
790,167.0071564
791,167.1737488
792,170.6660706
793,174.1193359
794,177.5241333
795,180.2959656
796,180.7442352
797,181.1924988
798,177.6717987
799,174.0835449
800,178.1390137
801,184.6914551
802,187.0447235
803,185.6077209
804,183.9825378
805,181.9156189
806,180.2040466
807,182.9915497
808,185.7790527
809,182.5334869
810,178.2147919
811,176.9945526
812,177.6247315
813,178.473703
814,179.6447418
815,180.400708
816,179.3191071
817,178.2375122
818,176.4588287
819,174.6550934
820,173.9301117
821,173.5691498
822,176.3268189
823,181.8347351
824,184.0278259
825,179.0587219
826,174.9342621
827,178.1886993
828,181.4431305
829,177.2900024
830,172.2245453
831,170.0466644
832,169.2320923
833,169.2252319
834,170.1308533
835,170.7763397
836,170.6857239
837,170.6244781
838,171.077832
839,171.5311767
840,174.9088684
841,178.8099701
842,178.3886078
843,175.5745148
844,173.3998444
845,172.0373779
846,171.8023651
847,175.1651123
848,178.4656982
849,180.1935425
850,181.9213867
851,183.1158478
852,184.2077667
853,180.5161072
854,174.142804
855,171.5305695
856,173.6259003
857,175.2680237
858,175.5414947
859,175.5555328
860,171.0862732
861,166.6170105
862,171.9784729
863,178.914505
864,178.2610687
865,173.8778168
866,170.5466553
867,168.3537293
868,168.7720398
869,175.5375915
870,181.4003418
871,179.479248
872,177.5581574
873,175.0480225
874,172.4850464
875,173.410614
876,175.6087586
877,175.6439697
878,173.9027405
879,171.4213867
880,167.6617645
881,164.7362488
882,165.4702698
883,166.2391724
884,172.9410919
885,179.6430145
886,176.3158203
887,170.8959808
888,171.1514252
889,174.4604095
890,174.9786346
891,172.4034515
892,170.2414825
893,169.0451568
894,167.965091
895,167.688855
896,167.4126099
897,173.1153503
898,179.1041107
899,175.7043396
900,169.7120178
901,169.0429565
902,171.7180389
903,175.2583374
904,179.8732941
905,181.3438202
906,174.6943359
907,168.6215942
908,167.0506439
909,165.4796936
910,163.7323151
911,161.9755005
912,163.9277954
913,166.8883942
914,168.6359711
915,169.6542755
916,171.1887207
917,173.3191803
918,174.7434753
919,174.5581055
920,173.9226868
921,170.676831
922,167.4309753
923,166.3890106
924,165.368277
925,167.3711792
926,169.9709473
927,169.7242798
928,168.1449127
929,166.8597351
930,165.8371857
931,165.6907623
932,166.9929657
933,169.5189239
934,176.2199554
935,181.7411408
936,173.2667511
937,164.7923553
938,165.6733399
939,167.2574097
940,164.8963501
941,161.4466247
942,159.8425293
943,159.2827789
944,159.1847565
945,159.5581421
946,158.5497345
947,155.0004486
948,153.2253326
949,158.0851349
950,162.1619354
951,155.9900604
952,149.8181824
953,153.1508453
954,157.1743042
955,156.2141388
956,153.967154
957,156.531604
958,161.590329
959,163.3127991
960,162.0004974
961,159.8099976
962,156.2459229
963,153.7934113
964,154.5441895
965,154.6892517
966,150.6514191
967,146.6135895
968,143.6970795
969,140.7843597
970,144.7252625
971,149.7080383
972,150.7909607
973,150.5087494
974,155.9540741
975,164.9902191
976,167.8929962
977,164.4082428
978,160.7846496
979,156.9208801
980,155.1735687
981,159.9825867
982,163.399118
983,156.8889374
984,150.390448
985,147.4638458
986,144.5372406
987,142.8627625
988,141.351355
989,144.8449341
990,149.8544342
991,149.8130127
992,147.0703369
993,148.2892273
994,152.9261597
995,154.7982636
996,152.9045135
997,152.0127106
998,153.3391266
999,154.3051086
1000,153.8311065
1001,153.4772522
1002,154.3309631
1003,155.184671
1004,150.6327789
1005,145.9820435
1006,150.6342773
1007,156.6173462
1008,154.9312347
1009,150.940155
1010,148.5263672
1011,146.909967
1012,145.5597839
1013,144.4181213
1014,144.1492371
1015,144.9108032
1016,145.4340668
1017,145.5293152
1018,146.2391876
1019,148.717218
1020,150.9977387
1021,152.2374848
1022,153.4059448
1023,153.5013641
1024,153.5967865
1025,154.153595
1026,154.7264648
1027,153.2178223
1028,151.4026489
1029,148.3220459
1030,144.8807251
1031,147.4086121
1032,152.6693146
1033,153.148645
1034,150.3731689
1035,148.3710053
1036,147.1260925
1037,145.6013275
1038,143.6849274
1039,143.9480163
1040,148.6459747
1041,150.9619354
1042,145.8774384
1043,142.2246918
1044,146.1603241
1045,149.727774
1046,148.7672943
1047,147.8068146
1048,146.8457672
1049,145.8847168
1050,150.6227051
1051,155.9116272
1052,153.3575226
1053,149.2200867
1054,146.7492065
1055,144.8236725
1056,143.0276276
1057,141.2936218
1058,142.3350159
1059,145.2267487
1060,144.4728577
1061,140.4220215
1062,139.3328034
1063,141.8419525
1064,143.0339722
1065,142.0683411
1066,141.9949371
1067,143.9273499
1068,145.8600372
1069,147.7936035
1070,148.5488617
1071,143.5186066
1072,139.2067444
1073,141.2394073
1074,143.1828339
1075,142.6985779
1076,142.2143219
1077,140.7893708
1078,139.3357483
1079,143.9471771
1080,149.1833374
1081,145.0865173
1082,139.2651062
1083,143.318866
1084,150.114563
1085,149.1222839
1086,145.1395782
1087,142.574411
1088,140.7276703
1089,139.4696014
1090,138.5943054
1091,140.1785644
1092,143.7791229
1093,143.8673798
1094,140.3620483
1095,138.8289459
1096,139.8032288
1097,140.2489075
1098,139.85896
1099,140.6484986
1100,143.7699127
1101,144.940918
1102,141.2320282
1103,138.8617767
1104,140.8149841
1105,142.8420899
1106,145.1873322
1107,146.7701691
1108,143.7390991
1109,140.8397888
1110,139.1766022
1111,137.6611572
1112,138.8358734
1113,140.0088287
1114,140.9883362
1115,141.9678497
1116,148.7302551
1117,155.688916
1118,147.3860932
1119,137.8735351
1120,138.8021973
1121,141.0590942
1122,141.149939
1123,140.8553863
1124,145.8254883
1125,152.0147797
1126,148.6693726
1127,142.5746979
1128,139.5410767
1129,137.5738846
1130,134.2814285
1131,130.4431229
1132,129.3997482
1133,129.6951797
1134,133.6144409
1135,139.5265503
1136,139.3727753
1137,135.4290207
1138,134.3790268
1139,135.3655517
1140,136.1866821
1141,136.8776642
1142,137.7269409
1143,138.7146454
1144,140.557132
1145,143.2255066
1146,141.5312012
1147,135.2024078
1148,134.2248566
1149,139.4690094
1150,139.9544464
1151,134.4101593
1152,130.4493012
1153,128.6661438
1154,130.4298721
1155,137.4676025
1156,140.1987121
1157,136.033075
1158,133.0348846
1159,132.0424789
1160,131.505043
1161,131.8029419
1162,131.7981949
1163,131.2020416
1164,130.3144318
1165,128.8231598
1166,128.455748
1167,130.5447678
1168,132
1169,132
1170,131.7364014
1171,130.8400391
1172,130.7984329
1173,132.8911881
1174,134.4834717
1175,134.7826096
1176,136.2543152
1177,140.8438934
1178,141.8120789
1179,132.9269592
1180,127.5400131
1181,131.8353821
1182,135.2368103
1183,136.1363709
1184,135.7245377
1185,131.6240829
1186,128.6000015
1187,128.5999985
1188,128.7849777
1189,129.4858902
1190,130.1068039
1191,130.5075638
1192,129.7703186
1193,125.9608505
1194,120.7977783
1195,112.0709045
1196,108.991835
1197,120.3334808
1198,128.1389954
1199,127.2351379
1200,126.3311264
1201,125.4267334
1202,124.1208786
1203,121.9088287
1204,120.9117386
1205,122.5214615
1206,125.360585
1207,130.6959595
1208,132.12556
1209,126.0819244
1210,123.5338501
1211,127.2629761
1212,127.8306015
1213,123.0907837
1214,120.357457
1215,120.761087
1216,122.2360992
1217,125.2651123
1218,125.3597977
1219,121.5207596
1220,122.250412
1221,128.6189117
1222,130.7189194
1223,127.9879379
1224,125.3557007
1225,122.8255112
1226,123.532074
1227,127.278984
1228,130.424443
1229,133.0589737
1230,130.6939255
1231,124.5092407
1232,123.085202
1233,124.9112763
1234,126.4851349
1235,127.9062607
1236,125.8813171
1237,122.0216782
1238,123.5784485
1239,127.6436401
1240,129.4548752
1241,130.3700912
1242,132.8856888
1243,135.938208
1244,132.6928192
1245,127.704068
1246,123.7972259
1247,120.1298416
1248,119.5127945
1249,119.4108627
1250,123.227237
1251,127.5109406
1252,124.1836456
1253,120.3056076
1254,119.1073318
1255,118.0347687
1256,120.4869705
1257,122.9044418
1258,124.7446869
1259,126.1635559
1260,123.8107345
1261,122.1422913
1262,124.4965134
1263,126.2627365
1264,125.5458084
1265,124.8532394
1266,124.2383621
1267,124.0943634
1268,125.1197662
1269,126.3871353
1270,128.1313553
1271,128.5637878
1272,126.9211914
1273,125.2781662
1274,123.6345917
1275,120.11866
1276,114.6710892
1277,117.650766
1278,127.6267853
1279,128.5658554
1280,123.5234283
1281,120.6478256
1282,118.8973724
1283,115.2285553
1284,110.7983017
1285,111.5569259
1286,113.8249145
1287,117.5575973
1288,121.5805115
1289,126.6225281
1290,131.7831787
1291,129.5266129
1292,126.8783844
1293,121.1949127
1294,116.9688065
1295,128.2391098
1296,136.7957077
1297,130.1743469
1298,123.9367157
1299,119.0712631
1300,115.7187256
1301,116.1330536
1302,116.8055374
1303,117.9456131
1304,120.2788437
1305,124.219635
1306,122.8962601
1307,116.255188
1308,113.9918961
1309,115.0301804
1310,116.7377274
1311,118.8155304
1312,121.5666229
1313,124.5812302
1314,121.3974487
1315,116.6128128
1316,115.0017975
1317,113.8569656
1318,113.0083542
1319,112.3021393
1320,115.7407196
1321,118.8460022
1322,119.2630493
1323,119.23936
1324,117.3615402
1325,116.2582947
1326,117.1977646
1327,118.1749237
1328,119.2194
1329,119.6143402
1330,119.1963013
1331,116.0602386
1332,110.5179397
1333,108.5292984
1334,108.7385666
1335,110.0573334
1336,111.8371658
1337,112.2000015
1338,112.1999985
1339,111.4562042
1340,110.6176392
1341,116.4525742
1342,122.733728
1343,132.9134216
1344,138.902475
1345,123.8863785
1346,115.1372391
1347,124.0681976
1348,126.6742569
1349,117.9482544
1350,114.7345016
1351,118.1007462
1352,117.965416
1353,115.0182007
1354,110.8979568
1355,106.1585495
1356,105.3981094
1357,105.9250244
1358,106.8139709
1359,107.7629791
1360,107.6986084
1361,107.4480988
1362,105.1255402
1363,103.2902863
1364,103.818454
1365,103.9946091
1366,103.2547333
1367,103.7782074
1368,106.3164307
1369,106.2399872
1370,103.4886154
1371,106.1754318
1372,112.4226425
1373,115.0338592
1374,116.1992859
1375,114.4694275
1376,112.1371872
1377,109.8036453
1378,107.4462936
1379,104.6867355
1380,102.7821259
1381,105.0123261
1382,107.0286057
1383,108.5162888
1384,109.2705002
1385,108.9515213
1386,109.8611938
1387,111.8825958
1388,114.3854767
1389,117.1532455
1390,112.6575607
1391,105.947055
1392,107.3784286
1393,109.7935287
1394,109.2603165
1395,108.1727112
1396,103.5843521
1397,101.0124863
1398,104.1087997
1399,105.8752594
1400,105.5547608
1401,98.26904144
1402,84.47941589
1403,87.13325501
1404,98.79187928
1405,104.4740143
1406,108.4338791
1407,105.4956772
1408,102.0726837
1409,103.8942444
1410,105.623053
1411,106.9096237
1412,106.7428497
1413,103.3099533
1414,102.3524033
1415,104.4992386
1416,108.7663986
1417,114.5662934
1418,110.7961716
1419,103.27332
1420,100.9093277
1421,99.40386199
1422,74.07225342
1423,55.70781555
1424,81.00814209
1425,99.26053314
1426,99.47598268
1427,99.37127992
1428,98.83233796
1429,103.0177826
1430,110.783194
1431,110.1469376
1432,106.1540085
1433,103.6470184
1434,101.4568848
1435,107.7235107
1436,111.8042969
1437,104.2366348
1438,100.7992874
1439,106.6406662
1440,107.9612106
1441,103.9564087
1442,104.3863648
1443,107.6354324
1444,106.5769531
1445,104.1928894
1446,103.9003403
1447,103.8890289
1448,105.0824783
1449,105.2219254
1450,101.8565735
1451,100.4336563
1452,102.0630203
1453,101.788031
1454,99.94032286
1455,101.6315674
1456,104.7854141
1457,102.5536301
1458,99.49334105
1459,96.00910186
1460,94.48774261
1461,101.1335174
1462,103.7998535
1463,99.33036957
1464,98.45588227
1465,100.8555664
1466,98.66395111
1467,94.40744476
1468,97.91934661
1469,102.6424393
1470,104.2815033
1471,104.594957
1472,99.45617522
1473,96.32023773
1474,96.64844057
1475,97.2124115
1476,97.97867126
1477,95.55161896
1478,91.82757721
1479,97.70581206
1480,104.214859
1481,101.1443573
1482,99.11138916
1483,100.4281006
1484,100.8820053
1485,100.1134689
1486,100.0601944
1487,100.4996201
1488,98.2252838
1489,95.14748535
1490,92.80095978
1491,91.16779022
1492,93.91908722
1493,94.9639328
1494,92.32111816
1495,92.87351684
1496,96.61972656
1497,96.06318665
1498,93.52748566
1499,97.81119232
1500,102.4999649
1501,97.31215362
1502,94.16041565
1503,97.25286102
1504,97.41352081
1505,93.76669159
1506,94.47408143
1507,97.79134828
1508,96.68352661
1509,94.60982513
1510,95.71689301
1511,96.06217194
1512,93.40363007
1513,93.25136108
1514,96.90902557
1515,97.87443085
1516,96.98719788
1517,97.32533569
1518,97.991156
1519,97.56175689
1520,96.47869568
1521,92.59014435
1522,91.35660248
1523,94.35812531
1524,92.33946228
1525,86.77779236
1526,89.10918274
1527,93.56116181
1528,94.48315124
1529,95.26531677
1530,95.5996109
1531,95.53203125
1532,94.86304321
1533,94.73539276
1534,94.95852356
1535,92.45540314
1536,89.55560761
1537,96.48076783
1538,101.6704117
1539,101.1116012
1540,99.26638489
1541,95.79969635
1542,96.35613251
1543,99.04161224
1544,97.4596054
1545,95.27419128
1546,93.70580139
1547,91.74040222
1548,88.82595368
1549,89.63406525
1550,94.00833282
1551,95.52661439
1552,95.97552185
1553,91.32848816
1554,87.6434082
1555,90.34005585
1556,90.48724365
1557,86.55230102
1558,83.36521912
1559,80.66537323
1560,88.67739563
1561,98.18256836
1562,93.90274201
1563,89.80818329
1564,86.20198211
1565,86.99510193
1566,92.18209076
1567,91.05846253
1568,87.56081391
1569,85.78444366
1570,79.86574249
1571,55.01426773
1572,50.31735229
1573,74.39236145
1574,84.67117615
1575,87.27236481
1576,88.09454498
1577,88.70870514
1578,89.72776795
1579,90.24576111
1580,89.7925766
1581,88.68732453
1582,87.10023651
1583,87.71972504
1584,88.59454956
1585,84.28162537
1586,82.65897522
1587,87.76941223
1588,88.76990204
1589,86.04272308
1590,83.48811493
1591,81.01631164
1592,84.08802795
1593,86.14660187
1594,85.12209168
1595,84.09728241
1596,83.07216186
1597,86.90185089
1598,92.48635864
1599,91.59455261
1600,90.95461273
1601,91.63924103
1602,89.89360962
1603,85.44089356
1604,84.28240356
1605,84.39664307
1606,84.4
1607,84.45054169
1608,84.6792923
1609,83.71892853
1610,81.4300705
1611,82.62574921
1612,85.14498596
1613,81.27732544
1614,78.4133667
1615,79.33053741
1616,81.92787628
1617,86.28702087
1618,82.44239197
1619,75.82093201
1620,85.12379913
1621,90.92084198
1622,86.78378601
1623,83.60303192
1624,81.30330353
1625,81.24937134
1626,81.84438324
1627,82.88048706
1628,84.16315765
1629,86.00620727
1630,85.09394836
1631,82.09721985
1632,81.31142426
1633,81.95664062
1634,91.53445282
1635,87.73443298
1636,60.83140411
1637,63.1698143
1638,82.34812317
1639,80.75354919
1640,77.49974976
1641,76.92140503
1642,78.50246735
1643,82.78474732
1644,82.75587768
1645,81.01878815
1646,83.86552277
1647,86.06102753
1648,86.29291077
1649,86.15025635
1650,85.68621216
1651,78.41688995
1652,70.64382248
1653,73.31524506
1654,76.03017578
1655,78.81939392
1656,81.30807037
1657,83.63379517
1658,81.53116302
1659,79.9173233
1660,81.43083191
1661,80.76772461
1662,77.85540466
1663,80.63253784
1664,84.38625793
1665,77.38841858
1666,76.09481811
1667,85.66418457
1668,85.66607361
1669,80.06118164
1670,84.21063538
1671,87.02027588
1672,81.29184418
1673,78.57377014
1674,78.92469788
1675,77.98877106
1676,77.15921478
1677,81.84378662
1678,82.59503937
1679,76.61867828
1680,74.91059113
1681,75.37960205
1682,74.61446381
1683,74.17735443
1684,74.88170471
1685,75.90818176
1686,77.20025482
1687,74.31981659
1688,71.03098755
1689,69.85498962
1690,68.99147339
1691,68.5207962
1692,71.72583771
1693,76.19477081
1694,80.553685
1695,82.37736969
1696,79.4304184
1697,80.24096222
1698,83.07170868
1699,73.39780578
1700,66.62902222
1701,69.81737595
1702,71.93610382
1703,73.23582916
1704,73.19341125
1705,73.30146179
1706,74.95761413
1707,75.56735687
1708,75.09389038
1709,71.39190369
1710,67.64109726
1711,69.77421417
1712,71.25218506
1713,71.84506683
1714,72.43820801
1715,72.84270019
1716,69.8747879
1717,69.05002365
1718,71.90090332
1719,73.61372375
1720,74.79541016
1721,72.41687012
1722,70.99052887
1723,71.58551636
1724,71.64770813
1725,71.40957336
1726,73.91565857
1727,75.23040161
1728,73.20386353
1729,71.75231934
1730,70.67881165
1731,67.50356293
1732,66.37787552
1733,71.87116852
1734,70.20766754
1735,63.27724762
1736,64.21815414
1737,65.79217529
1738,66.62959366
1739,66.93324509
1740,66.81354294
1741,68.39331894
1742,69.90403595
1743,70.38340759
1744,69.81119537
1745,68.372229
1746,69.46748352
1747,69.93379669
1748,66.81235962
1749,66.71545105
1750,69.11797485
1751,69.4
1752,69.87340088
1753,72.03822021
1754,71.72937012
1755,69.4429306
1756,69.20000153
1757,69.36825714
1758,70.0911438
1759,67.98340912
1760,63.76408997
1761,63.95107193
1762,65.01711349
1763,67.43099671
1764,67.02655335
1765,64.73200989
1766,64.71388473
1767,67.16243591
1768,75.38417206
1769,73.95704803
1770,66.94025574
1771,68.69809418
1772,69.3647232
1773,67.42677307
1774,64.91407318
1775,62.22872848
1776,63.32011032
1777,65.05221252
1778,67.84294433
1779,68.7769455
1780,69.25704804
1781,72.41550903
1782,71.97920227
1783,66.87406158
1784,64.45551834
1785,63.28267746
1786,65.22978516
1787,62.90104218
1788,56.32568436
1789,62.41391296
1790,68.58769302
1791,67.61241531
1792,66.98880386
1793,66.62285767
1794,64.99799729
1795,63.98251648
1796,64.59314194
1797,62.7799736
1798,59.86299591
1799,62.4306427
1800,64.09513245
1801,64.33981323
1802,66.06143494
1803,67.52884445
1804,63.60932083
1805,64.34753418
1806,69.98516693
1807,70.90490418
1808,70.14592438
1809,66.34217606
1810,62.24510498
1811,57.94802017
1812,60.52813339
1813,58.25149536
1814,45.95965042
1815,51.48682938
1816,63.34518356
1817,65.06806946
1818,65.49123077
1819,64.3830101
1820,60.18839187
1821,56.68693695
1822,58.04302444
1823,60.78067551
1824,64.48127136
1825,61.85228729
1826,60.60083542
1827,62.32981339
1828,60.82073669
1829,58.86054764
1830,63.06443558
1831,62.52177124
1832,57.07824707
1833,54.88288269
1834,54.1147789
1835,56.09657135
1836,57.9192276
1837,59.56117935
1838,58.32110214
1839,58.11928177
1840,59.36008987
1841,59.70014877
1842,59.58115158
1843,58.46311111
1844,55.74280319
1845,51.88951111
1846,59.57495651
1847,62.99407654
1848,58.63846893
1849,51.91013107
1850,47.11020813
1851,56.82840958
1852,61.33717346
1853,61.58650513
1854,61.48201294
1855,61.52825317
1856,61.90268936
1857,60.33626938
1858,58.88510437
1859,62.38395157
1860,59.55936279
1861,51.30723267
1862,52.67865372
1863,56.340065
1864,63.22492218
1865,62.30416794
1866,59.87425842
1867,64.51133576
1868,61.77585144
1869,52.99785233
1870,55.59466629
1871,58.41516342
1872,60.67501678
1873,65.34683991
1874,68.18873291
1875,59.0130104
1876,47.33497162
1877,33.87772827
1878,46.68690796
1879,55.26679611
1880,57.40737381
1881,57.90288086
1882,56.96002274
1883,52.42170944
1884,55.01534271
1885,61.33692779
1886,63.73496017
1887,63.6873436
1888,60.90904312
1889,64.75527725
1890,67.11017837
1891,64.20218353
1892,61.75100632
1893,59.90878067
1894,60.66827927
1895,57.29042359
1896,50.70424576
1897,56.21265488
1898,58.26132736
1899,54.96437378
1900,53.97935638
1901,54.62591782
1902,58.68846741
1903,54.92483597
1904,48.83976974
1905,55.06784744
1906,57.59617996
1907,56.83311081
1908,58.13903961
1909,60.02925949
1910,62.70313416
1911,59.05088883
1912,56.00984802
1913,59.32424087
1914,56.09241028
1915,50.33144455
1916,49.69331284
1917,52.02214813
1918,56.87478485
1919,55.25729828
1920,53.93857422
1921,53.29932175
1922,57.41393433
1923,60.10009384
1924,56.90008164
1925,52.77821121
1926,49.20138474
1927,50.48288956
1928,53.21804275
1929,56.73873672
1930,55.07082825
1931,48.92391739
1932,37.8835968
1933,43.85389404
1934,49.15978699
1935,50.7021019
1936,47.05704193
1937,41.71611328
1938,35.02492256
1939,41.44011612
1940,51.4289711
1941,48.8524231
1942,48.79126205
1943,50.45672455
1944,51.87548599
1945,51.71589508
1946,49.90914383
1947,52.4692337
1948,54.45243836
1949,55.09846192
1950,50.2967514
1951,47.65402908
1952,52.56955948
1953,52.15044174
1954,50.82368164
1955,52.89580078
1956,52.65900497
1957,51.14266968
1958,48.93846741
1959,48.29799423
1960,48.83812332
1961,50.00642014
1962,50.85557861
1963,51.37512512
1964,47.19283447
1965,44.17012787
1966,43.12981949
1967,51.42694626
1968,71.70965423
1969,112.8498764
1970,83.28991394
1971,48.97373581
1972,49.62544861
1973,34.71283112
1974,22.84013062
1975,46.19876633
1976,49.82574463
1977,44.45263595
1978,44.84457855
1979,48.94433899
1980,54.69227524
1981,50.50666351
1982,47.03230667
1983,44.23205261
1984,46.19635086
1985,49.0583374
1986,52.85819855
1987,46.81553269
1988,44.28971176
1989,46.7821846
1990,45.9219017
1991,46.83448868
1992,51.03723984
1993,47.04735718
1994,43.64525452
1995,43.77674484
1996,43.4751091
1997,43.35954437
1998,43.88611603
1999,44.41292801
2000,44.45027924
2001,43.1323143
2002,46.35041275
2003,48.90150451
2004,44.15129394
2005,42.89446945
2006,43.29163361
2007,44.74478073
2008,45.65386887
2009,45.94734802
2010,44.49250488
2011,42.77449188
2012,41.51813202
2013,43.63673553
2014,44.82379074
2015,45.05483856
2016,42.40349731
2017,44.28540878
2018,48.32453308
2019,47.66092377
2020,46.03007584
2021,44.21424942
2022,46.34027252
2023,49.65487595
2024,53.10838776
2025,49.91563644
2026,44.76532669
2027,39.03885575
2028,41.83576889
2029,41.13299027
2030,38.37699814
2031,40.51046295
2032,42.56686096
2033,44.02985687
2034,39.62445984
2035,40.53894959
2036,44.68162766
2037,43.34510422
2038,41.05786438
2039,38.50340576
2040,39.57387009
2041,44.35178299
2042,49.32274627
2043,35.65844078
2044,36.17208939
2045,44.18537216
2046,42.44181595
2047,41.03681335
2048,39.04963074
2049,32.33583832
2050,32.62830048
2051,35.67034836
2052,33.65386887
2053,35.18145027
2054,37.31704254
2055,34.75986137
2056,37.40742722
2057,40.26129303
2058,35.94945221
2059,34.70111847
2060,36.75840607
2061,45.39211807
2062,41.90979538
2063,37.30168762
2064,39.05744934
2065,39.72631531
2066,39.29705124
2067,37.13359986
2068,37.14329605
2069,36.40489807
2070,33.69744263
2071,31.71201096
2072,31.55292778
2073,33.85693932
2074,37.05252609
2075,40.68501511
2076,44.75564194
2077,41.17425537
2078,35.19436874
2079,27.57827377
2080,31.65599403
2081,30.90925865
2082,27.08307991
2083,27.89957085
2084,30.0933258
2085,32.7556385
2086,33.70931702
2087,35.61106758
2088,38.20874558
2089,41.75509415
2090,41.14453354
2091,38.18150101
2092,32.71925049
2093,31.00451355
2094,30.5006115
2095,30.77404022
2096,30.18096619
2097,30.34572372
2098,31.57758369
2099,-3.763116288
2100,-3.207803989
2101,28.6556427
2102,26.32474709
2103,29.53812828
2104,34.72118645
2105,30.05399017
2106,30.8694603
2107,32.66562538
2108,29.50474472
2109,16.93960381
2110,12.99148865
2111,32.80428734
2112,36.71595535
2113,33.9879509
2114,25.30980759
2115,30.31630592
2116,31.9383503
2117,29.88703537
2118,28.09319458
2119,29.00956688
2120,30.56174355
2121,26.69361381
2122,27.88038712
2123,29.1529007
2124,25.28029175
2125,26.42523766
2126,26.90758171
2127,24.55363312
2128,20.38533783
2129,22.69409294
2130,31.29913902
2131,29.21851883
2132,28.65256615
2133,29.11495171
2134,29.80929413
2135,30.80628395
2136,31.5204853
2137,31.24242706
2138,29.66751213
2139,28.54297371
2140,28.4037838
2141,27.45161018
2142,25.80323524
2143,23.68674545
2144,22.57129478
2145,25.92293091
2146,30.00437584
2147,29.16682015
2148,27.76960983
2149,25.15018997
2150,20.67806702
2151,24.59647713
2152,26.8
2153,27.11717377
2154,31.17705994
2155,29.96153183
2156,27.76337128
2157,32.10826149
2158,28.31883545
2159,24.65172501
2160,24.79204407
2161,10.49644709
2162,12.01882935
2163,27.26627808
2164,25.86065216
2165,25.39999962
2166,25.85780639
2167,27.68722916
2168,26.13227539
2169,25.43329086
2170,26.98305054
2171,29.23082619
2172,32.774123
2173,35.39580803
2174,27.49247322
2175,27.47650375
2176,27.10176277
2177,19.89578323
2178,19.58317337
2179,19.8691391
2180,20.09541874
2181,21.36926155
2182,25.64302063
2183,28.72660179
2184,23.62535858
2185,27.79140396
2186,27.56036072
2187,19.25558434
2188,22.37839852
2189,27.05874062
2190,30.28841362
2191,23.75137253
2192,21.94881287
2193,21.93011894
2194,22.78375855
2195,25.87222519
2196,27.61024437
2197,27.56300163
2198,23.85750999
2199,27.27443047
2200,29.12858543
2201,24.56273193
2202,25.08838348
2203,25.4
2204,25.28325768
2205,24.56861191
2206,25.16488686
2207,25.32920112
2208,24.04135857
2209,27.32586517
2210,27.57299271
2211,25.52419701
2212,23.94745293
2213,26.84272156
2214,30.89235687
2215,34.76699448
2216,32.09507484
2217,29.62397766
2218,27.23591995
2219,24.50462188
2220,26.57973633
2221,28.27773819
2222,28.10102844
2223,30.98103332
2224,30.78963089
2225,29.25116196
2226,28.67449951
2227,23.07304077
2228,25.11248169
2229,34.15982208
2230,25.63940506
2231,24.64377975
2232,26.47651062
2233,27.92230644
2234,24.57778359
2235,24.55035896
2236,25.93017425
2237,21.15083771
2238,27.16489716
2239,30.30813293
2240,26.1024395
2241,28.56875801
2242,28.82258377
2243,28.61420479
2244,30.06664276
2245,24.92065277
2246,20.03405991
2247,18.14892368
2248,28.04248581
2249,27.6957283
2250,29.06927757
2251,36.46820488
2252,26.99487152
2253,22.73688316
2254,23.68241882
2255,30.83203201
2256,31.53439598
2257,27.65863037
2258,22.11834602
2259,23.87227822
2260,22.65405426
2261,23.42562447
2262,27.03849907
2263,24.988731
2264,2.576333146
2265,-7.109254551
2266,22.49979859
2267,31.36276398
2268,30.69126625
2269,26.37669373
2270,27.84500351
2271,28.91984444
2272,29.16490211
2273,28.49544983
2274,26.73045616
2275,23.52928772
2276,24.339534
2277,29.71553993
2278,28.83153
2279,26.96787071
2280,26.38763657
2281,28.41506042
2282,29.00541
2283,26.23011207
2284,25.06777878
2285,30.97801285
2286,21.80903702
2287,22.2384079
2288,27.43812485
2289,27.58613396
2290,20.75481262
2291,19.54134979
2292,22.87499275
2293,24.20935249
2294,22.61987762
2295,22.12878952
2296,23.43175392
2297,26.10503922
2298,25.51021652
2299,22.6384552
2300,19.31849403
2301,25.12051926
2302,29.88086281
2303,28.4398613
2304,20.24160309
2305,20.68867569
2306,27.63076363
2307,30.31056328
2308,24.33420372
2309,26.27482872
2310,28.10731621
2311,30.60016098
2312,33.71164856
2313,28.17889748
2314,25.10309601
2315,24.42230034
2316,25.91835556
2317,23.97109718
2318,27.21307716
2319,27.47380905
2320,19.57941742
2321,24.23080483
2322,25.81187477
2323,25.27070961
2324,23.57059135
2325,27.62871132
2326,24.94870606
2327,22.23138924
2328,23.6424984
2329,20.63135872
2330,19.69094925
2331,21.92936706
2332,27.12800598
2333,23.20685196
2334,26.34962921
2335,26.06712151
2336,18.68159904
2337,21.70300903
2338,26.23746872
2339,26.03081703
2340,20.55594635
2341,23.43117485
2342,26.79354401
2343,25.17307282
2344,19.34655991
2345,20.25607224
2346,19.76165161
2347,23.13113671
2348,28.36374893
2349,26.23794403
2350,34.23034287
2351,32.81206665
2352,26.539851
2353,29.42977829
2354,23.8710598
2355,22.8410469
2356,23.53127708
2357,21.40050392
2358,22.010289
2359,18.94258347
2360,18.24808006
2361,24.03615799
2362,27.54837761
2363,22.49707642
2364,17.37711239
2365,16.808815
2366,23.99814606
2367,24.81760483
2368,25.24449387
2369,25.52563438
2370,22.46115189
2371,24.72442322
2372,26.5488739
2373,25.51867066
2374,19.42329025
2375,26.3339737
2376,29.69263801
2377,27.54516334
2378,20.48813209
2379,23.410923
2380,21.66496811
2381,22.27515869
2382,24.33392067
2383,18.01615791
2384,18.93056221
2385,20.90722771
2386,20.15969811
2387,13.04039784
2388,16.12919426
2389,19.33020363
2390,19.62737713
2391,17.2262064
2392,23.56895714
2393,27.97029915
2394,25.91470604
2395,21.42657662
2396,24.68079834
2397,18.52642517
2398,17.02687969
2399,17.60000019
2400,18.4930727
2401,27.8118187
2402,25.33027687
2403,23.44820442
2404,23.77893066
2405,21.13415718
2406,20.5567009
2407,27.74758301
2408,32.7626152
2409,27.81045074
2410,21.72936172
2411,20.72703857
2412,23.95774345
2413,28.24311447
2414,27.61836052
2415,26.99326515
2416,26.58395844
2417,25.17599945
2418,22.20318718
2419,19.22892799
2420,18.80000019
2421,20.16078453
2422,20.70838547
2423,17.27255287
2424,19.93971558
2425,27.21460762
2426,27.36672821
2427,20.2900383
2428,21.7044445
2429,22.23986378
2430,19.07443008
2431,18.88068371
2432,24.80087624
2433,19.7605793
2434,12.17537651
2435,13.37324982
2436,18.1115015
2437,16.08348122
2438,17.97783432
2439,17.41799183
2440,17.93046551
2441,20.3761795
2442,23.53874512
2443,24.06545754
2444,21.70448074
2445,18.14909916
2446,15.83397465
2447,19.16211281
2448,19.10552521
2449,21.43495941
2450,23.27717934
2451,22.64665222
2452,22.96432724
2453,19.7551487
2454,20.50132408
2455,23.25022735
2456,24.23498917
2457,19.29999485
2458,20.51364937
2459,20.82384911
2460,17.31777134
2461,10.70866699
2462,20.44118462
2463,21.73185997
2464,20.09982567
2465,18.61407394
2466,19.29339981
2467,20.41274261
2468,17.93541107
2469,17.34621487
2470,17.61269569
2471,15.78283405
2472,13.21862068
2473,18.30114899
2474,23.45907554
2475,27.35610581
2476,29.51120148
2477,20.35579796
2478,14.61883373
2479,16.31170597
2480,20.60956497
2481,21.85232773
2482,23.94505997
2483,20.94671059
2484,18.26654396
2485,18.59419441
2486,21.64957695
2487,19.39084205
2488,18.31326637
2489,16.25155659
2490,14.94167004
2491,17.86177978
2492,31.12098389
2493,21.93155518
2494,23.44064369
2495,41.54632034
2496,55.76641235
2497,22.82668229
2498,15.36789246
2499,13.92813415
2500,20.0582779
2501,23.9165741
2502,14.01753254
2503,12.0674345
2504,13.90449772
2505,18.50639381
2506,18.91301651
2507,12.48609905
2508,11.83462162
2509,15.65748615
2510,20.67169762
2511,22.27413673
2512,20.94866791
2513,22.02954483
2514,17.94650841
2515,18.66888599
2516,16.58697643
2517,15.35556984
2518,19.95529823
2519,23.72002525
2520,22.02926674
2521,17.3598381
2522,13.84460449
2523,13.69315281
2524,16.52440128
2525,23.74644699
2526,15.77086067
2527,12.9000927
2528,15.55849552
2529,17.22275696
2530,12.78123226
2531,13.38937931
2532,10.53661385
2533,13.48692513
2534,19.12310047
2535,17.06445217
2536,15.74480362
2537,23.24070816
2538,20.397715
2539,18.23957252
2540,21.54512253
2541,20.42829819
2542,16.78923473
2543,17.72575607
2544,13.39523887
2545,13.48323136
2546,20.88263168
2547,14.84977417
2548,20.82104874
2549,16.40587368
2550,13.30237503
2551,15.35065479
2552,18.72154617
2553,10.9085144
2554,10.96401615
2555,12.30414314
2556,15.71279506
2557,15.04791965
2558,9.082675171
2559,18.41747913
2560,18.27295265
2561,17.1569603
2562,12.6102932
2563,11.6799902
2564,18.88251801
2565,20.38688526
2566,17.74742584
2567,13.07381077
2568,12.90938358
2569,16.15917892
2570,18.62250939
2571,17.84045162
2572,20.02060203
2573,15.27196903
2574,15.55479469
2575,18.39502907
2576,18.00139046
2577,12.88368206
2578,14.22899875
2579,14.69374008
2580,13.07214947
2581,19.0718956
2582,25.13970985
2583,14.42400455
2584,21.16905289
2585,32.02397499
2586,20.73329964
2587,14.4162178
2588,15.94829502
2589,15.23480549
2590,16.51061401
2591,23.616222
2592,18.16956367
2593,14.07511311
2594,13.23945179
2595,13.55069675
2596,13.2113472
2597,11.51490259
2598,17.09666386
2599,17.83171311
2600,18.1834507
2601,18.25319653
2602,16.49657917
2603,15.21608105
2604,15.55648384
2605,16.34262276
2606,18.1454895
2607,17.86020088
2608,15.24267292
2609,14.30818787
2610,21.55639725
2611,14.72601356
2612,-29.49148598
2613,-12.2650898
2614,13.5770319
2615,12.66602154
2616,11.85362005
2617,12.19607105
2618,15.41771317
2619,11.35528965
2620,15.7966568
2621,19.04076385
2622,10.61656418
2623,-2.234858632
2624,15.28728676
2625,14.88767929
2626,15.51365165
2627,16.14429608
2628,6.235162687
2629,4.046249532
2630,26.92111816
2631,8.498914814
2632,22.46660957
2633,16.07546749
2634,14.04876804
2635,14.6
2636,15.93379269
2637,17.76994019
2638,14.31290016
2639,13.10187759
2640,12.84146481
2641,13.7219265
2642,10.9464983
2643,9.017627143
2644,14.68318672
2645,24.18482666
2646,8.910941029
2647,14.83398476
2648,14.19246426
2649,13.12016163
2650,12.79999981
2651,14.42814732
2652,18.89888649
2653,23.0140461
2654,14.47697887
2655,13.99999981
2656,11.77638683
2657,10.34619389
2658,12.11218739
2659,14.92528954
2660,15.34944973
2661,16.17025013
2662,18.61865845
2663,11.99512672
2664,8.069716072
2665,9.244226551
2666,11.52456989
2667,14.77178326
2668,19.33303528
2669,14.8949667
2670,16.1238039
2671,15.37624092
2672,15.62141113
2673,15.91627102
2674,10.19439344
2675,5.443485975
2676,10.19491234
2677,12.43189773
2678,7.497976016
2679,5.326335811
2680,2.016160408
2681,2.884912729
2682,6.861936761
2683,9.6
2684,10.37786293
2685,12.69124184
2686,14.3571043
2687,17.36561699
2688,13.19166184
2689,9.251313878
2690,10.47040577
2691,12.29494591
2692,9.361852837
2693,7.436940479
2694,17.36211453
2695,14.62504101
2696,15.51370621
2697,16.72392216
2698,9.938391113
2699,11.22506418
2700,12.60414276
2701,11.47206745
2702,14.32364864
2703,17.4107708
2704,12.75418501
2705,11.68320618
2706,9.458678722
2707,15.59574852
2708,12.21519508
2709,9.510738181
2710,13.87581425
2711,16.85616608
2712,51.94250374
2713,204.2986427
2714,25.75380821
2715,18.33267097
2716,-2.379673624
2717,1.367512464
2718,8.859102154
2719,14.66832085
2720,14.96031837
2721,8.077765465
2722,34.76486206
2723,159.2787415
2724,5.091706777
2725,10.59022541
2726,12.81735687
2727,6.937233448
2728,11.71858482
2729,16.3466053
2730,12.37285366
2731,7.171443175
2732,7.422063542
2733,14.65294781
2734,9.404224302
2735,6.324002838
2736,23.18407784
2737,17.88074036
2738,12.82809181
2739,12
2740,11.03563156
2741,14.16434288
2742,19.7496933
2743,11.08310089
2744,6.268489885
2745,4.630897986
2746,9.065406513
2747,13.13655968
2748,9.99666338
2749,15.29079218
2750,17.03092403
2751,16.62307396
2752,19.54566879
2753,17.32170162
2754,15.02124004
2755,45.05176697
2756,18.15305805
2757,15.95683804
2758,14.77976933
2759,13.37412224
2760,12.1808857
2761,12.39945717
2762,12.90335197
2763,7.699046326
2764,3.974213362
2765,10.28837318
2766,10.68613262
2767,6.975844146
2768,8.501521301
2769,11.63097172
2770,12.84540634
2771,9.671490764
2772,9.942843248
2773,9.508904458
2774,8.440837955
2775,8.675182055
2776,8.507174491
2777,7.793699932
2778,9.406853677
2779,11.3167244
2780,13.22025204
2781,1.660748553
2782,9.62662344
2783,11.58996372
2784,2.722500336
2785,4.438215184
2786,6.999151516
2787,7.956833458
2788,7.885780144
2789,7.41874876
2790,8.655429649
2791,9.245301629
2792,5.058228826
2793,5.122290277
2794,10.61409244
2795,12.07865982
2796,4.431258595
2797,4.2
2798,3.193896008
2799,6.089650201
2800,14.77545986
2801,9.015323925
2802,7.693573
2803,12.55432663
2804,11.72508545
2805,11.21027489
2806,13.41506424
2807,8.73012476
2808,11.15794544
2809,12.35265045
2810,10.92229271
2811,12.39045496
2812,11.82648015
2813,17.17775536
2814,14.45128632
2815,13.64429512
2816,8.989880371
2817,6.802440548
2818,6.6
2819,8.684372711
2820,12.36868896
2821,11.52049923
2822,6.65739994
2823,0.172097254
2824,-3.971713921
2825,9.817417432
2826,8.27778244
2827,14.33498745
2828,10.34444161
2829,6.22009864
2830,9.444385052
2831,1.653427422
2832,14.09548683
2833,17.84359436
2834,14.73994427
2835,13.60000019
2836,15.82348995
2837,12.76107483
2838,9.776950835
2839,8.885785007
2840,7.829476738
2841,6.900050831
2842,7.385806942
2843,10.17994184
2844,8.833508111
2845,4.634082306
2846,14.38633194
2847,9.342933654
2848,14.90410299
2849,15.78773098
2850,15.30264511
2851,0.354708957
2852,8.236332036
2853,12.91748505
2854,9.297254848
2855,8.925938511
2856,7.914398527
2857,14.37569256
2858,9.959375285
2859,6.075952721
2860,10.58017139
2861,6.808361148
2862,3.536998886
2863,9.518201638
2864,14.4772459
2865,11.72829266
2866,7.355513287
2867,4.984111047
2868,2.211328816
2869,5.299813414
2870,9.599999903
2871,11.8213562
2872,16.03211346
2873,6.028175497
2874,8.531383419
2875,11.90495043
2876,13.552845
2877,7.125366307
2878,12.18368177
2879,5.00457325
2880,10.2539814
2881,14.56045017
2882,16.6372776
2883,11.44676819
2884,13.39877167
2885,15.31343078
2886,13.31570835
2887,8.843357945
2888,9.334650135
2889,6.080955982
2890,1.77272377
2891,4.091195536
2892,10.73901615
2893,13.06907558
2894,6.157694626
2895,5.877764511
2896,10.09716568
2897,9.794877719
2898,5.164320231
2899,7.326752377
2900,10.4617589
2901,9.499947929
2902,10.75821266
2903,10.41583862
2904,9.409574222
2905,8.837275791
2906,7.135128022
2907,8.57013626
2908,11.17009258
2909,13.00000019
2910,11.62010899
2911,9.760673332
2912,10.19122639
2913,8.412317371
2914,8.46107645
2915,6.38819828
2916,-0.950474718
2917,6.263236188
2918,4.988316202
2919,13.82629395
2920,17.17792645
2921,8.79486084
2922,9.128479861
2923,22.97808838
2924,5.121691092
2925,9.053793813
2926,11.29778328
2927,8.842940807
2928,9.715583324
2929,12.81345825
2930,13.83021526
2931,11.51969509
2932,11.16029348
2933,9.189395331
2934,2.347626686
2935,4.677944279
2936,6.012150518
2937,9.771149063
2938,9.996392918
2939,15.67811413
2940,4.445638871
2941,2.369977677
2942,9.114472199
2943,8.538900661
2944,9.966708375
2945,7.212222146
2946,5.844054842
2947,5.142627096
2948,3.727785659
2949,9.418408585
2950,10.51899013
2951,6.741139579
2952,2.923989916
2953,2.932537604
2954,7.978142071
2955,8.030844116
2956,13.21953373
2957,18.11443787
2958,8.972968769
2959,9.045533275
2960,13.27815952
2961,12.28819504
2962,11.95660057
2963,13.67042866
2964,6.179425383
2965,7.600551606
2966,8.472981358
2967,4.095306969
2968,9.28240671
2969,10.64850597
2970,9.562645434
2971,13.12469931
2972,9.335613252
2973,6.141106605
2974,9.177203369
2975,10.05020275
2976,14.26384087
2977,14.45454922
2978,12.28381691
2979,10.93278294
2980,9.434964276
2981,6.578752613
2982,10.60120716
2983,6.629078387
2984,3.389317572
2985,1.382772273
2986,8.839942932
2987,8.508042766
2988,10.50476084
2989,1.300281154
2990,4.351969194
2991,11.57664471
2992,9.804930306
2993,19.94674378
2994,17.66252022
2995,11.39527321
2996,5.678931475
2997,11.89704914
2998,18.0560257
2999,15.10811233
3000,4.983120346
