Frequency,Density
0,207.2
1,207.2
2,207.2
3,207.2
4,207.2
5,207.2
6,207.2
7,207.2
8,207.2
9,207.2
10,207.2
11,207.2
12,207.2
13,207.2
14,207.2
15,207.2
16,207.2
17,207.2
18,207.2
19,207.2
20,207.2
21,207.2
22,207.2
23,207.2
24,207.2
25,207.2
26,207.2
27,207.2
28,207.2
29,207.2
30,207.2
31,207.2
32,207.2
33,207.2
34,207.2
35,207.2
36,207.2
37,207.2
38,207.2
39,207.2
40,207.2
41,207.2
42,207.2
43,207.2
44,207.2
45,207.2
46,207.2
47,207.2
48,207.2
49,207.2
50,207.2
51,207.2
52,207.2
53,207.2
54,207.2
55,207.2
56,207.2
57,207.2
58,207.2
59,207.2
60,207.2
61,207.2
62,207.2
63,207.2
64,207.2
65,207.2
66,207.2
67,207.2
68,207.2
69,207.2
70,207.2
71,207.2
72,207.2
73,207.2
74,207.2
75,207.2
76,207.2
77,207.2
78,207.2
79,207.2
80,207.2
81,207.2
82,207.2
83,207.2
84,207.2
85,207.2
86,207.2
87,207.2
88,207.2
89,207.2
90,207.2
91,207.2
92,207.2
93,207.2
94,207.2
95,207.2
96,207.2
97,207.2
98,207.2
99,207.2
100,207.2
101,207.2
102,207.2
103,207.2
104,207.2
105,207.2
106,207.2
107,207.2
108,207.2
109,207.2
110,207.2
111,207.2
112,207.2
113,207.2
114,207.2
115,207.2
116,207.2
117,207.2
118,207.2
119,207.2
120,207.2
121,207.2
122,207.2
123,207.2
124,207.2
125,207.2
126,207.2
127,207.2
128,207.2
129,207.2
130,207.2
131,207.2
132,207.2
133,207.2
134,207.2
135,207.2
136,207.2
137,207.2
138,207.2
139,207.2
140,207.2
141,207.2
142,207.2
143,207.2
144,207.2
145,207.2
146,207.2
147,207.2
148,207.2
149,207.2
150,207.2
151,207.2
152,207.2
153,207.2
154,207.2
155,207.2
156,207.2
157,207.2
158,207.2
159,207.2
160,207.2
161,207.2
162,207.2
163,207.2
164,207.2
165,207.2
166,207.2
167,207.2
168,207.2
169,207.2
170,207.2
171,207.2
172,207.2
173,207.2
174,207.2
175,207.2
176,207.2
177,207.2
178,207.2
179,207.2
180,207.2
181,207.2
182,207.2
183,207.2
184,207.2
185,207.2
186,207.2
187,207.2
188,207.2
189,207.2
190,207.2
191,207.2
192,207.2
193,207.2
194,207.2
195,207.2
196,207.2
197,207.2
198,207.2
199,221.7160461
200,272.5134521
201,323.3108826
202,339.0535889
203,339.9833496
204,340.6396545
205,339.3217041
206,338.0037598
207,338.9553039
208,341.8254639
209,344.6956116
210,341.733429
211,338.551123
212,337.8619568
213,341.1238098
214,344.3856507
215,342.4770996
216,339.3687622
217,338.4060486
218,344.3153748
219,350.224707
220,352.6661499
221,353.3663391
222,354.0961731
223,355.1081726
224,356.120166
225,355.330249
226,352.9156189
227,350.5009827
228,350.1759643
229,349.9421509
230,345.8869507
231,335.9051025
232,325.9232544
233,327.3633484
234,331.1867737
235,334.0206238
236,334.0987061
237,334.1767761
238,330.1933716
239,324.4905456
240,319.5888611
241,319.5106995
242,319.4325317
243,319.4913269
244,319.6477539
245,319.7624207
246,318.3537659
247,316.9450989
248,314.6507934
249,311.3619934
250,308.0731934
251,310.4581604
252,313.3571411
253,312.8008728
254,306.2155273
255,299.6301819
256,301.3343078
257,304.9426941
258,306.8966186
259,304.2279846
260,301.5593445
261,301.9237793
262,303.4944763
263,305.0122864
264,306.2695862
265,307.5268921
266,307.2643738
267,306.084967
268,305.044104
269,305.5948242
270,306.1455444
271,304.2825806
272,300.3465576
273,296.4105347
274,299.5422424
275,302.6929138
276,303.8583313
277,302.6761352
278,301.4939331
279,301.4000061
280,301.4
281,301.9156189
282,303.257019
283,304.5984192
284,308.3556579
285,312.5401306
286,313.9495667
287,309.3676269
288,304.7856873
289,305.9093872
290,308.596936
291,310.3582763
292,309.4091675
293,308.4600769
294,311.4173889
295,315.8491455
296,319.2583374
297,318.5456726
298,317.8330139
299,319.4131104
300,322.1069946
301,324.1050659
302,322.1231079
303,320.1411438
304,320.8401977
305,323.1406189
306,325.632489
307,329.7598327
308,333.8871643
309,331.976123
310,325.7814636
311,319.8674866
312,317.8808594
313,315.89422
314,313.2948303
315,310.1938599
316,307.0268554
317,302.0146301
318,297.002417
319,296.2994446
320,299.5632874
321,302.8006592
322,302.8803101
323,302.959967
324,301.7313965
325,299.1810059
326,296.6306152
327,294.866626
328,293.1121948
329,293.3108643
330,295.6248779
331,297.9388916
332,298.6218628
333,299.2605835
334,300.9476807
335,303.823645
336,306.6996033
337,304.099939
338,301.3022217
339,299.5037109
340,298.8638611
341,298.223999
342,296.0432434
343,293.8024231
344,294.1213928
345,297.4045227
346,300.6876404
347,299.7166565
348,298.5949341
349,297.7364441
350,297.1752502
351,296.6140564
352,294.8012085
353,292.9561951
354,291.6906555
355,291.0485413
356,290.4064209
357,289.922937
358,289.4410645
359,288.1157226
360,285.9460083
361,283.871167
362,290.3841553
363,296.8971436
364,298.2307373
365,294.8516418
366,291.5635681
367,290.5975403
368,289.6315186
369,288.8434509
370,288.199054
371,287.9856568
372,293.4662537
373,298.9468506
374,299.490332
375,296.5871338
376,293.6310364
377,290.2419678
378,286.8528992
379,285.2946533
380,284.8102112
381,284.1029297
382,282.1640259
383,280.2251221
384,277.4091003
385,274.1757019
386,271.4190246
387,270.5293213
388,269.6396118
389,272.4158936
390,276.5433472
391,279.7890747
392,280.5178833
393,281.2466736
394,281.2720398
395,281.1099792
396,282.1721436
397,285.820459
398,289.4687744
399,294.4358154
400,299.627594
401,301.6318543
402,298.628595
403,295.6253235
404,296.076123
405,296.8070678
406,297.3879028
407,297.7942322
408,298.2147827
409,309.0294312
410,319.8440796
411,330.2214172
412,340.2288452
413,349.1414856
414,346.0479431
415,342.9544006
416,339.9618164
417,337.029364
418,332.6143921
419,321.0406433
420,309.4668884
421,301.1661133
422,294.1525208
423,288.2204895
424,285.2828369
425,282.3451782
426,285.5238342
427,290.0962097
428,292.4633545
429,290.9927918
430,289.5222229
431,288.6504822
432,287.83302
433,285.5151367
434,281.5072082
435,277.6678711
436,280.3686707
437,283.0694824
438,281.6765381
439,277.3363098
440,273.3263672
441,271.3598267
442,269.3932861
443,267.5976807
444,265.8759552
445,266.5116913
446,273.8949341
447,281.278186
448,278.1523254
449,272.7347412
450,269.2736877
451,268.9451599
452,268.6166321
453,267.5857147
454,266.5173523
455,266.2120514
456,266.6231995
457,266.8281463
458,264.7711823
459,262.7142181
460,262.7523834
461,263.9049743
462,264.1189392
463,261.0710327
464,258.0231293
465,258.5147461
466,259.9159637
467,260.8608826
468,261.0258301
469,261.1907745
470,258.6291107
471,255.905896
472,254.8148743
473,255.2277252
474,255.4538208
475,253.9666718
476,252.4795258
477,252.9522125
478,254.3575684
479,254.7591583
480,252.2776489
481,249.7961334
482,249.5391052
483,249.7046387
484,250.0106384
485,250.5075256
486,251.0095734
487,252.0868011
488,253.164032
489,253.9454987
490,254.5258881
491,254.8632782
492,254.1166199
493,253.3699707
494,251.2765686
495,248.7862427
496,247.5920013
497,248.6717804
498,249.7515503
499,248.8474396
500,247.8501312
501,249.0424927
502,252.0361847
503,254.3132538
504,252.316275
505,250.3193054
506,249.6151825
507,249.3654144
508,249.9596527
509,252.2088989
510,254.4581573
511,250.6169983
512,246.3659088
513,246.372702
514,250.0424835
515,252.8971191
516,250.7273346
517,248.557544
518,249.9854706
519,252.6575592
520,253.4116668
521,250.5708923
522,247.7301239
523,253.4233521
524,259.5262695
525,260.1318787
526,256.4512421
527,253.7721374
528,255.948349
529,258.1245606
530,261.4799133
531,265.164917
532,265.7184326
533,261.4446594
534,257.1920013
535,256.0181152
536,254.8442352
537,253.4091705
538,251.8151001
539,249.9813171
540,247.3789246
541,244.7765259
542,249.3572693
543,255.1531219
544,256.4459961
545,252.7479096
546,249.6468628
547,252.2538757
548,254.8608856
549,255.9014526
550,256.3221893
551,255.5989624
552,252.6520752
553,249.7051941
554,251.4684967
555,253.4061706
556,252.5578736
557,249.7760834
558,247.0857758
559,244.7240814
560,242.3623901
561,246.8583252
562,252.5972656
563,254.1908325
564,251.2352203
565,248.865625
566,251.3160065
567,253.7663849
568,252.3940949
569,249.6886292
570,247.8410248
571,247.418042
572,246.9990082
573,246.9143707
574,246.8297211
575,245.9206665
576,244.5655273
577,243.1857941
578,241.745105
579,240.304425
580,240.3572998
581,240.5268951
582,239.4897491
583,237.5382782
584,235.5146606
585,233.2224488
586,230.9302368
587,232.9266846
588,235.644989
589,238.8756348
590,242.6155182
591,245.5473969
592,243.8464416
593,242.1454926
594,243.1562622
595,244.8582275
596,244.8111816
597,242.5973206
598,240.475
599,239.1970184
600,237.919043
601,238.4315735
602,239.5398132
603,238.6826202
604,234.9294342
605,231.6442291
606,235.74104
607,239.8378479
608,240.7553009
609,240.4136963
610,240.4879517
611,241.257019
612,242.0521851
613,243.591217
614,245.130249
615,242.4497009
616,237.9154205
617,237.1088135
618,243.0154236
619,248.7345215
620,245.565329
621,242.3961395
622,239.813327
623,237.4993042
624,236.1207733
625,236.4637909
626,236.7556946
627,234.5247375
628,232.2937836
629,231.5408386
630,231.4549896
631,232.8826752
632,237.0062469
633,241
634,241
635,241
636,245.3644562
637,251.557138
638,253.6692475
639,249.1080475
640,244.7808838
641,244.4364349
642,244.0919922
643,242.8632813
644,241.3123596
645,240.7194702
646,241.4953888
647,242.0017975
648,239.8451874
649,237.6885742
650,238.1346527
651,239.3430725
652,240.5123993
653,241.6351715
654,242.0772858
655,238.361322
656,234.6453522
657,235.4290375
658,237.1584229
659,238.8439117
660,240.4877991
661,240.6471527
662,234.933432
663,229.2197113
664,230.2217834
665,232.040863
666,232.3959778
667,231.7025787
668,231.3431946
669,231.8635498
670,232.383902
671,235.7636902
672,239.2347626
673,240.630722
674,240.9780304
675,240.1652679
676,237.2982391
677,234.6204743
678,234.9681976
679,235.315921
680,232.5641144
681,228.8238556
682,227.1994018
683,228.0697449
684,229.5569214
685,234.2595612
686,238.9621948
687,241.4829864
688,243.6614227
689,243.9548859
690,242.8214355
691,241.5436889
692,239.8861145
693,238.2285339
694,237.3421051
695,236.4691773
696,233.6023437
697,229.8465363
698,229.2155212
699,233.2357452
700,236.3735229
701,232.613266
702,228.853006
703,228.8507385
704,229.6382385
705,229.7633392
706,229.3255859
707,229.2244873
708,230.1005157
709,230.9765564
710,229.8056641
711,228.5784943
712,227.5934387
713,226.7163635
714,226.9579437
715,228.8008911
716,230.4813263
717,231.0960083
718,231.7106903
719,230.1478668
720,228.2148743
721,226.2812073
722,224.3470703
723,222.4926819
724,220.8212952
725,219.2606781
726,221.2851288
727,223.3095856
728,223.3995758
729,222.8711456
730,222.8574402
731,223.3861878
732,224.2216644
733,226.1615509
734,228.1014343
735,227.3625397
736,226.4802551
737,225.1156921
738,223.5266296
739,221.6425903
740,219.3459137
741,217.6429749
742,219.2339203
743,220.8248688
744,220.7638885
745,220.4985748
746,223.5143097
747,228.4697937
748,229.0887543
749,222.2709198
750,217.3549988
751,227.8978973
752,238.440805
753,236.5252503
754,232.4474213
755,228.0509643
756,223.4385101
757,221.005719
758,222.7807892
759,224.8210754
760,229.6166076
761,234.412146
762,235.4970429
763,235.852478
764,233.7116089
765,229.7994965
766,226.3343567
767,223.7543915
768,221.8280701
769,226.7240082
770,231.6199554
771,228.3565369
772,223.5467651
773,223.4037079
774,226.4338776
775,227.366626
776,224.4238312
777,221.9934265
778,223.7779968
779,225.5625732
780,223.7101196
781,221.2995148
782,221.071991
783,222.1440064
784,223.4590881
785,225.1574493
786,226.2227905
787,223.718454
788,221.2141174
789,215.7621094
790,210.0345184
791,211.3041321
792,215.8710144
793,218.4399811
794,218.5295807
795,219.1566162
796,221.7565552
797,224.3564941
798,220.7835938
799,217.1056335
800,219.6505463
801,224.2282776
802,225.2670899
803,223.1115814
804,221.5463074
805,221.3665802
806,221.1341797
807,220.2349853
808,219.335788
809,220.3457855
810,221.6953766
811,222.7072815
812,223.5175201
813,222.141629
814,217.5475677
815,214.1321564
816,215.9348175
817,217.7374756
818,221.5435272
819,225.4215454
820,223.7685974
821,220.249231
822,217.7363495
823,216.1110596
824,214.8856629
825,214.5242737
826,214.2464294
827,214.6984314
828,215.1504333
829,215.6026794
830,216.0549469
831,215.6466644
832,214.8320923
833,213.8897217
834,212.8029755
835,212.7808228
836,215.7711456
837,218.5216675
838,217.0709533
839,215.6202392
840,216.2464569
841,217.2444122
842,217.89216
843,218.3460449
844,218.3599365
845,217.8149506
846,217.5084259
847,217.9628509
848,218.4103729
849,218.6831909
850,218.956012
851,219.8395264
852,220.8404541
853,218.457959
854,214.1787384
855,211.1526459
856,209.6950256
857,208.8267548
858,209.7383057
859,210.6449005
860,211.4657868
861,212.2866699
862,217.1985077
863,222.7655914
864,220.6202026
865,214.6845428
866,212.565564
867,214.5757477
868,216.3197937
869,217.4169067
870,218.6091614
871,220.6217377
872,222.6343078
873,219.0200409
874,214.9009674
875,213.3302399
876,212.6891144
877,213.3057129
878,214.9553009
879,214.2851379
880,209.6085327
881,206.4301544
882,209.825003
883,213.2198578
884,216.6167237
885,220.0135803
886,213.3797058
887,204.6528503
888,205.1259491
889,210.5490051
890,212.1350159
891,209.4678619
892,208.9789032
893,213.5801788
894,216.8552979
895,210.9621734
896,205.069046
897,198.205368
898,191.2952576
899,196.5184082
900,205.0920349
901,209.5897278
902,211.5268555
903,212.147168
904,211.1318756
905,210.5289001
906,210.9906677
907,211.1481323
908,208.9303223
909,206.7125122
910,206.6877716
911,206.7802338
912,205.5633636
913,203.9905395
914,206.0595001
915,210.3178894
916,212.2131012
917,211.3794525
918,209.6412537
919,205.8412262
920,202.3954407
921,201.0043579
922,199.6132751
923,204.7468597
924,209.9433197
925,212.2732971
926,214.0374268
927,209.7909119
928,202.7301941
929,201.0699097
930,204.2305267
931,205.3236389
932,202.9982758
933,202.7822143
934,209.7624542
935,215.4542572
936,205.8623627
937,196.2704681
938,198.2000214
939,200.9954285
940,201.7461426
941,201.9326172
942,199.7955841
943,196.343811
944,196.1704193
945,199.3442077
946,199.7549072
947,195.0847992
948,192.0506928
949,195.1347961
950,198.0796509
951,199.2018097
952,200.3239685
953,199.4404846
954,198.4112213
955,195.2235687
956,191.4785889
957,191.865802
958,194.395166
959,195.8454285
960,196.3141052
961,195.7221039
962,193.471109
963,191.3890015
964,189.7935974
965,188.3881256
966,188.2942169
967,188.2003174
968,187.9190735
969,187.6371948
970,188.5793091
971,189.7074829
972,192.1600647
973,195.0762512
974,198.4563446
975,202.1272766
976,201.877774
977,197.5453827
978,193.6608185
979,190.5509491
980,188.1539764
981,187.96539
982,187.7651794
983,187.4821289
984,187.1990753
985,186.9158569
986,186.6326324
987,187.8536621
988,189.2706055
989,189.0921814
990,188.4305451
991,187.7070374
992,186.9504364
993,186.9048065
994,187.4725891
995,187.6396515
996,187.2609039
997,187.3832306
998,188.6148987
999,188.8408661
1000,185.0488586
1001,181.5656677
1002,181.1862366
1003,180.8068085
1004,184.5283447
1005,188.3248596
1006,189.3815857
1007,190.0463715
1008,189.3962769
1009,188.3509949
1010,186.7369019
1011,184.835257
1012,185.4404816
1013,188.0092285
1014,189.5746216
1015,189.9553955
1016,190.2
1017,190.2
1018,189.3149628
1019,185.8838532
1020,183.1977387
1021,184.4374817
1022,185.6416138
1023,186.3095673
1024,186.9775208
1025,186.2618744
1026,185.4980469
1027,185.5665436
1028,185.7576172
1029,182.7501099
1030,178.8308258
1031,179.7651703
1032,182.9215881
1033,183.8013977
1034,183.1314514
1035,183.9128296
1036,186.1153808
1037,186.0023224
1038,182.6486298
1039,180.7791046
1040,181.9296265
1041,182.1225678
1042,179.3404846
1043,177.6399262
1044,181.6715515
1045,185.3349976
1046,184.4705658
1047,183.606134
1048,182.836615
1049,182.0677734
1050,186.2965912
1051,191.0085388
1052,186.2760224
1053,179.6368836
1054,178.5803162
1055,179.350528
1056,182.9217102
1057,187.8347382
1058,186.2143005
1059,180.2380493
1060,177.3493561
1061,177.2529053
1062,176.7207398
1063,175.6591736
1064,176.0248779
1065,178.7286438
1066,179.8860748
1067,177.5671753
1068,176.1450287
1069,177.5952026
1070,178.5053772
1071,176.7641327
1072,175.3378326
1073,176.6929382
1074,178.0686737
1075,180.0056854
1076,181.9427032
1077,182.3761658
1078,182.7638
1079,175.239682
1080,166.9006073
1081,169.3670014
1082,173.8300873
1083,181.2586212
1084,189.5105408
1085,186.6762634
1086,179.5851074
1087,175.522876
1088,172.9957581
1089,172.0589325
1090,172.1561859
1091,171.9326233
1092,171.4460663
1093,169.8042786
1094,166.9805389
1095,167.5447266
1096,172.4161438
1097,175.5133209
1098,175.80578
1099,174.9842651
1100,171.9603943
1101,169.716391
1102,169.4235809
1103,169.1769104
1104,169.0792511
1105,169.4236695
1106,171.6711914
1107,173.4752106
1108,172.595224
1109,171.8
1110,171.8000031
1111,171.6725891
1112,169.2252655
1113,166.8397217
1114,171.247522
1115,175.6553192
1116,179.3073151
1117,182.9336579
1118,176.5668549
1119,169.4079193
1120,168.6870483
1121,168.7851746
1122,169.2167725
1123,169.7076935
1124,175.3041077
1125,182.0828522
1126,178.3352631
1127,171.5524842
1128,169.4352692
1129,168.9434723
1130,170.4032593
1131,172.6668762
1132,170.8698517
1133,167.1277374
1134,164.9099609
1135,163.5304688
1136,164.3956543
1137,166.6633118
1138,168.8738617
1139,171.0442139
1140,172.2762024
1141,172.7697602
1142,170.6814484
1143,166.3355743
1144,165.3058075
1145,167.4800415
1146,166.9697022
1147,163.6075318
1148,163.8588379
1149,168.3114227
1150,170.0139282
1151,168.2318359
1152,167.6170532
1153,168.6076965
1154,168.3231415
1155,166.1424347
1156,163.2368378
1157,159.1703827
1158,157.8413879
1159,161.2155823
1160,164.6605041
1161,168.2353027
1162,171.4744812
1163,174.0578186
1164,174.0843262
1165,168.8151642
1166,165.4810333
1167,166.3763306
1168,167.2415863
1169,168.0378815
1170,168.3071106
1171,167.3111572
1172,161.0431061
1173,141.6104034
1174,131.801297
1175,146.858136
1176,158.0999451
1177,159.1974487
1178,160.3756287
1179,161.773288
1180,163.7544281
1181,167.3505493
1182,169.0001465
1183,165.2019836
1184,161.9278412
1185,160.1276428
1186,158.9313415
1187,159.4316956
1188,159.7735748
1189,159.6734436
1190,158.8523621
1191,156.047049
1192,154.4064545
1193,155.9101898
1194,156.4201508
1195,154.3136688
1196,153.760376
1197,157.1729065
1198,158.7009827
1199,155.5877014
1200,154.415744
1201,157.8323395
1202,159.2739258
1203,156.257489
1204,154.9036407
1205,157.1170136
1206,158.168161
1207,156.8594788
1208,156.7952026
1209,159.1119293
1210,159.8069
1211,157.5895783
1212,155.1835358
1213,152.4606628
1214,151.7841156
1215,154.3067902
1216,156.7888733
1217,159.2120911
1218,158.7439789
1219,154.3998108
1220,152.6334259
1221,154.0486481
1222,153.329129
1223,150.1935578
1224,149.744754
1225,152.0725311
1226,154.9231995
1227,158.2650391
1228,161.005304
1229,163.2345154
1230,160.0616852
1231,152.7617249
1232,152.2718506
1233,156.4312439
1234,159.0748047
1235,160.8004578
1236,159.4778442
1237,156.5323303
1238,141.9856049
1239,122.0661743
1240,132.6991272
1241,155.4777283
1242,160.742865
1243,160.1323578
1244,154.1790985
1245,146.7468811
1246,148.0691345
1247,151.3290283
1248,149.7942688
1249,147.449823
1250,147.6556244
1251,148.1655884
1252,152.1018555
1253,156.2860535
1254,155.5059998
1255,154.5623322
1256,151.90578
1257,149.3419769
1258,148.3196167
1259,147.6467254
1260,150.1018402
1261,152.0065308
1262,150.6758819
1263,150.0902222
1264,152.6506836
1265,153.5726715
1266,149.2685425
1267,147.6129364
1268,152.5348724
1269,154.5911926
1270,151.0001526
1271,149.833847
1272,152.503064
1273,154.9925232
1274,157.2524323
1275,156.9328491
1276,153.9521057
1277,153.8362579
1278,156.0988556
1279,155.5758118
1280,153.2089569
1281,151.1122803
1282,149.1558868
1283,147.3461731
1284,145.5946808
1285,151.6686798
1286,160.0190033
1287,157.8702179
1288,153.6410034
1289,150.6113861
1290,147.7214203
1291,150.3701904
1292,153.2110596
1293,153.7277374
1294,154.2355499
1295,154.6491425
1296,155.0784607
1297,155.595755
1298,154.9593414
1299,150.197403
1300,147.096814
1301,148.1326324
1302,148.3944641
1303,147.2543854
1304,146.7767212
1305,147.1915405
1306,148.5356628
1307,150.8185303
1308,150.6162048
1309,148.5396362
1310,147.2649109
1311,146.433786
1312,147.3206665
1313,148.8799469
1314,145.9760987
1315,141.9195618
1316,143.0334229
1317,144.906781
1318,144.9010437
1319,144.7566712
1320,143.297876
1321,141.9194946
1322,141.1896637
1323,140.900531
1324,142.4653839
1325,143.5139008
1326,143.2007477
1327,143.4499084
1328,144.7032776
1329,143.3113251
1330,138.6083893
1331,136.9546692
1332,138.0003921
1333,138.981839
1334,139.9235412
1335,139.6822723
1336,138.9494018
1337,137.965979
1338,136.9183899
1339,140.0541077
1340,143.7228363
1341,141.8491425
1342,140.809372
1343,152.0385132
1344,159.897992
1345,150.8673309
1346,146.097287
1347,153.3471252
1348,155.5144684
1349,148.5757172
1350,146.814035
1351,151.2322296
1352,149.6973206
1353,143.3818634
1354,139.4766434
1355,136.8436386
1356,137.0758454
1357,138.235051
1358,136.9529358
1359,135.2658142
1360,138.1403778
1361,140.7376251
1362,136.7259293
1363,133.7430863
1364,135.7501251
1365,136.4664597
1366,133.8240479
1367,133.1374496
1368,135.5699127
1369,136.0676865
1370,134.5861756
1371,134.1919693
1372,134.5096268
1373,135.3580536
1374,136.4175354
1375,134.0551544
1376,130.980838
1377,131.9980118
1378,133.2827652
1379,134.7686798
1380,135.3631226
1381,131.6461227
1382,130.0409012
1383,133.6538437
1384,135.4546692
1385,134.6040589
1386,132.9712494
1387,130.6306778
1388,128.5639008
1389,126.6477554
1390,128.240651
1391,130.9035492
1392,130.4422852
1393,129.6401215
1394,132.9460434
1395,135.7124695
1396,135.0722351
1397,133.1431305
1398,127.5911194
1399,124.9484436
1400,126.8714356
1401,128.905574
1402,131.0435058
1403,130.0030777
1404,127.2221206
1405,130.6709915
1406,135.9151367
1407,131.1519562
1408,125.7795715
1409,130.2798996
1410,133.9814118
1411,133.8741974
1412,132.7428528
1413,129.3099533
1414,126.733316
1415,125.2305313
1416,126.3455383
1417,129.3528931
1418,128.5788498
1419,126.321994
1420,126.4609573
1421,126.9986252
1422,127.9658905
1423,128.5313156
1424,126.5934204
1425,124.8367996
1426,123.5440979
1427,123.2116943
1428,124.1817948
1429,125.2749405
1430,126.4613205
1431,127.4168777
1432,128.2802155
1433,125.6100281
1434,122.4568863
1435,128.7235138
1436,133.2996582
1437,128.8671707
1438,126.2331619
1439,127.6394211
1440,127.0581818
1441,124.135759
1442,123.9269714
1443,125.4432007
1444,127.2915833
1445,129.2421814
1446,127.0082092
1447,124.4785965
1448,122.8511658
1449,122.5537704
1450,126.6790375
1451,128.9465378
1452,128.2947968
1453,126.3927567
1454,123.4581604
1455,124.1390106
1456,126.3140793
1457,124.4261978
1458,121.9999985
1459,122
1460,122.3166565
1461,123.9508621
1462,125.0780533
1463,125.2960785
1464,123.573262
1465,120.0828156
1466,118.4730179
1467,117.7090271
1468,118.7234573
1469,120.1301483
1470,125.1566101
1471,128.6226349
1472,125.6705673
1473,123.0785721
1474,121.1093582
1475,118.7271042
1476,115.9904602
1477,114.5768524
1478,113.7006058
1479,114.8611633
1480,116.2396729
1481,116.8976379
1482,118.0227783
1483,120.6562012
1484,121.7457214
1485,120.6478104
1486,119.7446594
1487,118.9756668
1488,118.6303772
1489,118.4105347
1490,117.7717026
1491,116.9940384
1492,115.4533111
1493,113.5639343
1494,110.9211181
1495,112.3551697
1496,117.8643021
1497,118.9958923
1498,118.1139084
1499,115.7904694
1500,112.3083786
1501,93.43358154
1502,84.16986389
1503,104.3811935
1504,114.9346481
1505,112.9454681
1506,113.7901291
1507,116.3333679
1508,115.3545471
1509,113.5734695
1510,110.5843857
1511,109.3428879
1512,114.9922852
1513,116.9486389
1514,113.2909744
1515,114.9534149
1516,120.2768082
1517,118.8608719
1518,115.642746
1519,114.9426377
1520,113.8023483
1521,110.5804047
1522,109.8851166
1523,113.2201385
1524,115.6433716
1525,117.4231064
1526,113.5012497
1527,108.0475769
1528,107.4480301
1529,107.0435456
1530,107.2664078
1531,109.4544388
1532,114.5833267
1533,114.9752716
1534,112.2977417
1535,113.7084458
1536,116.0250976
1537,117.1420593
1538,117.2224793
1539,113.869606
1540,113.6820312
1541,117.4842041
1542,118.4341385
1543,117.8746643
1544,117.1208634
1545,116.5258102
1546,118.0941986
1547,117.1832519
1548,110.3455063
1549,108.3748077
1550,111.0666641
1551,113.596376
1552,116.0653748
1553,112.6963654
1554,109.6184753
1555,109.7308334
1556,109.7135559
1557,109.4887039
1558,107.2202942
1559,103.6204987
1560,103.093158
1561,103.3029938
1562,105.3302811
1563,106.8619873
1564,107.0873749
1565,107.9898148
1566,109.5684616
1567,108.6882385
1568,106.8830002
1569,106.0460739
1570,105.3793884
1571,105.2664276
1572,104.9671982
1573,104.4020569
1574,102.6014847
1575,100.1133896
1576,105.2399826
1577,110.4618118
1578,107.2913895
1579,105.5855942
1580,106.7185608
1581,103.0277725
1582,95.77250366
1583,96.5153717
1584,99.16760407
1585,102.6860428
1586,104.8757828
1587,103.7401306
1588,103.9746368
1589,105.4518601
1590,104.23573
1591,102.1969803
1592,101.6281433
1593,101.3126205
1594,101.7679596
1595,100.6035629
1596,97.75601197
1597,95.99546509
1598,94.62783203
1599,99.40381011
1600,102.3753998
1601,98.72405091
1602,98.5823303
1603,102.3500122
1604,100.8455002
1605,97.30406496
1606,99.97371522
1607,103.0592178
1608,106.9479752
1609,106.5135391
1610,101.2491623
1611,100.3809189
1612,101.1824966
1613,97.94978332
1614,95.90674591
1615,98.08502808
1616,99.2559967
1617,99.37071076
1618,99.22904816
1619,98.99560547
1620,97.04315339
1621,95.03044434
1622,92.8469986
1623,95.03181763
1624,101.2410767
1625,99.45440061
1626,95.6147934
1627,95.96016083
1628,97.00953827
1629,99.65892029
1630,100.4719132
1631,99.8956192
1632,101.6276459
1633,103.6461044
1634,104.1076843
1635,102.7910233
1636,98.40340424
1637,96.72668915
1638,96.61115571
1639,97.64437865
1640,98.51979981
1641,98.05712435
1642,98.26276245
1643,99.30439758
1644,98.77058411
1645,97.61252594
1646,100.6947662
1647,102.877948
1648,102.4141754
1649,100.2644913
1650,96.66813354
1651,95.24388275
1652,94.29399109
1653,93.13250275
1654,92.48584747
1655,92.71828461
1656,94.15726318
1657,96.25041504
1658,95.85980072
1659,95.32677155
1660,94.97750091
1661,93.59688721
1662,91.15054016
1663,92.04528046
1664,93.93791351
1665,96.27052613
1666,97.39819184
1667,96.2311966
1668,95.28463593
1669,94.46725616
1670,91.93384705
1671,90.40189972
1672,93.32456819
1673,95.08961946
1674,95.67449798
1675,93.40982056
1676,91.06697846
1677,97.1569214
1678,97.8438797
1679,89.28948059
1680,86.63294068
1681,86.98470307
1682,88.23441467
1683,89.58426971
1684,91.11035767
1685,91.60685883
1686,91.25447693
1687,92.88913422
1688,94.34648286
1689,92.58248444
1690,91.91278991
1691,92.61880493
1692,92.4499115
1693,92.01579132
1694,92.36921539
1695,92.23185425
1696,91.17095184
1697,89.72610626
1698,88.07483673
1699,83.60591583
1700,81.73522644
1701,87.63958588
1702,90.2
1703,90.2
1704,87.82425079
1705,85.04013977
1706,81.96442871
1707,81.21424866
1708,82.87138214
1709,83.67474976
1710,84.05266266
1711,82.7490921
1712,82.85743103
1713,84.87322998
1714,86.45169983
1715,87.85033569
1716,88.80006866
1717,87.56246338
1718,82.57341919
1719,81.73235016
1720,82.80756836
1721,86.73216248
1722,89.01894073
1723,87.82896729
1724,84.73490753
1725,80.56754303
1726,82.91565704
1727,84.59896545
1728,83.88371735
1729,83.95982361
1730,84.55621796
1731,87.14350433
1732,88.2714325
1733,84.56942749
1734,82.72466583
1735,82.24670563
1736,81.12122955
1737,81.24323731
1738,85.78921966
1739,88.00026398
1740,88.35936889
1741,87.55023041
1742,86.51390076
1743,85.19562836
1744,85.32306976
1745,86.64212342
1746,84.15941162
1747,81.97936401
1748,82.81974793
1749,83.39731598
1750,83.75769348
1751,84.43652496
1752,84.18470306
1753,80.45639496
1754,81.14063415
1755,85.35249634
1756,86.12285004
1757,85.58675537
1758,82.09280701
1759,81.7047287
1760,83.63356018
1761,83.91021271
1762,83.04347381
1763,79.3019516
1764,80.33003388
1765,84.55682373
1766,80.81403809
1767,79.5718277
1768,85.73813019
1769,85.70192108
1770,82.07254638
1771,81.05095215
1772,80.04265747
1773,78.95256195
1774,79.33797149
1775,80.37127228
1776,79.27988739
1777,78.50850372
1778,78.26583099
1779,79.704039
1780,81.59999847
1781,81.6
1782,81.70575257
1783,81.94885559
1784,79.69517212
1785,77.04099274
1786,75.94574585
1787,75.88873596
1788,76.86286163
1789,73.65007324
1790,70.91846237
1791,72.38137512
1792,75.60475769
1793,80.11806488
1794,76.96713715
1795,74.4730072
1796,74.71725617
1797,73.58798523
1798,71.86599426
1799,74.55591126
1800,75.67677765
1801,74.33102722
1802,72.06165924
1803,69.88834076
1804,70.62325211
1805,73.86699219
1806,79.74973755
1807,81.22942963
1808,80.45000916
1809,74.43763122
1810,73.67893066
1811,76.5027298
1812,73.16017914
1813,70.92445373
1814,71.29321137
1815,70.35151978
1816,69.08296051
1817,70.06746826
1818,69.63899231
1819,67.54568558
1820,69.97726593
1821,73.1738739
1822,75.88604889
1823,76.4184845
1824,75.43166046
1825,74.08587646
1826,73.32875061
1827,73.69924622
1828,73.97993317
1829,74.11872711
1830,73.37686462
1831,71.60001678
1832,68.75453796
1833,73.81827393
1834,76.88783875
1835,71.0663208
1836,70.43900757
1837,72.55341797
1838,71.06531983
1839,70.82313843
1840,72.31210632
1841,70.49687881
1842,68.32704925
1843,67.95437012
1844,67.87281265
1845,67.99711227
1846,69.3363205
1847,70.20000076
1848,70.20000076
1849,70.48449402
1850,70.85808563
1851,71.23186188
1852,71.74293366
1853,72.36625977
1854,74.28779297
1855,75.17249145
1856,73.92437134
1857,73.87729034
1858,73.59361878
1859,69.22005921
1860,65.7197876
1861,62.96907883
1862,66.55730896
1863,70.60403748
1864,74.73495331
1865,72.54641114
1866,69.80227661
1867,76.69522858
1868,74.49343567
1869,64.83763886
1870,68.47274628
1871,71.24528656
1872,71.37083435
1873,69.66411362
1874,68.35180435
1875,71.49417419
1876,70.30083313
1877,66.02469864
1878,66.25023041
1879,65.17628708
1880,62.15429535
1881,63.76050263
1882,66.37776489
1883,68.8990509
1884,69.96212921
1885,70.15675964
1886,69.3994873
1887,67.50834427
1888,64.35118408
1889,62.54003754
1890,62.09638138
1891,64.37220383
1892,68.02315598
1893,71.18300629
1894,68.27159729
1895,65.50190201
1896,62.842099
1897,63.67307968
1898,63.94256363
1899,63.30853348
1900,62.67419433
1901,63.67475586
1902,69.51467209
1903,70.88388138
1904,70.01721039
1905,68.23775711
1906,66.52505798
1907,64.87174072
1908,67.8432724
1909,69.6039505
1910,69.09464111
1911,66.92544403
1912,64.87540817
1913,64.36550141
1914,62.90772324
1915,61.43309021
1916,63.6027359
1917,63.08191452
1918,60.27249298
1919,63.9343605
1920,64.63144684
1921,60.79592895
1922,63.98173752
1923,66.66005478
1924,64.74004898
1925,66.04102249
1926,67.89792404
1927,65.97566605
1928,63.36437836
1929,60.43298798
1930,61.3310936
1931,63.51779557
1932,67.11231766
1933,62.08232269
1934,58.63324432
1935,59.27587509
1936,61.26771698
1937,63.06476364
1938,63.32211685
1939,61.69401932
1940,59.72985916
1941,60.63165207
1942,61.76250992
1943,63.13407517
1944,66.48751144
1945,64.85303268
1946,58.01318436
1947,60.63321991
1948,62.14561157
1949,60.98276672
1950,59.81935043
1951,59.30611191
1952,60.34095993
1953,59.82373733
1954,59.31776123
1955,60.87185059
1956,59.43246383
1957,57.13301544
1958,59.98551331
1959,58.59254761
1960,54.33554993
1961,58.4894928
1962,62.13347168
1963,65.25075073
1964,60.57413483
1965,56.52531815
1966,53.92454834
1967,52.57510147
1968,64.78527832
1969,103.1914993
1970,84.26714173
1971,60.17373657
1972,60.82544861
1973,59.56767426
1974,57.76669769
1975,56.59224091
1976,56.89570923
1977,57.97545318
1978,59.28192978
1979,57.67005692
1980,54.48654785
1981,55.66375122
1982,56.55629349
1983,57.14017029
1984,53.47348022
1985,53.77873993
1986,58.23374939
1987,60.16699066
1988,57.52939072
1989,49.13369446
1990,53.7904892
1991,56.58275528
1992,54.48138046
1993,50.3302536
1994,49.93428497
1995,57.29768677
1996,57.19214172
1997,55.24216309
1998,52.74094925
1999,50.238591
2000,49.83385467
2001,55.23751144
2002,53.73994522
2003,50.8
2004,50.80000076
2005,51.74469452
2006,53.83397522
2007,58.98604279
2008,56.51518478
2009,51.20953751
2010,48.96114502
2011,48.19999924
2012,48.41871643
2013,49.87525635
2014,52.94274216
2015,55.98580704
2016,52.80419693
2017,52.67172317
2018,53.71700974
2019,49.4699173
2020,47.23591385
2021,46.77493744
2022,50.49547729
2023,50.33702011
2024,47.88505325
2025,48.81627273
2026,47.40005112
2027,44.67961883
2028,45.61192322
2029,49.11168213
2030,53.70131454
2031,50.10109253
2032,46.96639404
2033,44.42243347
2034,44.68942718
2035,47.22592621
2036,50.6567215
2037,46.78080216
2038,47.02132339
2039,49.61903992
2040,47.7457283
2041,50.22354202
2042,54.2179245
2043,46.98388062
2044,47.99308701
2045,53.00376587
2046,49.78489151
2047,46.90402832
2048,44.58099289
2049,44.44671707
2050,46.15219955
2051,47.80662918
2052,44.17696152
2053,43.4544693
2054,42.98324814
2055,37.59970856
2056,39.97533264
2057,44.54667282
2058,45.22039795
2059,44.70782394
2060,45.07920303
2061,49.39605866
2062,46.15286026
2063,41.96845245
2064,41.15810089
2065,46.76490249
2066,50.80918198
2067,48.37529984
2068,46.51238403
2069,45.05171432
2070,44.10410538
2071,37.36861649
2072,34.40136452
2073,37.78961601
2074,38.50875473
2075,44.89488144
2076,58.05657349
2077,45.30846253
2078,40.33178406
2079,42.60984116
2080,38.26027222
2081,38.89074173
2082,42.4538353
2083,39.05178757
2084,39.43514481
2085,41.06638336
2086,37.79662628
2087,36.51569443
2088,36.82211227
2089,39.55007248
2090,39.05642014
2091,38.32369995
2092,39.4161499
2093,34.3725174
2094,31.75825081
2095,35.4495491
2096,33.8190918
2097,34.11589813
2098,37.53773193
2099,34.23848648
2100,34.45782013
2101,37.9443573
2102,40.27525253
2103,39.54474869
2104,36.9604187
2105,35.31317253
2106,35.27280502
2107,35.57649384
2108,34.61448746
2109,32.90409394
2110,32.88717422
2111,36.8772522
2112,29.50426559
2113,25.80535507
2114,29.66230736
2115,32.72396889
2116,35.54475708
2117,37.91310425
2118,36.53322678
2119,35.491716
2120,34.77720528
2121,34.63905792
2122,34.30255775
2123,34.11218872
2124,34.52711144
2125,32.43253059
2126,32.47984619
2127,36.91080933
2128,34.7394001
2129,31.15295334
2130,26.61172714
2131,22.72790184
2132,26.67226906
2133,34.20000038
2134,34.2
2135,32.48664589
2136,31.91320458
2137,35.80602112
2138,33.92444229
2139,24.78660202
2140,6.69191351
2141,21.37423325
2142,29.64716873
2143,31.52741165
2144,32.78229332
2145,33.66536636
2146,33.84135552
2147,32.30583839
2148,26.74287834
2149,24.3013668
2150,28.9132431
2151,27.62632103
2152,30.98991089
2153,38.09689712
2154,31.65707741
2155,29.39999962
2156,29.89722366
2157,32.139748
2158,31.81980591
2159,32.49311943
2160,36.00110817
2161,35.00803642
2162,31.92198181
2163,27.21220741
2164,23.13589172
2165,25.9602829
2166,31.02259026
2167,32.71128845
2168,33.23346558
2169,34.14843521
2170,35.97996826
2171,36.41827927
2172,34.18675842
2173,30.87954483
2174,32.71424751
2175,34.03060188
2176,34.6197464
2177,34.05457153
2178,40.13077393
2179,40.90356369
2180,35.59856033
2181,32.90933686
2182,35.28062744
2183,36.98378677
2184,28.90681801
2185,29.73917312
2186,31.62462425
2187,32.55957527
2188,30.28843804
2189,30.17821655
2190,30.65825767
2191,27.95817566
2192,29.76873283
2193,31.48996048
2194,31.2054142
2195,34.27222557
2196,33.63082733
2197,30.89799919
2198,31.46807556
2199,29.62718506
2200,28.67901268
2201,30.53389053
2202,33.07818069
2203,33.79756088
2204,32.63963814
2205,29.20933762
2206,27.52584343
2207,27.79390907
2208,30.51268654
2209,39.05324173
2210,37.15576553
2211,29.05014572
2212,29.33682671
2213,29.84727211
2214,30.75272407
2215,32.18777657
2216,30.34926186
2217,31.14802475
2218,33.11093445
2219,32.67967758
2220,35.29699707
2221,34.38797874
2222,28.16164551
2223,32.76965332
2224,31.79305115
2225,29.65581932
2226,32.97162781
2227,32.52071075
2228,32.27960358
2229,32.48671417
2230,29.30960846
2231,28.70938148
2232,30.6201374
2233,35.53584175
2234,32.7884491
2235,32.13438149
2236,32.51468353
2237,28.74914474
2238,32.06285629
2239,33.84046898
2240,31.1035862
2241,28.78234558
2242,28.19247207
2243,29.60119285
2244,33.81326408
2245,29.84453888
2246,28.06412964
2247,28.9138916
2248,29.64135895
2249,30.71064415
2250,31.57832451
2251,32.08167305
2252,34.41357002
2253,32.20394211
2254,29.0424984
2255,29.18840866
2256,35.78541107
2257,33.12816353
2258,24.29388504
2259,23.70924034
2260,27.16756744
2261,31.09961929
2262,33.79624786
2263,28.67182693
2264,26.88674126
2265,25.42828102
2266,22.05695343
2267,33.39066162
2268,34.98207626
2269,30.69593506
2270,27.17199173
2271,27.19421882
2272,28.57548866
2273,29.79089966
2274,26.26091309
2275,27.63342094
2276,29.2672718
2277,29.75777016
2278,29.315765
2279,29.74404297
2280,29.52488327
2281,27.89412689
2282,31.58381081
2283,30.0281044
2284,28.64752884
2285,33.22795982
2286,29.41595574
2287,26.80803223
2288,24.98999825
2289,22.62185593
2290,24.27907105
2291,25.9412365
2292,27.4888752
2293,29.86107101
2294,31.85297089
2295,33.17770691
2296,32.76858826
2297,26.38240547
2298,29.316959
2299,30.6054554
2300,28.00000076
2301,28
2302,25.79545364
2303,26.66697235
2304,31.77226486
2305,31.47421646
2306,29.94426346
2307,32.83415451
2308,41.62835922
2309,36.25432015
2310,31.53170853
2311,30.14182091
2312,33.19737511
2313,29.30949593
2314,28.84153023
2315,27.87253571
2316,23.97487869
2317,23.37572174
2318,26.8012394
2319,28.04613075
2320,23.24308128
2321,29.54496116
2322,28.43375435
2323,26.13659553
2324,27.15795555
2325,30.91547355
2326,29.00454941
2327,26.4
2328,26.25824852
2329,23.54822274
2330,27.7072937
2331,28.69417801
2332,21.65107193
2333,25.27059822
2334,25.86354408
2335,26.86174278
2336,29.33248138
2337,26.46214142
2338,27.89316444
2339,28.32029762
2340,26.49974479
2341,28.92098923
2342,27.3352066
2343,26.80204697
2344,28.1022934
2345,27.49595222
2346,24.20825844
2347,24.14648972
2348,28.04643097
2349,34.12015991
2350,31.69675598
2351,27.85364189
2352,25.57879066
2353,28.62081947
2354,24.64651833
2355,22.71360473
2356,23.40308533
2357,26.60075683
2358,27.5154335
2359,26.53906441
2360,25.05414181
2361,24.84686737
2362,34.46729584
2363,34.02215347
2364,30.49137306
2365,28.11513939
2366,31.78628693
2367,31.25281334
2368,29.47213593
2369,28.23833771
2370,30.23025131
2371,30.82073708
2372,27.63006477
2373,23.89406662
2374,24.19327126
2375,22.19685173
2376,22.8926384
2377,23.81576347
2378,23.88527565
2379,28.80787086
2380,24.26966171
2381,21.26114655
2382,22.83375931
2383,26.99423752
2384,25.03458557
2385,23.90662651
2386,22.32235413
2387,17.64443741
2388,21.04211388
2389,29.32349892
2390,31.20291672
2391,23.1007576
2392,23.874263
2393,26.98141861
2394,24.63024292
2395,20.97123489
2396,27.94456787
2397,27.90125847
2398,30.93439789
2399,28.67000122
2400,17.29957333
2401,24.59925804
2402,23.73955841
2403,22.56205101
2404,23.27493553
2405,25.29740906
2406,21.55807266
2407,27.75455742
2408,31.54012375
2409,24.16279984
2410,27.90500794
2411,17.80170536
2412,15.67182732
2413,21.87065544
2414,23.74491844
2415,31.23249932
2416,30.25135841
2417,25.53178864
2418,21.76707878
2419,23.01939888
2420,22.12767944
2421,21.14640503
2422,21.59669152
2423,24.72744789
2424,22.06028404
2425,24.94353981
2426,25.82205582
2427,23.68339653
2428,26.04074058
2429,27.5195919
2430,27.27253113
2431,25.80321541
2432,23.98127747
2433,23.82376861
2434,21.65894165
2435,19.95974503
2436,19.64260635
2437,21.04869728
2438,22.15373688
2439,24.36401711
2440,22.93533211
2441,19.19404468
2442,19.98468609
2443,24.65457153
2444,23.61791344
2445,21.36933022
2446,20.53962135
2447,20.22265587
2448,20.34723701
2449,22.09388466
2450,23.27717934
2451,22.48336945
2452,21.68918076
2453,21.74108047
2454,22.20025177
2455,22.89555778
2456,23.72758293
2457,24.84193649
2458,22.53959389
2459,21.97615127
2460,22.54457245
2461,22.80219688
2462,27.11003303
2463,24.85046082
2464,19.93084717
2465,16.32111073
2466,17.58694248
2467,22.22422047
2468,24.73198281
2469,22.89497147
2470,20.76104355
2471,22.95209541
2472,17.66340485
2473,21.22775383
2474,23.96747932
2475,23.55399971
2476,20.89355774
2477,21.85728416
2478,19.12485943
2479,18.28838234
2480,21.02335129
2481,26.12826195
2482,23.87455063
2483,21.902631
2484,20.27683792
2485,21.50433655
2486,24.94873238
2487,18.17252579
2488,23.65934448
2489,22.41239166
2490,21.86671867
2491,25.38324623
2492,22.31099148
2493,22.82377014
2494,22.88220444
2495,35.87366638
2496,48.75986252
2497,22.81883888
2498,23.62957687
2499,22.90306091
2500,24.84139557
2501,26.63885803
2502,23.38479424
2503,23.22228623
2504,22.91940002
2505,20.84384804
2506,21.75858078
2507,26.14708786
2508,18.9808382
2509,23.22898331
2510,22.60548897
2511,21.28041878
2512,22.48958664
2513,26.4
2514,26.4
2515,21.99334221
2516,23.09802742
2517,25.32872581
2518,22.6172905
2519,24.09044457
2520,21.92607689
2521,19.93023491
2522,19.79342232
2523,20.74006729
2524,19.7262722
2525,18.08489838
2526,18.88578148
2527,21.60013619
2528,22.7058651
2529,20.28485298
2530,19.62684917
2531,18.49486904
2532,16.11689758
2533,21.95585441
2534,28.64861069
2535,21.36611328
2536,21.03620071
2537,18.35513973
2538,17.28795452
2539,18.43562622
2540,21.07967377
2541,23.53756294
2542,22.21426697
2543,19.50330868
2544,16.73174629
2545,16.03878765
2546,17.6
2547,17.58617363
2548,15.92748623
2549,14.93403263
2550,16.78258324
2551,19.84884758
2552,21.69436913
2553,22.19307404
2554,17.60754604
2555,15.94792843
2556,15.69688568
2557,16.37087002
2558,17.359618
2559,16.02607441
2560,19.5975193
2561,15.96708069
2562,15.83812847
2563,17.81411896
2564,18.53815308
2565,26.72859878
2566,22.48956642
2567,19.73655968
2568,21.21185265
2569,22.64857483
2570,20.83549805
2571,20.94398956
2572,17.92532082
2573,16.15264111
2574,19.43219242
2575,20.34550514
2576,17.13240624
2577,20.31757355
2578,15.77712879
2579,18.87175102
2580,18.1265789
2581,19.6090601
2582,21.40547028
2583,15.05320244
2584,18.76297893
2585,26.42313385
2586,18.51529179
2587,13.947085
2588,17.13587799
2589,20.32786503
2590,16.07110901
2591,20.63899956
2592,14.76956329
2593,15.42262421
2594,16.92292385
2595,14.5562706
2596,13.5584404
2597,16.78168526
2598,13.51870518
2599,20.28286991
2600,21.66206055
2601,17.51374035
2602,15.47585487
2603,15.73567581
2604,14.37406406
2605,14.64557361
2606,16.34549008
2607,17.935919
2608,18.8393322
2609,19.55211487
2610,20.60929222
2611,53.39513397
2612,27.408852
2613,15.14080505
2614,15.82296829
2615,17.17928295
2616,19.20000019
2617,19.2
2618,15.13552017
2619,18.05946922
2620,23.07888374
2621,20.01965294
2622,14.10528278
2623,19.81687355
2624,21.19115944
2625,13.00286808
2626,14.45460796
2627,17.32148247
2628,15.99363136
2629,17.91637688
2630,29.34634895
2631,22.636903
2632,24.36130981
2633,20.58638573
2634,18.47248459
2635,18.28179474
2636,19.53365478
2637,19.581773
2638,12.43641348
2639,15.72347488
2640,15.04878845
2641,14.14148102
2642,17.0535017
2643,20.31311607
2644,19.76628113
2645,16.72448273
2646,16.20378227
2647,14.82080364
2648,15.76911717
2649,13.80080795
2650,11.54298344
2651,11.2748764
2652,13.07989101
2653,16.36792011
2654,16.01946831
2655,14.84793587
2656,13.48819332
2657,14.0210638
2658,16.47214852
2659,18.97586823
2660,18.00660782
2661,10.49185815
2662,14.68912888
2663,13.37979221
2664,14.23367996
2665,14.35115471
2666,16.1857069
2667,16.99275494
2668,13.32401161
2669,16.23719921
2670,14.13062115
2671,14.49425545
2672,13.05482559
2673,11.35356464
2674,14.00964184
2675,15.47970066
2676,10.99745617
2677,12.37971058
2678,12.20349922
2679,14.79208012
2680,22.06283073
2681,16.60902767
2682,13.53318043
2683,14.52692642
2684,14.6889864
2685,16.54695721
2686,14.2739315
2687,15.68970223
2688,13.51419506
2689,14.54454994
2690,13.08250923
2691,13.3090292
2692,13.82559986
2693,11.15094623
2694,10.8105175
2695,13.33489323
2696,11.0243638
2697,14.81400872
2698,17.60001793
2699,14.79007912
2700,11.25481195
2701,10.78137837
2702,12.05454779
2703,13.0630764
2704,14.56945686
2705,13.85547066
2706,12.81169796
2707,13.46031532
2708,14.77711105
2709,15.09707146
2710,16.55775414
2711,18.66986351
2712,208.6655457
2713,938.5558716
2714,44.39758301
2715,13.24013538
2716,16.52253284
2717,13.01411324
2718,10.25690775
2719,10.09405947
2720,10.56920013
2721,10.93147125
2722,18.41224213
2723,56.68587418
2724,26.24474068
2725,18.760672
2726,21.1954628
2727,14.65522327
2728,12.49763603
2729,14.55763149
2730,14.83590641
2731,12.22860374
2732,7.699169825
2733,3.641371929
2734,9.795047377
2735,10.52376404
2736,23.24488793
2737,21.89880333
2738,14.58764896
2739,12.79226646
2740,11.39456425
2741,12.02579231
2742,18.26710758
2743,13.7894352
2744,16.62465305
2745,14.44119759
2746,7.076733494
2747,9.575806713
2748,16.26202831
2749,8.827603436
2750,9.676486396
2751,15.6705122
2752,14.98158741
2753,12.2581276
2754,14.49274425
2755,31.2937439
2756,4.979943037
2757,13.39878788
2758,9.4089612
2759,11.35822525
2760,13.83822842
2761,12.44195423
2762,13.06704063
2763,11.78466759
2764,9.504528141
2765,13.05426369
2766,13.31423359
2767,13.97584381
2768,15.15515461
2769,7.607656669
2770,11.38162537
2771,8.037488842
2772,8.999975967
2773,8.017808628
2774,8.565653612
2775,12.01845531
2776,11.07219582
2777,7.321433068
2778,9.498286628
2779,10.13174171
2780,13.27111549
2781,3.775853658
2782,9.148187637
2783,10.63663845
2784,12.25888386
2785,5.809311676
2786,6.06478095
2787,11.32516709
2788,13.05734043
2789,8.937477207
2790,5.995820332
2791,9.542701817
2792,12.62821331
2793,9.385787201
2794,11.0073165
2795,9.258923816
2796,5.901528169
2797,14.66784172
2798,10.90484829
2799,10.15448255
2800,12.03783588
2801,5.355554103
2802,5.470693731
2803,6.753434277
2804,5.539046467
2805,6.740305758
2806,5.855168295
2807,4.546829224
2808,11.59771709
2809,13.50231609
2810,14.92611523
2811,9.222272302
2812,10.53821354
2813,12.03406811
2814,10.86051474
2815,11.22281971
2816,15.1457222
2817,11.96180744
2818,10.56852531
2819,9.335034943
2820,12.42641945
2821,13.53518086
2822,10.78050671
2823,10.08909626
2824,3.791334558
2825,8.904337788
2826,10.81909122
2827,14.71213512
2828,12.12120876
2829,7.62128067
2830,11.03523121
2831,9.935772323
2832,15.7659235
2833,14.0732111
2834,12.6478138
2835,11.55658855
2836,11.2
2837,6.355513954
2838,6.768784713
2839,4.804556704
2840,5.47995491
2841,11.35002556
2842,13.07516193
2843,15.49508247
2844,13.53582935
2845,14.63521118
2846,14.06274643
2847,7.515999939
2848,3.836621785
2849,16.1263855
2850,14.83607387
2851,6.595544768
2852,8.45908289
2853,8.779021168
2854,4.697254848
2855,14.4300354
2856,8.580445956
2857,10.32433472
2858,13.4752552
2859,11.69187126
2860,11.52053852
2861,10.6777359
2862,7.404287386
2863,9.600214483
2864,12.445508
2865,8.393566322
2866,9.000763035
2867,13.68276119
2868,10.18867111
2869,9.919264412
2870,10.90521479
2871,7.855129147
2872,8.029065133
2873,9.54364891
2874,6.160904383
2875,9.470373153
2876,9.965018654
2877,9.565139199
2878,8.970767689
2879,7.998306275
2880,6.05408082
2881,12.42978649
2882,12.98372793
2883,9.252737714
2884,15.55680656
2885,16.43184128
2886,14.76836281
2887,10.60162354
2888,9.753464985
2889,10.6925705
2890,9.702595901
2891,13.94802589
2892,11.13145838
2893,13.64420357
2894,11.51175365
2895,10.39369793
2896,12.11143722
2897,8.013936328
2898,6.04076891
2899,6.985793304
2900,9.800817394
2901,12.20020847
2902,11.60696468
2903,11.86592979
2904,12.48995266
2905,7.99864502
2906,1.664872014
2907,6.374060059
2908,12.98591957
2909,8.991471099
2910,7.469278336
2911,8.716298199
2912,5.435094642
2913,9.742913533
2914,9.241376877
2915,10.99181557
2916,11.56387043
2917,8.941503142
2918,9.689858819
2919,9.506647014
2920,11.29860783
2921,14.14627418
2922,9.653958321
2923,9.152667236
2924,9.230422878
2925,10.0000001
2926,8.507789516
2927,3.758229411
2928,6.094651842
2929,8.81248753
2930,13.98252773
2931,10.08030472
2932,10.2014679
2933,8.809585475
2934,5.969721889
2935,6.577300072
2936,14.88177471
2937,8.093176175
2938,6.704609394
2939,9.757617759
2940,8.80939808
2941,3.164308536
2942,6.934214403
2943,9.63418436
2944,8.071172237
2945,4.686172867
2946,5.748932957
2947,9.302497864
2948,10.96480732
2949,5.438881922
2950,4.810964298
2951,9.99662466
2952,8.331993198
2953,7.161044741
2954,7.655464459
2955,8.488193417
2956,8.716584493
2957,7.165632915
2958,10.90020447
2959,8.279497815
2960,6.819701862
2961,8.895653247
2962,9.8
2963,9.419431494
2964,7.142663002
2965,6.154783726
2966,6.278912424
2967,4.367551565
2968,8.882406807
2969,9.492507743
2970,7.758494664
2971,8.785470963
2972,6.433903264
2973,6.179372692
2974,8.464545918
2975,9.483400916
2976,6.263246918
2977,8.442969704
2978,8.548129844
2979,8.400619126
2980,9.275724603
2981,6.836326313
2982,8.006414986
2983,8.192534542
2984,3.611210394
2985,9.192356682
2986,5.295359182
2987,6.607945538
2988,7.53186779
2989,10.88836412
2990,6.307085765
2991,12.0076664
2992,-16.1299923
2993,12.47988453
2994,15.09626828
2995,9.205216408
2996,1.736457199
2997,8.177350617
2998,4.815961576
2999,7.667463971
3000,11.02326622
