Frequency,Density
0,230
1,230
2,230
3,230
4,230
5,230
6,230
7,230
8,230
9,230
10,230
11,230
12,230
13,230
14,230
15,230
16,230
17,230
18,230
19,230
20,230
21,230
22,230
23,230
24,230
25,230
26,230
27,230
28,230
29,230
30,230
31,230
32,230
33,230
34,230
35,230
36,230
37,230
38,230
39,230
40,230
41,230
42,230
43,230
44,230
45,230
46,230
47,230
48,230
49,230
50,230
51,230
52,230
53,230
54,230
55,230
56,230
57,230
58,230
59,230
60,230
61,230
62,230
63,230
64,230
65,230
66,230
67,230
68,230
69,230
70,230
71,230
72,230
73,230
74,230
75,230
76,230
77,230
78,230
79,230
80,230
81,230
82,230
83,230
84,230
85,230
86,230
87,230
88,230
89,230
90,230
91,230
92,230
93,230
94,230
95,230
96,230
97,230
98,230
99,230
100,230
101,230
102,230
103,230
104,230
105,230
106,230
107,230
108,230
109,230
110,230
111,230
112,230
113,230
114,230
115,230
116,230
117,230
118,230
119,230
120,230
121,230
122,230
123,230
124,230
125,230
126,230
127,230
128,230
129,230
130,230
131,230
132,230
133,230
134,230
135,230
136,230
137,230
138,230
139,230
140,230
141,230
142,230
143,230
144,230
145,230
146,230
147,230
148,230
149,230
150,230
151,230
152,230
153,230
154,230
155,230
156,230
157,230
158,230
159,230
160,230
161,230
162,230
163,230
164,230
165,230
166,230
167,230
168,230
169,230
170,230
171,230
172,230
173,230
174,230
175,230
176,230
177,230
178,230
179,230
180,230
181,230
182,230
183,230
184,230
185,230
186,230
187,230
188,230
189,230
190,230
191,230
192,230
193,230
194,230
195,230
196,230
197,230
198,230
199,248.3478979
200,312.5544968
201,376.761083
202,397.2403463
203,399.2419332
204,400.3082988
205,394.6230571
206,388.9378052
207,390.0464478
208,396.8986206
209,403.7507833
210,399.0137177
211,393.8392334
212,391.593099
213,393.9877217
214,396.3823242
215,396.4654083
216,396.0121104
217,397.5783997
218,405.6130066
219,413.6476135
220,413.7868042
221,409.9616292
222,406.6726329
223,408.489034
224,410.3054352
225,410.5522665
226,409.3839111
227,408.2155152
228,408.5400645
229,408.9297384
230,407.1540883
231,402.0202128
232,396.8863118
233,392.8258972
234,388.9894663
235,386.0463359
236,385.5908915
237,385.1354675
238,383.6735992
239,381.7856903
240,380.0182139
241,378.9759979
242,377.9337718
243,378.299057
244,379.6677857
245,380.9286703
246,378.254837
247,375.5809835
248,374.0437164
249,373.7826996
250,373.5216878
251,373.320399
252,373.1245219
253,370.5485128
254,363.8194377
255,357.0903676
256,357.4812266
257,359.5076803
258,360.7414042
259,359.7602895
260,358.7791647
261,360.7943726
262,364.0012411
263,366.456604
264,365.2123922
265,363.9681753
266,362.1922353
267,360.0954946
268,358.4187063
269,361.5656688
270,364.7126363
271,364.0492503
272,360.1132253
273,356.1772054
274,358.523351
275,360.8863526
276,361.4745382
277,359.9639587
278,358.4533641
279,355.7925618
280,353.032486
281,353.3806407
282,358.7067922
283,364.0329386
284,366.1191864
285,367.6324412
286,367.7288819
287,364.7664185
288,361.8039652
289,362.6142833
290,364.4586894
291,366.8237356
292,370.7124125
293,374.6011149
294,375.7145386
295,375.7804871
296,375.7546336
297,375.3586934
298,374.9627838
299,375.9443054
300,377.5949707
301,379.0196635
302,379.1517945
303,379.2839152
304,380.2024129
305,381.5906016
306,383.1660207
307,386.3408966
308,389.5157623
309,390.3300171
310,389.4696452
311,388.0571238
312,378.9186045
313,369.7800802
314,363.6991628
315,360.1211192
316,356.6483358
317,356.1179556
318,355.58756
319,356.1968689
320,357.8553264
321,359.4889679
322,358.1614075
323,356.8338674
324,355.3407491
325,353.6803385
326,352.019928
327,354.4293518
328,356.8882039
329,356.9217377
330,354.3284454
331,351.7351481
332,354.7111867
333,357.8382772
334,360.9974365
335,364.1929423
336,367.3884481
337,362.7427623
338,357.8134461
339,352.9445038
340,348.1455943
341,343.3466746
342,343.7443695
343,344.3445892
344,346.6766408
345,351.0141042
346,355.3515574
347,354.4682515
348,353.3999329
349,353.3039653
350,354.3061015
351,355.3082275
352,350.1846059
353,344.9035899
354,343.9711304
355,347.7168426
356,351.4625549
357,346.0005824
358,340.4456329
359,338.8714116
360,341.2822164
361,343.6725235
362,344.2085673
363,344.7446238
364,345.0702057
365,345.2042948
366,345.2346598
367,342.6183268
368,340.0020142
369,338.6476339
370,338.3120041
371,338.1512324
372,340.3004837
373,342.4497401
374,342.4626694
375,340.9841919
376,339.7252299
377,340.2631836
378,340.8011322
379,341.2544632
380,341.6581523
381,341.185112
382,335.8666
383,330.5480983
384,328.3768972
385,327.7032674
386,327.2626343
387,327.7344538
388,328.2062709
389,330.5509033
390,333.5857824
391,335.8858541
392,336.0883052
393,336.2907486
394,337.0264511
395,337.9042333
396,338.6953583
397,339.3034109
398,339.911466
399,341.2706782
400,342.7579066
401,344.8505961
402,347.8944473
403,350.9383011
404,348.0991186
405,344.7827327
406,345.7872314
407,351.8144073
408,357.8492635
409,369.5041453
410,381.1590373
411,395.0214844
412,410.751297
413,424.645106
414,418.4037425
415,412.1623688
416,404.684728
417,396.4711253
418,388.0585988
419,378.6854858
420,369.3123932
421,358.0329641
422,346.0038376
423,337.4192836
424,338.3713074
425,339.3233261
426,341.2178396
427,343.3271179
428,342.6790772
429,337.2325541
430,331.7860234
431,330.27152
432,329.1134466
433,329.5257797
434,331.7069575
435,333.876175
436,335.5812353
437,337.2862829
438,334.7464676
439,329.1505839
440,324.8273926
441,328.3780975
442,331.9287949
443,328.7537333
444,322.6729787
445,319.7420349
446,325.8263855
447,331.9107285
448,331.4837494
449,329.6368434
450,326.2106857
451,320.25604
452,314.3013942
453,314.6501821
454,315.3350271
455,317.4690959
456,320.9638646
457,323.5594508
458,316.291509
459,309.023557
460,305.8730138
461,304.9125315
462,304.1053111
463,303.8307266
464,303.5561345
465,305.1393331
466,307.199941
467,306.9779917
468,302.8543269
469,298.7306671
470,298.7596894
471,299.034762
472,300.7065989
473,303.6653824
474,306.2115199
475,304.9722265
476,303.7329356
477,301.7929916
478,299.5196228
479,297.4595083
480,296.0119629
481,294.5644124
482,293.3479868
483,292.175471
484,295.1569036
485,303.7834549
486,312.2995809
487,308.5016556
488,304.7037303
489,301.6036987
490,298.9781291
491,296.6940816
492,295.9335938
493,295.173111
494,295.1602809
495,295.3678131
496,295.7764079
497,296.5377909
498,297.299174
499,297.7963842
500,298.2811813
501,300.3249944
502,303.6513113
503,306.4004313
504,305.7070414
505,305.0136465
506,301.6503652
507,297.3487829
508,294.7813517
509,295.6144104
510,296.4474614
511,298.0619609
512,299.7290548
513,299.4538676
514,297.5077744
515,295.7653783
516,295.278567
517,294.7917557
518,294.5115535
519,294.302798
520,293.5852941
521,291.9142532
522,290.2432149
523,290.8979111
524,291.6642532
525,294.8985011
526,300.0569712
527,303.5461222
528,298.942599
529,294.3390757
530,298.787735
531,305.7668864
532,308.2414907
533,303.7721914
534,299.327151
535,298.41878
536,297.5104243
537,295.8194885
538,293.6521098
539,291.8170573
540,291.0475312
541,290.278005
542,293.1003164
543,296.5302251
544,296.1740519
545,291.6214854
546,288.1702398
547,295.2484156
548,302.3265991
549,301.8212306
550,298.3151118
551,295.2134705
552,292.8980611
553,290.5826467
554,289.6199061
555,288.7072398
556,287.9186554
557,287.2161814
558,286.9421463
559,288.2073364
560,289.4725291
561,290.0238978
562,290.4458796
563,289.6936671
564,287.652888
565,286.0088908
566,287.6283951
567,289.2479019
568,291.9128596
569,294.9424261
570,294.1837337
571,287.1340714
572,280.1856003
573,281.8079809
574,283.4303665
575,282.3054504
576,279.693985
577,278.1582031
578,279.2881521
579,280.4181035
580,279.1236216
581,277.639679
582,276.1150233
583,274.5594991
584,273.0786769
585,271.8759766
586,270.6732686
587,272.8630295
588,275.6238124
589,275.5790609
590,272.745814
591,270.5017344
592,271.635704
593,272.7696711
594,277.1252976
595,282.302091
596,281.6804377
597,273.875178
598,267.1111069
599,269.9510625
600,272.7910207
601,274.3528951
602,275.4895554
603,275.8792801
604,275.168452
605,274.4787979
606,274.1231715
607,273.7675451
608,271.6784897
609,268.9029643
610,268.3398183
611,271.4730276
612,274.5555674
613,276.1943512
614,277.8331299
615,279.9183858
616,282.1997884
617,284.9655711
618,288.6037038
619,292.0649109
620,287.1398137
621,282.2147191
622,278.9036916
623,276.3325602
624,273.1067123
625,268.6760305
626,264.371671
627,266.3023072
628,268.2329458
629,269.9671758
630,271.6127701
631,272.5637003
632,272.2773438
633,272.0699081
634,274.2904968
635,276.5110957
636,280.5006307
637,285.2311452
638,287.5135549
639,285.7923431
640,284.1029409
641,282.9547908
642,281.8066406
643,279.8686066
644,277.642746
645,276.4812342
646,276.8404566
647,276.8032964
648,272.8495077
649,268.8957214
650,267.2211202
651,266.2141062
652,266.7177429
653,269.0208588
654,271.1114349
655,271.9035925
656,272.6957525
657,274.5005468
658,276.5181554
659,275.2421646
660,270.8440501
661,266.8820953
662,264.645663
663,262.4092305
664,264.4835002
665,267.0821864
666,269.1346461
667,270.7958984
668,271.144811
669,268.0371425
670,264.929479
671,267.4261805
672,270.101799
673,271.8171336
674,273.0472005
675,273.4152603
676,272.2568639
677,270.9107691
678,266.5642039
679,262.2176412
680,263.0902278
681,265.6272303
682,266.0680695
683,264.0372645
684,263.3378856
685,269.5790431
686,275.8201955
687,275.0975138
688,273.2821503
689,274.4849523
690,277.9725189
691,278.8388647
692,272.8047079
693,266.7705485
694,267.7390366
695,268.8301926
696,264.9379222
697,258.823822
698,254.2593969
699,252.0016632
700,250.3388672
701,253.3266703
702,256.3144709
703,256.7730815
704,256.7001648
705,256.1539027
706,255.2054265
707,255.0050913
708,256.9761683
709,258.9472504
710,259.1421839
711,259.2882741
712,257.4125519
713,254.6351547
714,252.9699224
715,252.896787
716,253.8402379
717,261.450559
718,269.0608851
719,264.72214
720,258.3520406
721,255.5819092
722,255.4353841
723,254.2875493
724,250.8421402
725,247.6165085
726,251.5040563
727,255.3916016
728,253.8862991
729,250.6569951
730,249.8938955
731,251.7298101
732,254.1090266
733,258.4443741
734,262.7797292
735,259.5105871
736,255.8343862
737,254.2148666
738,253.5527624
739,253.6883392
740,254.9397227
741,255.6175359
742,253.1132711
743,250.6090037
744,251.5794653
745,252.9797363
746,254.3341929
747,255.6615499
748,254.9508565
749,250.7450511
750,248.1000036
751,258.1408539
752,268.1817169
753,263.1200333
754,255.4371796
755,250.6151886
756,247.7324041
757,246.9438171
758,250.1981099
759,253.5630493
760,258.0773621
761,262.5916799
762,265.9324443
763,269.0425034
764,264.0489248
765,253.3054454
766,244.375679
767,239.0378215
768,234.8476843
769,242.6366857
770,250.4256872
771,247.6107305
772,242.7861074
773,241.319631
774,242.1365865
775,243.7365723
776,246.7834066
777,249.4677607
778,249.1703313
779,248.8729045
780,246.9627635
781,244.8051249
782,242.0400264
783,238.9133174
784,238.6766281
785,242.9970246
786,246.6217601
787,246.3236211
788,246.0254898
789,242.4535116
790,238.5754573
791,237.2826106
792,237.2079875
793,241.164917
794,250.1249085
795,256.8947601
796,255.6246719
797,254.3545838
798,246.9094035
799,239.3591258
800,240.7701238
801,245.1085027
802,249.0548528
803,252.6473668
804,253.0189743
805,245.829689
806,239.4299571
807,243.0267309
808,246.6235072
809,246.0208842
810,244.6712901
811,242.6166306
812,240.1409124
813,239.4258067
814,241.3024623
815,242.7364527
816,242.2106781
817,241.6849009
818,242.5372518
819,243.4391251
820,243.0481796
821,242.2209778
822,241.6334152
823,241.2571894
824,240.8332596
825,240.3062312
826,240.2898458
827,244.7345632
828,249.179273
829,242.7540232
830,234.9900004
831,234.4981435
832,237.4396668
833,237.7951762
834,235.2292506
835,233.0178477
836,231.809639
837,230.8216985
838,233.6929067
839,236.5641098
840,238.2825088
841,239.7945633
842,239.3107758
843,237.7221705
844,237.3668035
845,238.5778885
846,239.463857
847,239.3123856
848,239.1436132
849,238.5373535
850,237.9310913
851,240.8861517
852,244.5258789
853,244.0830892
854,241.351682
855,238.3160934
856,234.8998032
857,233.3537343
858,237.455719
859,241.2044449
860,238.8482056
861,236.4919612
862,241.9353689
863,248.628034
864,246.2412593
865,239.3924205
866,237.0037181
867,239.4403051
868,241.211085
869,241.3634568
870,241.3970007
871,240.4059626
872,239.4149221
873,233.033399
874,226.1682765
875,228.7513326
876,234.7809601
877,235.5292359
878,231.9398575
879,229.6666641
880,229.6666692
881,229.198316
882,226.6751175
883,224.220782
884,233.4779943
885,242.7352142
886,236.5430171
887,227.1272023
888,226.4230092
889,230.4060466
890,231.7366511
891,230.1271617
892,229.0229823
893,229.0996679
894,228.7691066
895,225.6230342
896,222.4769643
897,227.9021352
898,233.7373403
899,229.1605225
900,221.7085343
901,223.601682
902,231.3655803
903,237.1418101
904,240.4491908
905,240.642011
906,232.7919261
907,225.4310455
908,221.88871
909,218.3463694
910,217.1426519
911,216.0639038
912,217.5306829
913,219.6894557
914,220.5481796
915,220.625323
916,225.0371119
917,234.4543533
918,239.2336197
919,233.4408976
920,227.8294983
921,223.2698364
922,218.7101797
923,223.2620773
924,227.9017741
925,233.6422729
926,239.600085
927,237.3869654
928,231.3481929
929,227.1084086
930,224.4745611
931,222.8333333
932,222.8333283
933,224.4155477
934,231.395785
935,236.9283091
936,225.2876612
937,213.6470083
938,217.311142
939,222.1254603
940,219.9393387
941,215.8214162
942,213.7871933
943,212.9320246
944,211.5377324
945,209.5930049
946,209.5671514
947,213.0697352
948,215.75118
949,215.3617656
950,214.6128235
951,209.1578827
952,203.7029393
953,208.0582352
954,213.1265462
955,213.7325999
956,213.186465
957,214.9537201
958,217.920255
959,217.8198547
960,214.9296697
961,211.1548259
962,205.996287
963,202.4688695
964,203.6419627
965,204.478597
966,202.991801
967,201.5050074
968,205.0896352
969,208.6913859
970,206.8544159
971,204.1906713
972,204.3709971
973,205.5468725
974,209.8569946
975,216.1320953
976,218.6797511
977,217.3454997
978,215.0616353
979,211.1350377
980,209.2980525
981,213.9341939
982,217.3712921
983,212.2606405
984,207.1707738
985,208.4295247
986,209.6882833
987,208.9975561
988,208.0529251
989,210.0701701
990,212.9844996
991,211.7405904
992,208.2728424
993,207.1323395
994,207.9997915
995,207.6982651
996,205.8045095
997,204.3280411
998,203.7753677
999,204.0450211
1000,207.600029
1001,210.5400543
1002,207.2991282
1003,204.0581945
1004,203.533961
1005,203.0593898
1006,195.245519
1007,186.3817139
1008,188.5955073
1009,194.1386821
1010,195.5263392
1011,194.8132223
1012,196.1005351
1013,198.9546967
1014,199.6269023
1015,197.7230021
1016,196.6703288
1017,197.1465836
1018,196.9058787
1019,194.6025874
1020,194.3144785
1021,204.6457164
1022,214.0757294
1023,209.9407756
1024,205.8058294
1025,205.5897751
1026,205.5102132
1027,203.0018285
1028,200.1357625
1029,197.3303604
1030,194.5422567
1031,193.8306987
1032,194.0698191
1033,194.2141164
1034,194.2938741
1035,194.5752513
1036,195.054067
1037,195.2335027
1038,194.9939474
1039,195.5704829
1040,197.807607
1041,199.1690699
1042,197.8100027
1043,196.8825149
1044,198.242391
1045,199.4699071
1046,199.0697072
1047,198.6695074
1048,194.2135824
1049,189.7286784
1050,202.9976578
1051,217.9829508
1052,208.8249283
1053,194.7929255
1054,193.932668
1055,197.3825836
1056,197.9029617
1057,197.0199
1058,196.0883255
1059,195.1244201
1060,193.9491781
1061,192.5828247
1062,192.051178
1063,192.5337092
1064,194.1449331
1065,197.6051102
1066,198.2399724
1067,192.5232493
1068,188.2241745
1069,188.4658636
1070,189.1440633
1071,191.9655202
1072,194.1390101
1073,190.5899277
1074,187.306872
1075,191.2616119
1076,195.2163467
1077,192.9039231
1078,190.4004568
1079,189.5805944
1080,188.9341583
1081,189.6522471
1082,190.6224798
1083,197.2919592
1084,205.5438741
1085,204.8503342
1086,200.7219213
1087,194.1729558
1088,186.3972041
1089,179.7482147
1090,173.8318901
1091,174.7316437
1092,181.2191417
1093,186.5454534
1094,190.6836929
1095,191.7846527
1096,189.0241852
1097,185.1613541
1098,179.5558866
1099,178.6730207
1100,187.1268514
1101,191.5873311
1102,186.0565338
1103,182.1604284
1104,183.5439428
1105,185.0197245
1106,186.8926646
1107,188.0493724
1108,184.8716329
1109,182.1649221
1110,183.8770269
1111,185.5212352
1112,185.9291229
1113,186.3612849
1114,189.4630712
1115,192.5648499
1116,195.5104396
1117,198.4507192
1118,190.3373769
1119,181.3478432
1120,183.4526952
1121,186.9688797
1122,185.0688604
1123,182.2051455
1124,192.7679469
1125,206.4400609
1126,200.6618602
1127,189.2753042
1128,184.1449433
1129,181.1941579
1130,180.2752457
1131,180.1932271
1132,178.2801539
1133,175.4899813
1134,176.6191305
1135,179.9036459
1136,179.5990842
1137,177.0520783
1138,174.8419456
1139,172.8688952
1140,173.4270541
1141,175.9770928
1142,178.923144
1143,182.2154745
1144,185.1318283
1145,187.6848984
1146,185.6834615
1147,178.8437475
1148,176.0435804
1149,177.9400495
1150,178.5632922
1151,177.5732422
1152,176.0616239
1153,173.8326861
1154,173.5960782
1155,176.3219643
1156,176.3161075
1157,171.9355698
1158,169.0753886
1159,168.827287
1160,170.4465497
1161,175.4942945
1162,177.4319178
1163,173.2919579
1164,171.309283
1165,173.7947362
1166,174.9535459
1167,173.2126948
1168,171.3456955
1169,169.189078
1170,167.7398923
1171,167.9888764
1172,169.7814903
1173,175.4285965
1174,179.3608805
1175,178.8623136
1176,178.1364339
1177,176.806118
1178,174.2905782
1179,168.5501925
1180,166.0345179
1181,172.4442673
1182,177.1228142
1183,176.9562276
1184,175.8933907
1185,172.3096644
1186,169.7542305
1187,170.0877965
1188,169.7607842
1189,167.5912972
1190,165.6662293
1191,164.4138616
1192,164.2225825
1193,166.8959007
1194,170.0988706
1195,174.6963616
1196,176.4229088
1197,170.818999
1198,166.0599823
1199,163.3818944
1200,162.5705147
1201,166.1713372
1202,169.5412941
1203,172.3901456
1204,173.0006803
1205,168.808698
1206,166.1384125
1207,166.5578601
1208,166.8909607
1209,167.0588354
1210,170.1407929
1211,178.4557419
1212,180.8117879
1213,173.1642049
1214,168.1391627
1215,167.2141762
1216,167.5937411
1217,169.865504
1218,169.5120773
1219,165.6393674
1220,166.3654925
1221,172.76769
1222,173.8338356
1223,168.8607521
1224,164.5913149
1225,161.0490481
1226,160.5082436
1227,162.7867686
1228,165.9334793
1229,169.817716
1230,167.2850482
1231,159.8499057
1232,157.6371892
1233,158.9898351
1234,159.4473127
1235,159.362723
1236,160.7694257
1237,162.9700966
1238,168.6447194
1239,175.9281833
1240,175.1500778
1241,171.1672109
1242,174.3571002
1243,179.9533844
1244,174.3224564
1245,165.5836563
1246,162.192777
1247,159.9855525
1248,158.6492653
1249,157.4600563
1250,159.915198
1251,162.8049991
1252,164.9826495
1253,167.1087634
1254,166.0077731
1255,164.7536545
1256,159.1340256
1257,153.9348755
1258,155.723999
1259,157.5046717
1260,159.2096125
1261,160.7658831
1262,161.4482638
1263,161.8202515
1264,160.8814176
1265,160.574337
1266,162.2823258
1267,162.7640953
1268,160.2005857
1269,158.615125
1270,158.9571266
1271,160.6246529
1272,164.3889364
1273,166.7631671
1274,167.3623873
1275,164.5890287
1276,158.3363139
1277,158.8247795
1278,164.9098053
1279,165.940108
1280,163.6247012
1281,158.9362742
1282,153.0156212
1283,156.1273804
1284,162.8242734
1285,163.2019806
1286,161.7415314
1287,160.1368714
1288,158.5036354
1289,162.4936079
1290,167.1381938
1291,165.9317474
1292,164.4299787
1293,161.1576792
1294,158.8629036
1295,166.9623578
1296,172.8918076
1297,166.6842868
1298,160.739886
1299,155.7364044
1300,152.3150737
1301,152.8329849
1302,154.7335116
1303,159.1383565
1304,161.2616857
1305,160.311053
1306,156.6070226
1307,150.1216024
1308,149.8982188
1309,154.397452
1310,155.4983533
1311,154.719176
1312,154.3132223
1313,154.0533422
1314,153.8622271
1315,153.6888695
1316,152.2298597
1317,150.5819957
1318,148.9331996
1319,147.3617058
1320,148.3168653
1321,149.1187452
1322,148.6843249
1323,147.882534
1324,145.5352567
1325,144.5508181
1326,147.1604525
1327,150.707957
1328,155.9303309
1329,157.4795609
1330,154.4313647
1331,151.8444328
1332,149.665858
1333,146.5706189
1334,142.9084295
1335,141.7100652
1336,141.5355733
1337,142.8205401
1338,144.4792137
1339,146.8360723
1340,149.2818871
1341,155.8361918
1342,163.3804665
1343,182.5329844
1344,194.7740936
1345,172.3724556
1346,159.7974739
1347,174.9450798
1348,179.6767807
1349,165.7467118
1350,156.048734
1351,151.4026184
1352,148.5063082
1353,147.0151609
1354,147.2467868
1355,148.3877576
1356,147.8704453
1357,146.8166199
1358,147.9479192
1359,149.4417305
1360,146.2047463
1361,142.8676605
1362,140.8442192
1363,139.6030438
1364,142.1558571
1365,143.8043874
1366,143.0997467
1367,144.093221
1368,147.7947947
1369,147.2692095
1370,142.4190305
1371,144.7126973
1372,151.6834577
1373,150.1922582
1374,145.3363101
1375,141.5017624
1376,137.8797251
1377,134.7548332
1378,132.0402476
1379,135.7550367
1380,139.10628
1381,140.6992811
1382,144.3590431
1383,153.1257528
1384,155.5634766
1385,148.7408727
1386,145.6396306
1387,145.9056053
1388,144.9126905
1389,143.2271919
1390,139.1601626
1391,134.3669434
1392,134.3858337
1393,135.0301984
1394,137.5185293
1395,139.484314
1396,138.1504898
1397,136.6296806
1398,134.5832672
1399,135.6202443
1400,141.4960531
1401,143.550218
1402,142.0358543
1403,140.0601565
1404,137.8318278
1405,141.9720485
1406,147.9475212
1407,143.7216899
1408,138.6132228
1409,137.2738406
1410,136.7243017
1411,139.9407285
1412,141.0929998
1413,137.6064618
1414,135.6666667
1415,135.6666654
1416,136.0822716
1417,136.7983055
1418,136.8070068
1419,136.5383326
1420,139.0352516
1421,141.9924139
1422,135.4713109
1423,130.1318715
1424,132.2850914
1425,134.1107775
1426,135.0982577
1427,136.009744
1428,136.818161
1429,138.0359065
1430,139.5638237
1431,140.7068405
1432,141.696078
1433,139.0433617
1434,135.8889109
1435,142.0114733
1436,145.2877058
1437,133.3956668
1438,126.2495689
1439,129.7652168
1440,133.2404048
1441,136.6679383
1442,137.9448242
1443,137.854571
1444,133.4138273
1445,127.6342773
1446,135.5545464
1447,143.6290385
1448,138.6563378
1449,134.8542493
1450,134.9447161
1451,135.4576391
1452,136.6344007
1453,136.2241478
1454,134.5032438
1455,132.6533636
1456,130.7501818
1457,130.7362836
1458,130.9333407
1459,128.755689
1460,127.5805384
1461,130.5765839
1462,131.5243034
1463,128.7990074
1464,127.7854258
1465,128.3308105
1466,129.0018908
1467,129.729496
1468,126.7906342
1469,123.5691058
1470,132.6750183
1471,138.6635055
1472,131.8300171
1473,127.8005943
1474,128.6211014
1475,128.6563238
1476,128.017774
1477,126.4701945
1478,124.5534083
1479,128.2946739
1480,132.3567352
1481,129.9807536
1482,127.7125575
1483,125.7923533
1484,124.8180936
1485,125.1840642
1486,124.6828473
1487,123.584287
1488,123.6867142
1489,124.1447194
1490,122.7704519
1491,121.7942327
1492,123.9952698
1493,126.661204
1494,130.3317807
1495,131.202357
1496,129.2741598
1497,127.0305405
1498,124.6418343
1499,128.816438
1500,132.2037265
1501,106.9085528
1502,93.15172068
1503,114.7804235
1504,124.9568049
1505,120.2601331
1506,120.0555636
1507,122.543513
1508,124.1292572
1509,125.5065498
1510,126.2445958
1511,126.2357483
1512,123.2818108
1513,121.7199046
1514,122.2740974
1515,124.4708837
1516,127.7980041
1517,124.7059034
1518,119.8972066
1519,119.4681295
1520,119.8020986
1521,123.2277336
1522,124.2981021
1523,121.6115532
1524,120.6630249
1525,120.9411112
1526,120.6344617
1527,120.1707141
1528,123.0185089
1529,125.8050652
1530,128.2194125
1531,128.9967435
1532,127.324276
1533,124.6357549
1534,121.2888451
1535,117.7131208
1536,114.3904559
1537,124.350029
1538,131.2872721
1539,128.2138062
1540,127.0771662
1541,128.3818359
1542,129.1991946
1543,129.7586695
1544,127.3269921
1545,125.07105
1546,130.1123021
1547,130.0023549
1548,117.578584
1549,112.5979398
1550,114.747687
1551,122.2738775
1552,131.8131879
1553,122.5125402
1554,114.6031392
1555,119.2848193
1556,120.7259458
1557,116.9783808
1558,114.0241559
1559,111.5867958
1560,117.7653732
1561,125.0281652
1562,119.0213928
1563,113.8659821
1564,110.9547246
1565,111.8976479
1566,116.689977
1567,115.8820534
1568,112.9673436
1569,109.3329646
1570,107.3294957
1571,112.7892889
1572,115.9611994
1573,115.8670095
1574,116.6810328
1575,118.0004768
1576,118.9084829
1577,119.8478381
1578,121.5462786
1579,122.1846733
1580,120.768467
1581,116.6898104
1582,110.6437556
1583,111.4927406
1584,113.7972883
1585,113.0406354
1586,111.7705116
1587,109.2152939
1588,108.9931246
1589,110.887001
1590,109.7400958
1591,107.6822751
1592,110.621259
1593,111.6367353
1594,106.7987658
1595,104.1471443
1596,103.7674675
1597,107.2941538
1598,112.2328326
1599,114.0090828
1600,114.4314296
1601,110.4377658
1602,108.3333333
1603,108.3333321
1604,108.9513588
1605,109.8081563
1606,105.5803032
1607,103.1353912
1608,107.5197741
1609,109.8333333
1610,109.8333333
1611,110.3174349
1612,110.9854139
1613,107.3575172
1614,104.2999687
1615,103.4401207
1616,104.353255
1617,107.1255163
1618,106.1950455
1619,103.9997851
1620,103.9040743
1621,104.0331764
1622,104.7992986
1623,106.66288
1624,109.5375353
1625,107.0959638
1626,103.5634677
1627,108.9358508
1628,111.2294439
1629,106.525828
1630,104.7734044
1631,105.2536519
1632,103.1690165
1633,102.1491966
1634,115.323494
1635,113.5047073
1636,85.79343413
1637,85.74708556
1638,101.6327311
1639,104.7332344
1640,105.6654154
1641,102.7736944
1642,103.5661748
1643,108.9672496
1644,103.7264315
1645,94.26896415
1646,98.84702047
1647,103.9607061
1648,110.1443227
1649,108.3173116
1650,99.61645762
1651,100.9141998
1652,104.0518239
1653,102.7935422
1654,102.1073087
1655,102.3978513
1656,102.562837
1657,102.6597392
1658,102.3965683
1659,101.9022318
1660,100.6409734
1661,100.5251694
1662,101.5930189
1663,102.2097066
1664,102.5862172
1665,101.2255274
1666,101.170433
1667,103.6016744
1668,102.3526497
1669,98.94689815
1670,103.9385185
1671,106.7745539
1672,98.39623388
1673,94.21493658
1674,94.31241607
1675,94.10350799
1676,94.26738422
1677,99.92790732
1678,102.2750219
1679,98.95482254
1680,97.0568568
1681,95.8843282
1682,97.79717637
1683,99.25943629
1684,98.96595636
1685,96.31177392
1686,91.71122042
1687,92.15920831
1688,94.10797119
1689,99.49796169
1690,100.6319504
1691,96.41546376
1692,94.23930868
1693,92.98686726
1694,96.42294692
1695,98.18944168
1696,96.81419499
1697,94.47958693
1698,91.62918091
1699,92.15723609
1700,92.94812648
1701,94.03058878
1702,93.99811173
1703,93.1119353
1704,92.48353259
1705,92.2332751
1706,93.51482392
1707,93.68199412
1708,92.69560624
1709,89.57237751
1710,86.91375414
1711,92.04903285
1712,94.78984452
1713,94.29577637
1714,96.13860448
1715,98.36255646
1716,92.62458802
1717,89.61980439
1718,91.30261549
1719,92.37581444
1720,93.16398938
1721,91.77651024
1722,89.84892655
1723,86.7748324
1724,86.4915765
1725,87.78147507
1726,94.12247848
1727,97.43726223
1728,92.47025363
1729,91.9392929
1730,94.32486471
1731,96.15880457
1732,97.12557856
1733,95.63283412
1734,91.61569469
1735,85.74077097
1736,87.5938975
1737,90.69617717
1738,95.1823438
1739,95.3865293
1740,92.19448217
1741,88.11558977
1742,86.15545082
1743,92.24747405
1744,92.4254284
1745,87.72880554
1746,87.51874352
1747,87.9187444
1748,88.31892904
1749,90.36355528
1750,93.76712926
1751,91.51447933
1752,88.81599934
1753,87.21242777
1754,87.1130244
1755,88.21612868
1756,89.23013749
1757,90.49075063
1758,92.5991675
1759,93.1547718
1760,92.55201467
1761,88.09142493
1762,84.70570374
1763,85.51033275
1764,86.73691686
1765,88.24648475
1766,87.19448853
1767,87.78090603
1768,92.81873259
1769,91.92174021
1770,87.58665339
1771,89.57604217
1772,90.37134107
1773,88.45358022
1774,87.35501797
1775,86.62676684
1776,85.1109581
1777,85.1960036
1778,87.92606862
1779,86.97093709
1780,84.94043668
1781,86.25646274
1782,86.51530202
1783,85.4010849
1784,85.16666794
1785,85.28444989
1786,86.09574381
1787,86.29636191
1788,85.89047495
1789,87.57808685
1790,88.08300782
1791,83.10504024
1792,81.05866496
1793,81.16031583
1794,79.73630778
1795,79.7617677
1796,83.42552122
1797,85.07067298
1798,85.62666956
1799,83.99641737
1800,83.15855091
1801,83.56635538
1802,84.43585077
1803,85.05112902
1804,82.70349885
1805,83.39141846
1806,87.27239671
1807,92.81632868
1808,95.22110367
1809,85.81398009
1810,81.45252292
1811,80.53171795
1812,79.61039225
1813,78.23944155
1814,75.98593522
1815,73.44024405
1816,71.72591972
1817,80.34034537
1818,86.55457498
1819,89.94080353
1820,86.29981169
1821,82.09421985
1822,80.96414629
1823,81.46918932
1824,83.11389923
1825,80.87690545
1826,79.04722087
1827,78.22389793
1828,80.02424685
1829,81.85658647
1830,75.9835097
1831,72.39131166
1832,71.15414747
1833,74.16065851
1834,76.16304969
1835,73.58258946
1836,77.13025221
1837,83.6715819
1838,78.50459035
1839,75.71636772
1840,76.23337111
1841,77.50173378
1842,78.58561134
1843,78.17152214
1844,76.78645453
1845,74.71479099
1846,80.63961474
1847,81.51757113
1848,73.42858504
1849,74.97714234
1850,79.55939612
1851,84.2316068
1852,81.81805038
1853,73.61090215
1854,71.98679607
1855,71.77230453
1856,73.54047649
1857,78.92957114
1858,83.84372458
1859,77.90817643
1860,77.18513744
1861,80.93610572
1862,79.50327555
1863,80.53157678
1864,86.99916967
1865,81.38482094
1866,74.12376467
1867,81.85222435
1868,81.31320953
1869,73.99821091
1870,72.16933314
1871,72.48753421
1872,76.14933078
1873,81.74154345
1874,85.23310153
1875,76.12022591
1876,74.53848203
1877,78.31154124
1878,77.1864408
1879,76.11758994
1880,75.17321778
1881,75.1714681
1882,75.11667125
1883,74.17119027
1884,72.48226231
1885,70.59608969
1886,72.27891986
1887,72.71916899
1888,71.77202161
1889,75.31657092
1890,76.94154866
1891,72.93778801
1892,74.42897161
1893,78.63313803
1894,86.54457474
1895,84.53075283
1896,74.82036209
1897,72.79578082
1898,72.48188464
1899,74.48964501
1900,70.71453284
1901,68.20224698
1902,72.96304766
1903,76.00534502
1904,77.23836899
1905,69.82399177
1906,67.62331072
1907,70.06089273
1908,73.71715165
1909,76.49012376
1910,77.76339722
1911,71.43057378
1912,66.37160047
1913,70.62082163
1914,68.48213577
1915,64.32465236
1916,68.89792252
1917,69.38990974
1918,66.41022046
1919,70.7938188
1920,72.4542993
1921,69.89728611
1922,77.24355634
1923,81.07361985
1924,71.26025009
1925,68.65341885
1926,68.95080758
1927,69.69835219
1928,70.06373723
1929,70.21379279
1930,71.4967982
1931,73.95603625
1932,77.70033136
1933,68.15244929
1934,62.96604539
1935,67.46446229
1936,65.9986871
1937,66.7207667
1938,78.19444339
1939,74.55841255
1940,66.0343081
1941,67.429938
1942,68.31771278
1943,68.85052172
1944,69.28045018
1945,68.65799587
1946,66.93727938
1947,69.46212452
1948,70.53557205
1949,68.92051061
1950,66.85064825
1951,64.69560242
1952,62.53966712
1953,61.35311445
1954,62.45407041
1955,71.19582558
1956,72.81220309
1957,70.68464407
1958,67.98341625
1959,64.90878422
1960,61.63489787
1961,60.66131719
1962,62.08350627
1963,65.98010444
1964,60.59835816
1965,57.34577879
1966,57.77924093
1967,60.30068271
1968,80.43409093
1969,134.4631844
1970,104.427241
1971,66.09530004
1972,62.07639504
1973,62.19360542
1974,63.99684779
1975,66.49800746
1976,65.01430384
1977,62.4093895
1978,65.45783679
1979,64.69449743
1980,61.64262581
1981,61.31562424
1982,62.53245926
1983,65.07300631
1984,69.54724121
1985,68.68270365
1986,62.24041176
1987,61.57928785
1988,61.8590711
1989,63.06158066
1990,62.66754659
1991,61.90768623
1992,60.8132178
1993,52.41500092
1994,49.10824744
1995,57.65505219
1996,58.26419195
1997,59.66050275
1998,66.79115612
1999,62.31146431
2000,57.62839953
2001,61.25280253
2002,64.13911883
2003,64.64097913
2004,58.04346339
2005,57.03263601
2006,58.86164602
2007,63.15503566
2008,62.83581734
2009,60.56536865
2010,59.02235349
2011,53.539615
2012,48.22711086
2013,55.28912036
2014,58.32775561
2015,58.23777135
2016,52.38272349
2017,54.97568258
2018,61.51888784
2019,58.75385221
2020,59.07688204
2021,60.79842504
2022,57.14432398
2023,58.70226669
2024,62.58405368
2025,54.38045819
2026,52.1086642
2027,53.65324402
2028,51.5444603
2029,47.36050479
2030,42.78431797
2031,50.22922007
2032,51.6478672
2033,49.15889899
2034,51.05010541
2035,50.46385956
2036,48.34319751
2037,48.45457427
2038,46.52030086
2039,44.48019727
2040,54.62730535
2041,57.59215291
2042,55.91551654
2043,55.13406118
2044,57.1009407
2045,60.05817032
2046,57.82284292
2047,49.22679837
2048,39.87046909
2049,48.37460454
2050,48.92405701
2051,45.50368309
2052,43.48720137
2053,46.24184927
2054,49.9520518
2055,47.93322404
2056,48.20096652
2057,48.94665718
2058,47.93607012
2059,44.86500645
2060,44.1078186
2061,52.53917631
2062,51.21968842
2063,43.34274737
2064,26.4604222
2065,40.47950141
2066,52.65683619
2067,45.44533571
2068,44.33333397
2069,44.20894623
2070,43.87051423
2071,46.94807498
2072,49.09342448
2073,49.31930796
2074,50.49922816
2075,55.30322775
2076,64.23598989
2077,52.13560995
2078,44.23908424
2079,40.74589952
2080,42.55821959
2081,42.23066076
2082,40.22306792
2083,37.50143019
2084,41.23331483
2085,46.11037445
2086,37.5953846
2087,36.34255632
2088,38.09254678
2089,39.22919687
2090,41.31933244
2091,42.39306291
2092,40.34471893
2093,40.18940163
2094,40.58486048
2095,41.26843453
2096,39.5794042
2097,39.46006934
2098,41.62722937
2099,42.11486753
2100,40.36833191
2101,36.93240198
2102,38.53203615
2103,40.89088631
2104,42.95066802
2105,40.31965065
2106,40.36680762
2107,40.747962
2108,38.22841962
2109,38.11187681
2110,38.05614694
2111,36.68025812
2112,38.19479148
2113,38.28220749
2114,35.75682227
2115,35.55590979
2116,37.85922241
2117,42.13770167
2118,41.67774296
2119,41.4294049
2120,41.02940146
2121,39.18743483
2122,39.74076208
2123,40.27238782
2124,38.19777584
2125,34.88633601
2126,33.10412661
2127,34.25802263
2128,31.85114956
2129,32.48602581
2130,36.32212639
2131,36.09094651
2132,36.70157337
2133,37.51339849
2134,36.58760739
2135,37.17321269
2136,37.23798466
2137,34.57325935
2138,34.36313979
2139,37.54139455
2140,44.96485583
2141,40.42471854
2142,38.22899755
2143,38.41591486
2144,39.22926394
2145,37.01804606
2146,33.29722595
2147,29.57475821
2148,30.51113764
2149,30.50145563
2150,26.89114841
2151,33.77007866
2152,39.15702661
2153,42.16666603
2154,42.16666667
2155,43.53139051
2156,43.94950454
2157,38.45999241
2158,37.24045308
2159,36.9511474
2160,36.36648178
2161,38.31993803
2162,37.81494013
2163,35.17781067
2164,35.29494572
2165,37.618337
2166,40.01993338
2167,39.4335804
2168,34.46946717
2169,31.76762549
2170,33.64612166
2171,40.52180894
2172,40.88565572
2173,36.64160919
2174,34.28942681
2175,35.05100219
2176,36.59620349
2177,37.42041651
2178,35.15838496
2179,34.81280867
2180,36.59598573
2181,35.65239906
2182,35.17711322
2183,34.46941757
2184,32.34389877
2185,36.95178922
2186,37.95745786
2187,32.51894887
2188,33.58354505
2189,36.88228353
2190,39.2410291
2191,32.13554955
2192,34.05057081
2193,34.60342185
2194,29.26817735
2195,37.89457798
2196,37.42747593
2197,31.27208297
2198,30.91578642
2199,36.22203891
2200,38.66445065
2201,33.19493898
2202,36.44191774
2203,36.12194793
2204,33.43061829
2205,34.02615675
2206,34.16666667
2207,33.77433395
2208,32.70113214
2209,43.17547703
2210,42.17546527
2211,34.39698887
2212,36.66654523
2213,33.99849034
2214,33.98726082
2215,40.44499143
2216,39.31363042
2217,36.46829542
2218,34.17450555
2219,38.24749311
2220,36.16619873
2221,35.03268814
2222,37.04209518
2223,38.24209722
2224,38.12355232
2225,36.817825
2226,34.17478975
2227,34.98478317
2228,41.14225101
2229,50.02797254
2230,36.79003716
2231,35.40629991
2232,37.07102807
2233,35.26378377
2234,35.50888825
2235,35.87066142
2236,35.39788088
2237,31.17371972
2238,-8.650743804
2239,-15.57525669
2240,32.96389357
2241,36.107241
2242,37.96863365
2243,37.90137387
2244,34.63338725
2245,32.24359195
2246,33.10054111
2247,35.99582958
2248,34.90462812
2249,35.2358195
2250,35.12178739
2251,33.70571963
2252,30.06213029
2253,27.94740232
2254,27.74372085
2255,30.29715411
2256,32.73993556
2257,32.4927311
2258,29.99153137
2259,27.19011148
2260,32.31531525
2261,35.40598997
2262,33.54493809
2263,29.88463879
2264,30.22559325
2265,31.37263934
2266,31.00619062
2267,37.12788773
2268,36.62147458
2269,35.61517652
2270,45.15918795
2271,25.79868507
2272,21.37063599
2273,31.57103157
2274,34.88039398
2275,33.00806332
2276,32.33560212
2277,34.11045202
2278,31.77764861
2279,31.43868828
2280,33.87017314
2281,39.35880979
2282,33.82428424
2283,32.08249633
2284,32.67252318
2285,34.27321148
2286,31.25044092
2287,32.0290254
2288,34.18229103
2289,32.94888338
2290,33.50443014
2291,33.90196609
2292,33.31251844
2293,29.97661877
2294,32.57283052
2295,37.48088996
2296,41.62725894
2297,35.19157187
2298,30.46829414
2299,27.99234867
2300,28.18864981
2301,32.4037962
2302,34.88038285
2303,32.59168339
2304,25.88135846
2305,29.97952398
2306,36.13240401
2307,38.99513245
2308,36.08385213
2309,32.47627958
2310,38.12736797
2311,40.79828199
2312,33.69695091
2313,31.08010896
2314,31.75895596
2315,32.19855245
2316,30.10386308
2317,28.60597197
2318,31.60902818
2319,34.71318722
2320,34.94908651
2321,37.94998169
2322,35.56693204
2323,32.85366376
2324,33.45443217
2325,36.33519586
2326,35.82941151
2327,34.28400612
2328,33.202082
2329,30.69279862
2330,33.27152888
2331,47.74637985
2332,73.04056295
2333,39.98724842
2334,30.37847901
2335,29.34228198
2336,29.30506547
2337,32.57825978
2338,36.1436011
2339,36.36716111
2340,32.84894466
2341,32.97505188
2342,31.78541565
2343,29.54173311
2344,26.83715534
2345,25.82658625
2346,27.15614589
2347,30.18311215
2348,35.47351615
2349,45.0902532
2350,46.39153926
2351,39.0408996
2352,30.98826377
2353,37.45257505
2354,31.50762781
2355,30.98885663
2356,31.97251733
2357,28.16540686
2358,26.64094416
2359,24.41536777
2360,22.40101051
2361,22.00073655
2362,31.92657535
2363,29.89649455
2364,26.78095643
2365,28.4667174
2366,38.91929086
2367,33.54986032
2368,32.05112108
2369,34.48460102
2370,28.35563723
2371,31.33947691
2372,37.59180673
2373,38.64942583
2374,24.53579712
2375,35.15777365
2376,35.999403
2377,31.33881251
2378,24.44871664
2379,15.47523578
2380,22.2694157
2381,28.88358084
2382,30.03560066
2383,26.05489604
2384,27.28999011
2385,29.8674682
2386,29.77558613
2387,22.69191551
2388,24.62241348
2389,24.61185582
2390,24.49429671
2391,26.0734787
2392,33.03503418
2393,45.07692973
2394,42.55370903
2395,30.2783858
2396,27.43739828
2397,25.83962536
2398,30.55733077
2399,34.19001961
2400,31.81009452
2401,35.04577001
2402,28.75976213
2403,28.65042369
2404,32.91688252
2405,26.17530235
2406,23.73997497
2407,33.69366487
2408,40.0116539
2409,31.35852814
2410,31.6184028
2411,30.07868226
2412,29.51291021
2413,32.41864936
2414,42.05027644
2415,39.29965973
2416,34.01250617
2417,31.51438649
2418,32.38142172
2419,20.24957387
2420,24.64350478
2421,25.92788665
2422,23.71467988
2423,23.31199376
2424,22.52753449
2425,32.07806778
2426,33.76136971
2427,23.85628843
2428,16.65329091
2429,25.20831235
2430,27.28755283
2431,30.20166683
2432,37.757514
2433,24.50048319
2434,20.93881162
2435,21.08131663
2436,22.33059502
2437,22.61883354
2438,17.75139761
2439,24.9523627
2440,29.56105995
2441,26.49983152
2442,17.67100334
2443,23.57680162
2444,25.04975192
2445,23.33795134
2446,21.27045234
2447,24.44010735
2448,20.98573828
2449,26.10695839
2450,27.85188039
2451,20.74405909
2452,29.2154069
2453,27.46262296
2454,27.4173495
2455,27.51480643
2456,24.84770934
2457,22.06182575
2458,25.88125134
2459,26.31293424
2460,22.72670444
2461,18.27492746
2462,24.78986359
2463,27.95610746
2464,27.90612316
2465,26.39907424
2466,25.91128572
2467,28.84289741
2468,26.44669533
2469,24.84453774
2470,23.68782616
2471,21.29407835
2472,24.7664512
2473,24.88608551
2474,29.31684081
2475,35.92219416
2476,38.34126536
2477,24.68847021
2478,23.69350243
2479,25.30622546
2480,25.47608821
2481,22.54710356
2482,18.79091756
2483,26.58443101
2484,26.66636022
2485,25.41303317
2486,28.56136799
2487,22.51118374
2488,25.44840685
2489,27.21305561
2490,26.54511293
2491,25.87958114
2492,32.75172965
2493,23.38353618
2494,25.7711455
2495,47.73478444
2496,64.82966359
2497,24.26425711
2498,21.29155111
2499,20.88022359
2500,23.71266174
2501,24.36104075
2502,17.72226667
2503,25.44140561
2504,27.78608195
2505,29.87766425
2506,30.84073003
2507,28.8841575
2508,23.45518049
2509,20.85217508
2510,24.17524258
2511,28.87643878
2512,29.23325698
2513,20.76704661
2514,27.16380374
2515,24.43855985
2516,23.63167604
2517,25.3882548
2518,26.50571092
2519,25.41448561
2520,25.33333333
2521,24.17900133
2522,21.87872585
2523,19.08903917
2524,17.41164549
2525,26.57598448
2526,25.22600969
2527,23.9166716
2528,20.56742048
2529,14.96458372
2530,24.28630304
2531,22.1669658
2532,24.5633866
2533,23.08206113
2534,16.54050891
2535,11.95431542
2536,26.11304252
2537,27.29932467
2538,22.12461011
2539,17.52311134
2540,19.3673722
2541,29.88293076
2542,27.40175057
2543,26.07529926
2544,23.23379691
2545,23.27171707
2546,25.98680655
2547,19.08180491
2548,28.89570554
2549,21.06581132
2550,20.0523262
2551,20.78961484
2552,14.45501741
2553,15.9788359
2554,14.49651798
2555,17.97041734
2556,23.31025648
2557,20.64890734
2558,8.68548282
2559,16.1866653
2560,18.78618717
2561,20.96308263
2562,21.67114997
2563,23.96535174
2564,29.06203079
2565,28.50485675
2566,24.7698172
2567,23.66724269
2568,21.32263279
2569,18.54370976
2570,18.10246078
2571,21.64851507
2572,20.67024279
2573,14.494198
2574,16.80098963
2575,20.36089802
2576,19.67104991
2577,22.18410079
2578,22.46437486
2579,24.33587519
2580,18.95252291
2581,24.46054729
2582,34.25569153
2583,22.42633168
2584,20.45902666
2585,35.33753967
2586,25.81578414
2587,19.35419766
2588,20.61823591
2589,20.66982142
2590,23.19300334
2591,24.88481442
2592,18.58325466
2593,19.32956251
2594,17.17808835
2595,10.15969896
2596,12.42127772
2597,19.20705589
2598,18.47986158
2599,19.34043868
2600,23.26437744
2601,25.13911438
2602,21.72417768
2603,19.5787166
2604,14.18900331
2605,15.23278594
2606,16.82403199
2607,21.51939631
2608,23.75765705
2609,17.76432546
2610,20.16303277
2611,19.59383424
2612,16.88407119
2613,16.02266947
2614,17.99952904
2615,20.03614124
2616,18.58757528
2617,17.01800728
2618,22.64511077
2619,21.32085355
2620,21.82962736
2621,18.88115359
2622,12.52030786
2623,11.57883732
2624,16.30294514
2625,22.45272001
2626,22.19163784
2627,19.75390832
2628,16.88535071
2629,22.38385614
2630,36.26516406
2631,16.31120348
2632,23.06513023
2633,16.69125811
2634,18.61259381
2635,20.32585478
2636,20.61166589
2637,21.56054989
2638,12.87252196
2639,20.36932929
2640,15.58337816
2641,16.03247007
2642,17.08745957
2643,16.05771399
2644,18.51127768
2645,28.67499924
2646,16.09140046
2647,18.44232734
2648,19.07689905
2649,19.16666651
2650,18.22807169
2651,19.31491661
2652,22.80167389
2653,20.15330029
2654,20.00811211
2655,22.46870867
2656,21.26280244
2657,16.52919594
2658,13.27998066
2659,17.54174217
2660,26.50367069
2661,21.3863519
2662,10.1644816
2663,18.10945972
2664,18.45322243
2665,15.51594957
2666,12.44905226
2667,13.64617181
2668,19.56332334
2669,17.59919675
2670,25.35257403
2671,18.28220661
2672,25.4460659
2673,22.28732427
2674,17.25653966
2675,16.82608573
2676,17.19710843
2677,20.12320566
2678,13.95580316
2679,14.12134226
2680,19.01540582
2681,13.44116823
2682,13.16997107
2683,15.02886009
2684,13.1112326
2685,16.08090067
2686,16.67712768
2687,20.06907781
2688,17.20395756
2689,16.73402278
2690,13.01008654
2691,12.46961991
2692,16.40063159
2693,20.82702398
2694,25.67368762
2695,24.33695857
2696,12.63620138
2697,13.37320383
2698,17.0641346
2699,16.36510038
2700,13.96691084
2701,16.45193386
2702,21.94847997
2703,19.70000124
2704,15.93636847
2705,14.4488972
2706,8.842766166
2707,19.01804622
2708,25.2303009
2709,23.21990045
2710,21.43171676
2711,21.12443113
2712,-129.8448547
2713,-685.8254022
2714,-5.377170562
2715,11.97540005
2716,14.05228241
2717,16.97048441
2718,13.30619287
2719,13.27228133
2720,18.31786728
2721,17.09093873
2722,-63.98062609
2723,-394.0173761
2724,20.12011349
2725,13.88411601
2726,13.1484216
2727,11.9246846
2728,12.05602535
2729,17.54168812
2730,21.77522373
2731,19.38097509
2732,16.96836694
2733,16.42461602
2734,12.50315603
2735,7.825690588
2736,21.11301915
2737,24.45281124
2738,18.78371636
2739,13.82952619
2740,11.98859255
2741,12.37246259
2742,13.05914752
2743,9.906395157
2744,12.78462601
2745,12.17811028
2746,16.92976666
2747,22.99238396
2748,19.92489672
2749,16.49617163
2750,17.56396771
2751,17.83048662
2752,16.9699165
2753,16.91219854
2754,17.67466831
2755,37.77976767
2756,16.09127522
2757,20.36170419
2758,19.10798057
2759,17.04559469
2760,11.15300449
2761,12.36331924
2762,16.55586704
2763,15.1251359
2764,14.45844364
2765,20.00258287
2766,18.00030518
2767,14.58051999
2768,10.05727728
2769,16.96047703
2770,7.750442108
2771,11.74876535
2772,14.11903604
2773,13.33308888
2774,9.125307281
2775,11.15606221
2776,18.56539742
2777,17.21566788
2778,8.38428112
2779,8.686004996
2780,3.729351203
2781,12.8434399
2782,13.15219466
2783,13.46110408
2784,15.25606362
2785,9.392661254
2786,7.499764461
2787,9.649074316
2788,9.16705076
2789,7.95312802
2790,9.585188707
2791,12.48224322
2792,15.08137401
2793,15.39178594
2794,14.63188601
2795,6.078375617
2796,7.943595489
2797,5.436168134
2798,10.05744966
2799,13.57470846
2800,15.04019324
2801,13.51500575
2802,12.01906602
2803,12.35058014
2804,12.40105947
2805,16.87675747
2806,20.80458721
2807,9.102538188
2808,3.656203249
2809,11.34354131
2810,13.39808925
2811,12.23560428
2812,16.30875603
2813,13.21359364
2814,15.48439821
2815,16.77852456
2816,11.47746086
2817,7.566402854
2818,9.289755146
2819,8.531663896
2820,3.382908908
2821,3.002538714
2822,5.84145545
2823,0.806368669
2824,-0.409861247
2825,15.92756637
2826,14.05912161
2827,20.55772162
2828,15.4149801
2829,11.37077149
2830,17.37679561
2831,10.59301305
2832,13.52652443
2833,17.90931877
2834,16.32604679
2835,20.30275949
2836,19.28148413
2837,13.42774169
2838,10.01610692
2839,7.969539444
2840,6.88596177
2841,8.791517894
2842,14.35369762
2843,16.9752512
2844,12.70529151
2845,20.13708878
2846,19.75630442
2847,12.28055573
2848,15.72923025
2849,14.69019381
2850,12.38880944
2851,6.79930367
2852,21.32983335
2853,8.011645396
2854,7.330528458
2855,14.29038747
2856,17.38419263
2857,19.79730225
2858,17.12622261
2859,11.37644649
2860,11.34549157
2861,-9.581805031
2862,-3.559182962
2863,19.88918686
2864,20.07604233
2865,11.92095145
2866,11.04362194
2867,13.81559332
2868,12.89308477
2869,14.15045706
2870,13.85604596
2871,9.937313079
2872,16.51349386
2873,19.08448775
2874,12.93971634
2875,12.44554384
2876,24.34662628
2877,8.997953058
2878,11.68615468
2879,12.33135732
2880,10.06309438
2881,21.81946023
2882,15.15089115
2883,11.82338405
2884,17.70817725
2885,11.9403077
2886,13.65800087
2887,14.72899759
2888,13.55445854
2889,12.17492167
2890,2.222932487
2891,7.22798872
2892,15.1698157
2893,15.85742299
2894,17.70085383
2895,14.3651406
2896,16.175059
2897,13.67187754
2898,9.887475412
2899,13.10016902
2900,11.61963256
2901,8.66631945
2902,13.83749326
2903,16.72529269
2904,16.82377815
2905,15.03637218
2906,7.743270079
2907,7.2800409
2908,8.776635797
2909,10.80099535
2910,15.40875284
2911,15.30770238
2912,15.34795602
2913,15.48322121
2914,11.98193574
2915,13.12348334
2916,13.18561125
2917,6.090235075
2918,-1.611257121
2919,12.34392119
2920,18.09962146
2921,11.54006068
2922,17.2121617
2923,34.27676265
2924,13.58985933
2925,11.1988492
2926,5.07684203
2927,8.175994357
2928,7.262025476
2929,19.86379894
2930,11.05618318
2931,9.536634983
2932,12.7022024
2933,10.12236619
2934,5.249727011
2935,9.177729528
2936,11.59612314
2937,7.9788843
2938,13.22533973
2939,20.37609593
2940,15.77880605
2941,8.505669078
2942,11.78618042
2943,8.896365007
2944,9.098108688
2945,11.62057623
2946,12.44639254
2947,12.86999734
2948,15.10955794
2949,8.278351387
2950,7.601262093
2951,10.24367118
2952,6.82998244
2953,3.90261203
2954,7.172358323
2955,12.78554201
2956,13.60616334
2957,13.99055211
2958,10.68157021
2959,13.10419242
2960,14.16256253
2961,13.18426355
2962,12.12234871
2963,9.288785576
2964,5.05677406
2965,10.8719329
2966,14.48503542
2967,8.260883251
2968,10.62017671
2969,12.08084329
2970,7.170125406
2971,13.08717442
2972,16.37289127
2973,11.18883832
2974,9.490501483
2975,14.66396348
2976,13.17422612
2977,10.2079887
2978,15.71024148
2979,14.10876068
2980,11.60356299
2981,5.090815604
2982,10.34503094
2983,11.26833741
2984,12.75656621
2985,7.26872929
2986,12.22761281
2987,10.49006796
2988,8.818071365
2989,10.49353552
2990,5.961941362
2991,10.99604805
2992,11.16666667
2993,21.16271019
2994,9.611411451
2995,21.4860096
2996,10.05351448
2997,18.07412481
2998,18.52999481
2999,17.03970925
3000,8.305200576
