Frequency,Density
0,239.2
1,239.2
2,239.2
3,239.2
4,239.2
5,239.2
6,239.2
7,239.2
8,239.2
9,239.2
10,239.2
11,239.2
12,239.2
13,239.2
14,239.2
15,239.2
16,239.2
17,239.2
18,239.2
19,239.2
20,239.2
21,239.2
22,239.2
23,239.2
24,239.2
25,239.2
26,239.2
27,239.2
28,239.2
29,239.2
30,239.2
31,239.2
32,239.2
33,239.2
34,239.2
35,239.2
36,239.2
37,239.2
38,239.2
39,239.2
40,239.2
41,239.2
42,239.2
43,239.2
44,239.2
45,239.2
46,239.2
47,239.2
48,239.2
49,239.2
50,239.2
51,239.2
52,239.2
53,239.2
54,239.2
55,239.2
56,239.2
57,239.2
58,239.2
59,239.2
60,239.2
61,239.2
62,239.2
63,239.2
64,239.2
65,239.2
66,239.2
67,239.2
68,239.2
69,239.2
70,239.2
71,239.2
72,239.2
73,239.2
74,239.2
75,239.2
76,239.2
77,239.2
78,239.2
79,239.2
80,239.2
81,239.2
82,239.2
83,239.2
84,239.2
85,239.2
86,239.2
87,239.2
88,239.2
89,239.2
90,239.2
91,239.2
92,239.2
93,239.2
94,239.2
95,239.2
96,239.2
97,239.2
98,239.2
99,239.2
100,239.2
101,239.2
102,239.2
103,239.2
104,239.2
105,239.2
106,239.2
107,239.2
108,239.2
109,239.2
110,239.2
111,239.2
112,239.2
113,239.2
114,239.2
115,239.2
116,239.2
117,239.2
118,239.2
119,239.2
120,239.2
121,239.2
122,239.2
123,239.2
124,239.2
125,239.2
126,239.2
127,239.2
128,239.2
129,239.2
130,239.2
131,239.2
132,239.2
133,239.2
134,239.2
135,239.2
136,239.2
137,239.2
138,239.2
139,239.2
140,239.2
141,239.2
142,239.2
143,239.2
144,239.2
145,239.2
146,239.2
147,239.2
148,239.2
149,239.2
150,239.2
151,239.2
152,239.2
153,239.2
154,239.2
155,239.2
156,239.2
157,239.2
158,239.2
159,239.2
160,239.2
161,239.2
162,239.2
163,239.2
164,239.2
165,239.2
166,239.2
167,239.2
168,239.2
169,239.2
170,239.2
171,239.2
172,239.2
173,239.2
174,239.2
175,239.2
176,239.2
177,239.2
178,239.2
179,239.2
180,239.2
181,239.2
182,239.2
183,239.2
184,239.2
185,239.2
186,239.2
187,239.2
188,239.2
189,239.2
190,239.2
191,239.2
192,239.2
193,239.2
194,239.2
195,239.2
196,239.2
197,239.2
198,239.2
199,257.7654877
200,322.7335266
201,387.7015747
202,410.050061
203,414.3889709
204,417.7472595
205,414.026001
206,410.3047424
207,410.7858337
208,414.8195617
209,418.8532898
210,415.5594544
211,411.9890686
212,409.4093872
213,408.3997803
214,407.3901612
215,406.9477112
216,406.6368774
217,407.2140259
218,410.6352173
219,414.0564026
220,416.8056091
221,419.2174072
222,421.2150452
223,419.2688965
224,417.3227539
225,416.6047974
226,416.9942505
227,417.3837158
228,414.0394897
229,410.5322937
230,405.526355
231,398.1959289
232,390.8655212
233,389.4063232
234,389.1722351
235,388.133606
236,384.8544678
237,381.5753174
238,379.9413696
239,379.0039307
240,377.7880615
241,374.8958801
242,372.003717
243,372.261145
244,374.7639587
245,377.0935364
246,373.1023315
247,369.1111267
248,367.1475403
249,367.4607605
250,367.7739746
251,366.7942078
252,365.6972961
253,362.5151977
254,355.6946533
255,348.874115
256,348.3654785
257,349.3067932
258,350.2482544
259,351.1901245
260,352.1319946
261,349.365802
262,345.1248901
263,342.0643616
264,344.8147217
265,347.5650818
266,346.5893066
267,343.3655579
268,340.7087402
269,344.5637756
270,348.4188171
271,348.6754639
272,345.8415161
273,343.0075928
274,345.8280152
275,348.6636291
276,350.6694397
277,351.6940125
278,352.7185852
279,351.2755371
280,349.6194885
281,349.1762756
282,350.6754944
283,352.1747009
284,357.8341126
285,364.2292663
286,366.8244629
287,361.2155456
288,355.6066223
289,357.6881592
290,361.8775757
291,366.0676147
292,370.2594849
293,374.4513672
294,376.9214355
295,378.7416138
296,380.6249756
297,382.7629761
298,384.9009705
299,381.3338684
300,374.9953125
301,370.036499
302,372.9697998
303,375.9031067
304,379.6320801
305,383.8363159
306,388.0241638
307,392.0721375
308,396.120105
309,394.4548828
310,388.7367371
311,383.0395813
312,377.6359253
313,372.2322754
314,364.6407715
315,355.2583252
316,346.1340393
317,344.2246277
318,342.3152038
319,341.9388489
320,342.9737183
321,343.9662354
322,339.9039429
323,335.8416443
324,334.7118164
325,336.5449096
326,338.3780029
327,339.1878967
328,339.9853638
329,340.2084717
330,339.8095032
331,339.4105408
332,341.1101074
333,342.8666077
334,346.383075
335,351.8953247
336,357.4075806
337,354.1285034
338,350.531427
339,347.1555908
340,344.0363037
341,340.9170105
342,337.1797302
343,333.4183594
344,334.145929
345,340.0715759
346,345.9972046
347,346.2
348,346.2
349,346.538855
350,347.2603882
351,347.9819275
352,343.9331604
353,339.7618225
354,340.0746948
355,345.211676
356,350.3486389
357,343.8802002
358,337.2945801
359,331.9920898
360,327.9740906
361,324.0676514
362,330.2590149
363,336.4503723
364,338.7681152
365,337.5613098
366,336.3665955
367,335.4810791
368,334.5955505
369,332.8629333
370,330.4464478
371,328.6196838
372,334.5838623
373,340.548053
374,342.7625488
375,342.3593262
376,342.5007385
377,347.1002014
378,351.699646
379,348.8706665
380,341.6848389
381,334.8944458
382,330.289563
383,325.6846924
384,320.2563782
385,314.436261
386,310.2606629
387,312.5253784
388,314.7900879
389,317.9428162
390,321.422821
391,323.2647095
392,320.430481
393,317.5962341
394,318.2796082
395,319.9001282
396,321.0520935
397,321.2142456
398,321.3763855
399,324.4496277
400,328.0189697
401,329.6001465
402,328.0579285
403,326.5157105
404,327.6019836
405,328.9014587
406,331.0656433
407,334.2349915
408,337.4104431
409,345.0538818
410,352.6973206
411,359.9465149
412,366.8622131
413,372.8054321
414,368.0836975
415,363.361969
416,362.1106079
417,362.9251831
418,362.4114319
419,355.4834778
420,348.5555359
421,343.9074585
422,340.1559936
423,337.5299194
424,338.0195312
425,338.5091308
426,339.4644653
427,340.5259094
428,338.6658264
429,331.7214966
430,324.7771789
431,328.0225403
432,332.1915894
433,334.3615295
434,334.2797363
435,334.1609192
436,332.6059204
437,331.0509094
438,327.0195068
439,321.2052429
440,316.1657959
441,315.9199768
442,315.6741577
443,314.1114258
444,311.9797363
445,312.6940246
446,321.5539185
447,330.4138306
448,327.6197082
449,322.2842163
450,317.4527344
451,313.4282227
452,309.4036987
453,308.8098816
454,308.3989868
455,307.9879456
456,307.5768005
457,306.8906616
458,303.1881287
459,299.4855835
460,299.0061218
461,300.2410339
462,300.8134582
463,299.0835632
464,297.3536682
465,298.4426086
466,300.255957
467,299.8779907
468,295.7543335
469,291.6306702
470,292.4906799
471,293.64599
472,293.4694275
473,292.0657288
474,290.9055725
475,291.9796204
476,293.0536743
477,293.343988
478,293.261322
479,292.0892029
480,287.7879272
481,283.4866425
482,286.9732178
483,291.9391785
484,295.502124
485,297.158429
486,298.7617004
487,294.4527832
488,290.1438782
489,289.3377747
490,290.9131226
491,292.4278687
492,293.67229
493,294.9167175
494,293.6612488
495,291.6689941
496,291.6061462
497,294.9285462
498,298.2509338
499,299.1144104
500,299.8623962
501,298.9225098
502,296.5940857
503,294.2893555
504,292.1259705
505,289.9625732
506,287.7366333
507,285.4887268
508,285.9975952
509,291.9122925
510,297.8269897
511,298.0438049
512,297.8770935
513,295.6479614
514,291.6445557
515,287.6641418
516,283.8252869
517,279.9864319
518,285.2666443
519,293.700415
520,298.0081909
521,294.5825501
522,291.1569153
523,292.5954407
524,294.2674805
525,295.3760193
526,296.0452332
527,296.1992371
528,293.8556213
529,291.5120117
530,293.0944824
531,295.7744812
532,296.2789551
533,293.429773
534,290.5988586
535,290.4311584
536,290.2634644
537,290.6171936
538,291.2883789
539,291.1613526
540,288.4750183
541,285.7886719
542,285.9029114
543,286.4908997
544,288.0756409
545,290.765155
546,293.5344483
547,297.0665405
548,300.5986145
549,300.0324463
550,297.844635
551,294.2263184
552,287.8273621
553,281.428418
554,281.6874329
555,282.1929138
556,284.8880798
557,289.1028992
558,292.3081726
559,291.8864441
560,291.4647095
561,288.9708374
562,286.1013672
563,284.9623596
564,285.7223755
565,286.4183228
566,286.5873108
567,286.7562988
568,289.4954285
569,293.1309021
570,292.7609985
571,285.7395386
572,278.788147
573,277.7723907
574,276.7566437
575,276.9495819
576,277.7965454
577,278.6680176
578,279.6002197
579,280.532428
580,281.5438049
581,282.5613586
582,281.0208618
583,277.542157
584,274.6921478
585,274.1827637
586,273.6733856
587,273.8181244
588,274.0729675
589,275.3083313
590,277.5182617
591,278.92005
592,275.6882385
593,272.4564331
594,270.9184265
595,269.8121582
596,269.1239411
597,268.9536377
598,268.6916687
599,267.5840881
600,266.4765015
601,267.6712494
602,269.6319733
603,270.1792511
604,268.6438568
605,267.459494
606,271.8123504
607,276.16521
608,277.4611694
609,277.546582
610,276.4161865
611,273.2544983
612,270.2985687
613,273.2056335
614,276.1126831
615,277.8321533
616,279.0298828
617,279.6471924
618,279.2191711
619,278.8318482
620,280.3736237
621,281.915393
622,279.7555389
623,275.8988403
624,271.7997925
625,267.2547668
626,262.9107666
627,268.4881531
628,274.0655487
629,273.4337158
630,269.9994446
631,268.1706696
632,269.2015625
633,270.2893036
634,273.1259308
635,275.9625549
636,279.406543
637,283.1049499
638,283.5386231
639,278.6331787
640,274.3632324
641,280.9076904
642,287.4521484
643,284.1479309
644,277.25495
645,274.5843567
646,277.9466858
647,280.6273804
648,276.5729492
649,272.518515
650,269.9309784
651,267.7730866
652,266.52117
653,266.3484345
654,266.4431213
655,268.1714783
656,269.8998383
657,269.6998352
658,269.0945496
659,268.8444214
660,268.9309387
661,268.8253296
662,267.959613
663,267.0938965
664,266.5366333
665,266.0168976
666,268.1736511
667,272.2473419
668,274.2215027
669,270.6657501
670,267.1100128
671,267.6727387
672,268.3669525
673,268.8884033
674,269.3225494
675,268.8474731
676,266.7623505
677,264.8665344
678,265.9966339
679,267.1267487
680,266.5426392
681,265.4118622
682,264.2009003
683,262.8953857
684,262.0943573
685,263.9231598
686,265.7519623
687,269.4646881
688,273.4730194
689,278.1278076
690,283.2719665
691,284.4062317
692,274.9842224
693,265.5622101
694,268.4026398
695,271.4578735
696,271.1917908
697,269.4449036
698,267.24104
699,264.3569672
700,261.988446
701,263.6499573
702,265.3114593
703,263.6477783
704,261.2852875
705,260.6259857
706,261.4139587
707,261.506134
708,259.5788544
709,257.6515839
710,258.197168
711,258.8107544
712,259.1819702
713,259.4450928
714,259.4195373
715,258.9807434
716,259.0531006
717,262.4777496
718,265.9023956
719,267.8268463
720,269.4962494
721,267.0470489
722,261.5962891
723,256.6518555
724,252.8692444
725,249.3477264
726,254.2768432
727,259.205954
728,260.1330536
729,259.7807587
730,258.6989594
731,256.848346
732,255.9174988
733,258.2982727
734,260.6790314
735,257.1989258
736,253.4050781
737,252.1999969
738,252.2
739,251.8685882
740,251.073584
741,250.2380188
742,249.1773865
743,248.1167542
744,250.5184937
745,253.348526
746,253.0096863
747,250.7974121
748,249.3021637
749,249.0365326
750,250.0132355
751,261.0877106
752,272.1621918
753,268.1346405
754,261.4860199
755,256.4738953
756,252.571051
757,250.605722
758,252.3807892
759,254.3898804
760,258.8301941
761,263.2705017
762,269.7180389
763,276.5601746
764,275.0832642
765,267.703598
766,261.3970612
767,257.2157379
768,254.0849152
769,261.9184174
770,269.7519257
771,262.5386871
772,252.4737854
773,250.6281097
774,254.3712616
775,256.7686859
776,256.6795074
777,256.2711761
778,253.2373993
779,250.2036255
780,250.4966278
781,251.3001618
782,252.271991
783,253.3440033
784,253.6531158
785,252.7592377
786,252.2424927
787,253.8524231
788,255.4623474
789,252.2444763
790,248.5752411
791,247.2174011
792,246.948764
793,248.3993042
794,251.9832916
795,254.2817718
796,251.861142
797,249.4405121
798,249.6646179
799,249.9337341
800,254.5330688
801,260.5469544
802,263.1639771
803,262.714917
804,259.7959198
805,251.0789154
806,243.2303742
807,246.3775574
808,249.5247345
809,250.0763825
810,250.1663544
811,249.9181732
812,249.4680451
813,249.637265
814,250.718222
815,251.350885
816,249.9988892
817,248.6468903
818,245.8141235
819,242.9281464
820,243.4819641
821,245.1965271
822,248.2550873
823,252.4988922
824,253.9135803
825,249.2155182
826,245.3899719
827,249.1868073
828,252.9836548
829,247.4403625
830,240.7467163
831,240.1985169
832,242.5517334
833,244.6504639
834,246.4617035
835,247.9656311
836,248.599942
837,249.1608337
838,248.4354706
839,247.7101166
840,249.4468079
841,251.6241669
842,250.1211548
843,246.5808411
844,245.8003113
845,248.5252411
846,249.7542602
847,246.2097473
848,242.8933655
849,245.3487183
850,247.804071
851,247.6657532
852,247.0288025
853,245.1081024
854,242.4677338
855,241.6068939
856,242.9734161
857,244.158728
858,244.796817
859,245.3800415
860,245.0152069
861,244.6503662
862,247.1172546
863,250.0376862
864,249.3468537
865,246.8812714
866,244.4149872
867,241.9479462
868,242.1453979
869,248.8195129
870,254.4387146
871,250.9624512
872,247.4861908
873,242.4120453
874,237.1945557
875,236.8066315
876,238.1804718
877,239.2528565
878,240.0776459
879,240.4655029
880,240.098706
881,239.6126587
882,238.6033813
883,237.6193176
884,240.9243744
885,244.2294342
886,244.4199859
887,243.960675
888,242.9633392
889,241.6765106
890,239.7350159
891,237.0678589
892,235.8342957
893,237.9508789
894,239.5440125
895,237.5182465
896,235.4924866
897,237.4223511
898,239.5414581
899,238.0494934
900,235.560379
901,236.072998
902,238.471347
903,241.0761688
904,243.937442
905,245.0719086
906,241.747171
907,238.2333008
908,233.2432281
909,228.2531525
910,226.2445373
911,224.3952637
912,226.1823059
913,228.9578674
914,229.4796661
915,228.6465027
916,230.6503143
917,235.9301452
918,238.6108307
919,235.3669037
920,232.9136597
921,235.0466553
922,237.1796448
923,235.8213745
924,234.4294678
925,240.5584412
926,248.1720551
927,245.1581329
928,237.1683746
929,232.7123901
930,231.4109558
931,229.5133148
932,226.6298615
933,225.6235809
934,231.0216308
935,235.6090271
936,230.5802673
937,225.5515076
938,231.0067047
939,237.2497955
940,235.2387054
941,230.9498565
942,229.1021057
943,228.6356506
944,228.1228668
945,227.5627838
946,225.6536133
947,221.2637116
948,218.84505
949,223.7983063
950,228.2340698
951,225.8962372
952,223.5584045
953,222.7893982
954,222.1344116
955,221.4791199
956,220.8237549
957,221.278659
958,222.3091461
959,220.9347473
960,217.3727844
961,216.1144714
962,218.4592652
963,219.474707
964,216.6592895
965,213.9980743
966,212.4017273
967,210.8053741
968,211.8300659
969,212.8636139
970,212.3471283
971,211.5950134
972,210.6335266
973,209.5987488
974,214.8697845
975,224.0941803
976,227.4159393
977,224.5904663
978,220.8323242
979,215.460733
980,212.7346497
981,218.2037292
982,222.7098266
983,220.3510681
984,217.9935303
985,216.0109924
986,214.0284546
987,207.0302246
988,199.3787476
989,204.2742279
990,212.9699616
991,214.3978729
992,211.938919
993,213.5940277
994,218.7987488
995,219.5150513
996,214.1178589
997,210.6063538
998,211.2695587
999,212.6540253
1000,216.9200317
1001,220.3450592
1002,215.3176727
1003,210.2902741
1004,211.1320892
1005,212.0812164
1006,213.3631714
1007,214.6927429
1008,213.3925537
1009,211.3019806
1010,210.3473816
1011,209.9670532
1012,209.8
1013,209.8
1014,208.097464
1015,204.384845
1016,202.4428528
1017,203.681131
1018,204.6737549
1019,204.9596802
1020,205.793216
1021,209.5124573
1022,212.9583893
1023,212.2904328
1024,211.6224792
1025,211.0464081
1026,210.4735352
1027,207.6520111
1028,204.4993408
1029,202.3122498
1030,200.4004028
1031,201.0466125
1032,202.8639435
1033,203.827774
1034,204.2105957
1035,204.9806091
1036,206.1297608
1037,207.239267
1038,208.2932892
1039,208.3365662
1040,206.3231537
1041,204.4963226
1042,203.2491852
1043,202.4894928
1044,204.3133209
1045,205.971109
1046,205.5869171
1047,205.2027252
1048,203.6732269
1049,202.1355469
1050,210.4178101
1051,219.6493866
1052,213.3543518
1053,203.9248505
1054,199.6414307
1055,197.0419617
1056,198.153949
1057,201.0439636
1058,200.2914825
1059,197.1105744
1060,195.1948303
1061,194.4232422
1062,195.960614
1063,200.3033783
1064,202.5973694
1065,201.5351745
1066,200.3537994
1067,198.9044831
1068,199.6401611
1069,207.3744171
1070,212.6214996
1071,205.6565338
1072,199.3507721
1073,198.8668091
1074,198.5510773
1075,202.8125153
1076,207.0739472
1077,198.9243256
1078,190.3963959
1079,195.5779236
1080,202.1716095
1081,202.7905396
1082,202.3054291
1083,206.1511566
1084,211.1993897
1085,210.283786
1086,207.0781922
1087,202.32323
1088,196.7830078
1089,195.1893341
1090,196.1618835
1091,196.1187287
1092,195.2429169
1093,194.5112274
1094,193.927008
1095,192.6992157
1096,190.6532196
1097,189.7399628
1098,190.6173401
1099,192.5433899
1100,196.5427033
1101,198.062207
1102,193.377298
1103,190.3772217
1104,192.8187286
1105,195.2420899
1106,197.5873352
1107,198.7958008
1108,193.124765
1109,188.3298462
1110,191.7540558
1111,194.9847107
1112,194.691034
1113,194.3938232
1114,193.7081635
1115,193.0225098
1116,196.6021088
1117,200.3264587
1118,195.1480987
1119,189.2640411
1120,189.9928314
1121,191.5628449
1122,189.9662231
1123,187.8061645
1124,199.8440613
1125,215.169928
1126,209.2150391
1127,197.123996
1128,192.1763458
1129,189.7173554
1130,187.1179138
1131,184.4606263
1132,184.1992462
1133,185.0855377
1134,186.9257782
1135,189.290622
1136,189.0470673
1137,187.1737854
1138,187.3843475
1139,189.061438
1140,187.7560974
1141,184.1037811
1142,183.0323303
1143,184.217572
1144,187.8158447
1145,193.7455627
1146,195.2655975
1147,192.1012054
1148,189.9424805
1149,188.9530151
1150,187.9196228
1151,186.8305664
1152,186.325116
1153,186.6223114
1154,186.1224213
1155,184.4373322
1156,183.209375
1157,182.7134613
1158,179.8076874
1159,172.7615814
1160,170.4759155
1161,176.9304077
1162,181.1663666
1163,181.0670044
1164,180.902887
1165,180.6046356
1166,180.1501923
1167,179.3543732
1168,179.9475403
1169,183.7299255
1170,185.7849365
1171,183.6934296
1172,177.75448
1173,162.2083221
1174,156.4255249
1175,175.8697784
1176,188.7184173
1177,184.029068
1178,180.8414734
1179,181.7399689
1180,183.142334
1181,185.9393158
1182,187.6316315
1183,186.2323059
1184,185.3836182
1185,186.0836975
1186,185.7594055
1187,182.5571442
1188,180.5171021
1189,181.7186676
1190,182.0659699
1191,180.0621765
1192,178.3832245
1193,177.5812286
1194,177.9111908
1195,181.2213806
1196,182.5548859
1197,178.8412475
1198,177.5050293
1199,182.0242981
1200,184.1245026
1201,180.5069336
1202,177.6295715
1203,176.422995
1204,175.7919007
1205,176.3955506
1206,177.0657471
1207,177.8710907
1208,177.8813904
1209,176.3704803
1210,177.9235016
1211,184.9786072
1212,186.8023712
1213,179.8439179
1214,175.0488953
1215,173.6361969
1216,173.3768433
1217,174.790387
1218,175.3410187
1219,174.7348602
1220,175.6668518
1221,178.49729
1222,178.6714722
1223,175.8393433
1224,175.3954407
1225,177.4195923
1226,178.6610931
1227,179.1674316
1228,177.537262
1229,174.0921082
1230,172.887384
1231,173.3943268
1232,172.273642
1233,170.0417694
1234,170.4012573
1235,172.3299286
1236,170.8790039
1237,167.6287811
1238,170.9065948
1239,177.2076385
1240,181.1829163
1241,184.2336243
1242,183.5523987
1243,181.6191376
1244,176.9738648
1245,171.5778687
1246,170.8502319
1247,171.1558441
1248,170.1535309
1249,168.9303436
1250,170.2579926
1251,171.8898834
1252,172.7613373
1253,173.5777679
1254,173.5999969
1255,173.5710236
1256,171.5275208
1257,169.5419769
1258,168.5196198
1259,167.9598023
1260,171.5401855
1261,174.0940064
1262,170.6138519
1263,168.07453
1264,169.5083802
1265,171.0892029
1266,173.1387909
1267,173.9818359
1268,171.8284973
1269,170.2273132
1270,169.7143066
1271,170.7519531
1272,174.2424683
1273,174.936792
1274,172.0605377
1275,171.4094635
1276,173.05401
1277,174.1371643
1278,174.7542328
1279,171.65625
1280,166.099289
1281,166.2332459
1282,169.3222839
1283,172.7076538
1284,176.2106476
1285,177.4791626
1286,178.0977081
1287,174.0675751
1288,169.1162903
1289,172.2980225
1290,176.4265411
1291,173.9287414
1292,171.0828064
1293,165.6060089
1294,161.6754669
1295,174.1865326
1296,183.9055542
1297,178.0084015
1298,172.6986847
1299,169.4895538
1300,167.6749024
1301,169.3322113
1302,170.1787994
1303,169.5569366
1304,169.5092651
1305,170.2351959
1306,167.7092255
1307,161.898288
1308,161.1165008
1309,164.1275238
1310,165.0662262
1311,164.8584473
1312,166.2195099
1313,168.1945984
1314,165.4587616
1315,161.5062378
1316,159.7295624
1317,158.2725036
1318,162.2571869
1319,166.2421478
1320,160.9279754
1321,156.6600342
1322,160.8304932
1323,162.7975128
1324,155.4948761
1325,151.8358673
1326,157.7858337
1327,161.5250183
1328,161.3161224
1329,158.6471741
1330,152.8991425
1331,152.3077484
1332,156.2814789
1333,155.925174
1334,152.8907929
1335,152.7396057
1336,153.7865662
1337,151.3311218
1338,147.9788513
1339,149.7384156
1340,152.149289
1341,155.3829773
1342,159.7388611
1343,178.3141815
1344,190.8658447
1345,173.2245575
1346,162.8397034
1347,172.9264373
1348,175.182132
1349,163.4072815
1350,155.992984
1351,153.7838867
1352,153.3254028
1353,154.2727234
1354,153.7038544
1355,152.3346924
1356,153.1147095
1357,154.5900665
1358,151.0919067
1359,146.7686432
1360,146.1944305
1361,145.8069061
1362,145.9124756
1363,146
1364,146
1365,147.1736664
1366,151.4015228
1367,154.2853119
1368,155.0256256
1369,151.163034
1370,142.591452
1371,145.3430725
1372,155.5080292
1373,157.262915
1374,155.6737
1375,151.9776214
1376,147.8431976
1377,148.1990051
1378,148.7408844
1379,147.6795135
1380,146.4178741
1381,144.1876739
1382,145.2328613
1383,154.3714935
1384,157.5121734
1385,151.8768799
1386,150.3170471
1387,152.4448364
1388,155.4661774
1389,158.9791199
1390,155.6370758
1391,150.2047577
1392,150.7365723
1393,152.0038849
1394,152.3238098
1395,152.5124725
1396,151.8722351
1397,151.2038818
1398,150.4564941
1399,148.5031128
1400,144.6571289
1401,145.6744934
1402,151.2331024
1403,150.0208283
1404,145.1006744
1405,146.4093628
1406,149.5130402
1407,149.5084442
1408,149.1401428
1409,147.6400391
1410,146.771756
1411,148.9160431
1412,148.8473114
1413,143.8052429
1414,141.9047852
1415,143.9442749
1416,143.9895721
1417,142.5933014
1418,143.6667542
1419,145.70867
1420,140.8373077
1421,134.8154526
1422,139.3074768
1423,143.2597076
1424,143.6903504
1425,144.2118683
1426,144.9659424
1427,144.8053314
1428,143.4040741
1429,142.5545715
1430,142.1231568
1431,146.0097076
1432,151.6213959
1433,147.099057
1434,141.0559067
1435,147.2144867
1436,151.1872131
1437,143.5114441
1438,139.3328842
1439,143.010794
1440,145.695755
1441,147.211087
1442,145.6812103
1443,142.2155395
1444,139.8255493
1445,137.7665863
1446,138.4969238
1447,139.4809357
1448,140.5658905
1449,140.521524
1450,136.721936
1451,136.4276978
1452,141.6416626
1453,141.9165375
1454,138.1124298
1455,136.5382965
1456,135.8857803
1457,137.5012375
1458,139.3799988
1459,138.726709
1460,138.0944489
1461,137.5497116
1462,136.9658325
1463,136.3117615
1464,134.9153778
1465,132.8429199
1466,133.329248
1467,134.9663681
1468,135.3872437
1469,135.6990234
1470,139.5235077
1471,141.6377228
1472,136.7176102
1473,134.4416672
1474,136.7390854
1475,135.9736084
1476,132.5801697
1477,130.6652786
1478,129.3509064
1479,134.0506256
1480,139.0413086
1481,136.4094528
1482,134.2443054
1483,133.5859497
1484,132.5185822
1485,130.8717178
1486,135.4038818
1487,144.1923767
1488,141.7050018
1489,135.8791687
1490,138.6367706
1491,140.7821152
1492,136.1599289
1493,132.7213104
1494,131.8403732
1495,131.9510345
1496,133.0528641
1497,131.1345963
1498,127.827153
1499,131.3387253
1500,134.1891922
1501,109.7954483
1502,97.42901307
1503,121.9476806
1504,134.5981232
1505,131.8353745
1506,132.1827209
1507,134.3942337
1508,132.0897751
1509,128.7891907
1510,127.5714157
1511,126.5327713
1512,126.2004547
1513,126.6157288
1514,128.1674667
1515,132.5446854
1516,138.8662109
1517,135.2968582
1518,129.082544
1519,127.9043945
1520,127.3503479
1521,129.2390732
1522,129.2433975
1523,126.2418762
1524,127.3475891
1525,131.3519928
1526,130.533139
1527,128.4184494
1528,130.1663009
1529,130.8161987
1530,126.8046646
1531,126.0524841
1532,130.1778931
1533,131.3938171
1534,130.7244354
1535,128.6915527
1536,126.4803131
1537,130.0545898
1538,132.4371567
1539,130.8724823
1540,130.8904861
1541,132.9034042
1542,132.721933
1543,131.3791931
1544,131.1029831
1545,131.0449326
1546,131.6050736
1547,131.404895
1548,129.3871979
1549,128.5145645
1550,128.7388886
1551,129.7798416
1552,131.1265671
1553,127.5901978
1554,125.1020645
1555,129.3717575
1556,130.5736862
1557,126.8635971
1558,122.9478287
1559,118.8980606
1560,121.0879044
1561,124.2397858
1562,121.086229
1563,119.171933
1564,120.5242569
1565,122.9488724
1566,126.4444519
1567,125.2683899
1568,122.3348739
1569,123.4924438
1570,124.6206116
1571,124.7335724
1572,124.1481537
1573,122.5657593
1574,120.4014832
1575,117.9133911
1576,116.6109116
1577,116.0952042
1578,120.7376068
1579,124.0699173
1580,124.8629913
1581,121.744873
1582,115.7366043
1583,117.819043
1584,121.5837784
1585,121.2432846
1586,120.2542999
1587,117.6423004
1588,117.1746368
1589,118.6518601
1590,119
1591,118.9927505
1592,117.6275452
1593,116.4873779
1594,116.0320404
1595,116.4702911
1596,117.8371155
1597,117.2791763
1598,116.0255127
1599,117.340596
1600,119.1215256
1601,122.3164551
1602,114.0621582
1603,93.05447082
1604,97.99482117
1605,112.9602417
1606,113.0671539
1607,113.6844879
1608,117.6876205
1609,118.6648743
1610,116.2615723
1611,117.6747131
1612,120.5374832
1613,117.4618606
1614,115.2933807
1615,116.5544876
1616,115.5200973
1617,112.0786652
1618,110.3452408
1619,109.2085281
1620,112.9985855
1621,115.4402832
1622,114.0612625
1623,112.9212128
1624,112.0013214
1625,111.1708801
1626,110.5972595
1627,115.2021576
1628,116.8513199
1629,111.7829346
1630,110.1905563
1631,111.2278854
1632,112.1695374
1633,114.0718979
1634,124.8036621
1635,128.2973648
1636,119.2911987
1637,115.1935654
1638,113.9227143
1639,112.0245575
1640,110.6005005
1641,111.7571899
1642,111.4744736
1643,109.3912048
1644,107.058226
1645,104.6263062
1646,104.485379
1647,106.5054108
1648,114.5054672
1649,116.9512833
1650,114.6310532
1651,112.4042206
1652,110.3363953
1653,109.639502
1654,107.9122818
1655,104.4257553
1656,103.8786316
1657,104.925209
1658,109.4296341
1659,112.7850388
1660,110.805835
1661,109.2270905
1662,108.0621612
1663,110.6905594
1664,113.8414246
1665,107.7766296
1666,107.0546387
1667,116.5073044
1668,117.6440521
1669,113.9074524
1670,113.9216721
1671,112.2498459
1672,102.780397
1673,100.8961884
1674,106.7449844
1675,108.1838623
1676,108.4359238
1677,108.9043808
1678,108.2920746
1679,105.8312195
1680,102.670575
1681,99.15298767
1682,105.9576111
1683,110.1880768
1684,105.3750214
1685,105.195787
1686,108.8370773
1687,104.0345169
1688,99.03942871
1689,102.0970245
1690,102.0275238
1691,98.02676544
1692,98.7504425
1693,101.1737137
1694,105.0613952
1695,106.9864242
1696,105.218251
1697,104.4465866
1698,104.2106903
1699,103.8619934
1700,103.784227
1701,104.4927505
1702,104.733081
1703,104.6149246
1704,103.1538895
1705,101.2832077
1706,98.44408722
1707,97.1744812
1708,97.52958221
1709,95.98585206
1710,94.33394319
1711,95.51900635
1712,96.35131071
1713,96.70704039
1714,100.1303864
1715,104.041359
1716,97.27451477
1717,93.61251221
1718,95.27552644
1719,96.04411469
1720,96.4018341
1721,97.35325164
1722,97.77136535
1723,97.05738221
1724,97.63760224
1725,98.94734344
1726,99.91478577
1727,100.6335068
1728,100.7527145
1729,99.43267213
1730,97.16637879
1731,95.89412994
1732,95.95852203
1733,99.77994538
1734,97.54533233
1735,90.85389404
1736,90.95513917
1737,93.38448485
1738,101.1605057
1739,100.8617111
1740,94.15841522
1741,91.59423829
1742,91.32645569
1743,97.43844909
1744,96.84757995
1745,90.73197784
1746,95.38679962
1747,99.55942231
1748,96.5580368
1749,94.93690948
1750,94.45640717
1751,93.86956176
1752,93.89969941
1753,96.18479004
1754,95.8624939
1755,93.45571594
1756,93.2
1757,92.55501404
1758,89.78395234
1759,89.49759063
1760,91.06476745
1761,94.06557464
1762,95.69031983
1763,92.91435243
1764,92.81201477
1765,94.50272827
1766,92.55007629
1767,93.18872834
1768,100.805925
1769,99.99967804
1770,94.31365508
1771,91.8273819
1772,89.52501831
1773,87.4659485
1774,88.84991912
1775,91.79042358
1776,91.42662965
1777,91.47448884
1778,92.20250703
1779,92.84236602
1780,93.15283966
1781,90.11585693
1782,88.08274231
1783,87.35343628
1784,87.48810424
1785,87.95900726
1786,89.05425415
1787,87.27851258
1788,82.65140839
1789,84.30307465
1790,87.11654053
1791,90.40809478
1792,90.04002838
1793,86.99049531
1794,88.74528808
1795,89.10489655
1796,85.44114686
1797,85.33121339
1798,86.97900238
1799,86.12312012
1800,86.31348419
1801,88.14859925
1802,89.79992523
1803,90.90552827
1804,88.45582582
1805,89.52943115
1806,94.30916291
1807,95.62943116
1808,94.62960358
1809,87.63561096
1810,82.53709412
1811,78.73110504
1812,81.56536255
1813,83.26811829
1814,82.28477326
1815,81.47575989
1816,80.76888885
1817,80.3996994
1818,83.98750764
1819,92.23759307
1820,91.23417968
1821,88.29570008
1822,84.96712189
1823,83.01848602
1824,82.03166046
1825,74.71258392
1826,73.57668076
1827,84.44453735
1828,85.87056885
1829,83.70199737
1830,80.98183594
1831,79.6
1832,79.59999847
1833,81.44221344
1834,82.32435303
1835,79.72324982
1836,82.47746277
1837,87.82919159
1838,82.37284698
1839,79.56349793
1840,80.43206329
1841,81.30103912
1842,81.78115082
1843,80.66311188
1844,80.5640625
1845,81.18556366
1846,81.80741882
1847,81.78704834
1848,80.66703339
1849,81.53797455
1850,82.87744598
1851,83.37581482
1852,80.85653687
1853,75.86991577
1854,77.95974121
1855,80.41226654
1856,82.78369598
1857,82.47570495
1858,81.69452515
1859,83.81882782
1860,83.65619812
1861,81.53065033
1862,81.16516876
1863,82.36149292
1864,86.36723022
1865,83.21681366
1866,79.12892914
1867,84.14198456
1868,85.71083527
1869,84.45683746
1870,78.65023956
1871,77.83422241
1872,86.24589386
1873,88.77862702
1874,87.81080322
1875,78.76077728
1876,67.3554863
1877,54.27554931
1878,67.08690719
1879,76.07469788
1880,79.22260742
1881,78.35966492
1882,77.86664887
1883,81.64857483
1884,82.18935699
1885,80.8918991
1886,78.99871521
1887,76.50834351
1888,73.35118561
1889,79.73828888
1890,83.18166809
1891,77.23924255
1892,76.05805359
1893,77.52464142
1894,83.98037262
1895,83.23309784
1896,76.90023498
1897,76.30109711
1898,76.10297394
1899,76.35658569
1900,79.55482636
1901,81.66262207
1902,78.74266357
1903,72.72483825
1904,66.43086395
1905,70.62528534
1906,73.67685089
1907,75.71170197
1908,76.04346161
1909,78.4055542
1910,84.13528748
1911,79.59870148
1912,75.0229599
1913,77.57249603
1914,74.86777649
1915,70.46051331
1916,72.88540955
1917,74.27601471
1918,74.78681793
1919,75.67135162
1920,74.16088257
1921,69.17470779
1922,73.69443054
1923,75.53627624
1924,66.06424103
1925,67.72640381
1926,72.86041412
1927,73.24486694
1928,70.57008362
1929,66.0706871
1930,67.99519806
1931,71.45399323
1932,76.58902588
1933,73.57305298
1934,71.47989349
1935,72.2510498
1936,72.60752258
1937,73.70670929
1938,77.30965576
1939,77.95105743
1940,76.47242889
1941,70.03105774
1942,69.15377121
1943,71.98452911
1944,71.59759369
1945,70.20014343
1946,67.74812317
1947,65.2947525
1948,65.3146286
1949,69.19077454
1950,67.94766235
1951,69.23152924
1952,78.80388031
1953,73.14627533
1954,64.70592041
1955,65.2239502
1956,69.16398163
1957,73.95780792
1958,71.88326111
1959,69.58452606
1960,67.17458496
1961,66.39572067
1962,67.34178772
1963,70.0694046
1964,66.36405411
1965,64.32240524
1966,65.10263595
1967,69.41347351
1968,90.86742401
1969,144.896518
1970,108.4885071
1971,65.01778336
1972,63.58401108
1973,62.43609237
1974,62.89612503
1975,69.42088547
1976,66.38218231
1977,60.35444794
1978,65.97230072
1979,66.14894409
1980,63.04808273
1981,63.70208588
1982,65.92398681
1983,69.3893158
1984,68.73454971
1985,66.28533935
1986,61.96136169
1987,62.55728226
1988,64.43383102
1989,67.71340179
1990,65.72401428
1991,64.96616669
1992,66.93620529
1993,64.92367783
1994,62.38540878
1995,60.0185997
1996,60.79126663
1997,61.99943084
1998,62.65764542
1999,61.25151977
2000,59.69508285
2001,59.29969406
2002,61.46831894
2003,63.67794418
2004,63.1501442
2005,59.88250809
2006,57.48699951
2007,62.9032753
2008,67.86785278
2009,70.07737121
2010,60.15799103
2011,57.58782577
2012,59.27603226
2013,63.77806397
2014,65.65427475
2015,65.43048553
2016,61.05577011
2017,61.37856598
2018,63.32458038
2019,55.62672271
2020,54.93693008
2021,58.37321854
2022,58.10746612
2023,62.43461533
2024,68.58032608
2025,61.79572907
2026,58.92174149
2027,58.67488479
2028,57.20983505
2029,56.60000076
2030,56.55575104
2031,56.02238464
2032,58.52267609
2033,62.36255798
2034,57.15617981
2035,55.23476791
2036,55.45795364
2037,53.85412521
2038,54.46700821
2039,56.2707428
2040,54.93266296
2041,61.33061676
2042,70.20964508
2043,57.34912109
2044,55.5334198
2045,59.75235443
2046,57.74055786
2047,55.55842438
2048,53.61900711
2049,53.75328369
2050,53.88761063
2051,53.97802353
2052,53.84359131
2053,53.61821213
2054,53.47625733
2055,53.88002243
2056,56.17696762
2057,57.51462021
2058,52.5290535
2059,51.20000076
2060,51.57097626
2061,53.05489502
2062,51.53540115
2063,52.19266358
2064,60.56629791
2065,59.80702209
2066,57.05311584
2067,54.75445175
2068,50.96703949
2069,47.20587769
2070,43.95693054
2071,48.42282486
2072,53.50585632
2073,58.11387863
2074,50.51430893
2075,50.90103836
2076,61.48466797
2077,49.91704407
2078,47.00375366
2079,52.10492096
2080,49.93013687
2081,47.52112198
2082,45.14461365
2083,44.60028686
2084,43.79757767
2085,43.22233963
2086,44.58473892
2087,48.22213516
2088,50.52467041
2089,44.93235169
2090,44.95150452
2091,45.5121376
2092,43.19068146
2093,42.68635864
2094,42.70061111
2095,42.97404022
2096,40.02863731
2097,40.6860733
2098,46.29787979
2099,43.71079025
2100,44.32927475
2101,47.34994507
2102,40.08303528
2103,41.08983993
2104,46.32048874
2105,44.39870224
2106,41.71966248
2107,39.84701004
2108,41.77102509
2109,25.10393372
2110,16.81341476
2111,37.31415787
2112,39.2822052
2113,38.8
2114,38.80000038
2115,41.85687637
2116,40.92281647
2117,36.365242
2118,35.8132904
2119,36.87071075
2120,38.78235779
2121,39.88753891
2122,39.4068222
2123,37.73988266
2124,34.55881157
2125,36.39562416
2126,40.08982773
2127,45.07466049
2128,37.75919037
2129,34.07664642
2130,35.18154869
2131,38.9266655
2132,40.56837845
2133,40.2482338
2134,36.91538925
2135,36
2136,35.2843689
2137,32.78184395
2138,35.93651123
2139,32.41225624
2140,17.79731484
2141,30.40648575
2142,37.94636078
2143,40.07258911
2144,38.8177063
2145,37.56234054
2146,36.50218773
2147,36.08340988
2148,36.11185303
2149,34.34396286
2150,29.31282578
2151,34.63901673
2152,39.23335495
2153,41.90470047
2154,38.12480698
2155,40.43926697
2156,43.89878159
2157,39.83420639
2158,39
2159,39.56897202
2160,41.11248779
2161,43.71636505
2162,41.86603699
2163,36.53372192
2164,37.93934784
2165,35.27978897
2166,32.75082855
2167,36.55039902
2168,39.30119018
2169,39.01527023
2170,34.64776726
2171,40.03763809
2172,41.67602844
2173,38.96573944
2174,28.23978538
2175,32.14863815
2176,38.49012604
2177,38.77271424
2178,39.56634674
2179,36.54303055
2180,30.11662292
2181,31.67354202
2182,38.29259262
2183,43.32527542
2184,35.81511116
2185,33.53041344
2186,33.52792778
2187,35.2429512
2188,37.65603561
2189,38.77293701
2190,38.25866852
2191,34.5638195
2192,35.2663578
2193,35.79478149
2194,34.22977638
2195,33.6414135
2196,33.81024437
2197,34.79199905
2198,37.07230225
2199,38.25760422
2200,37.4419754
2201,33.73221969
2202,31.94787903
2203,32.24634247
2204,33.84669723
2205,34.13255463
2206,33.76292153
2207,34.13235321
2208,36.13566399
2209,41.74310913
2210,42.48218918
2211,40.02507248
2212,40.16841354
2213,39.64091034
2214,38.86836624
2215,38.00733375
2216,42.27093277
2217,39.4419281
2218,34.79535599
2219,41.55172424
2220,38.57861328
2221,37.43392639
2222,41.49392014
2223,38.46991501
2224,43.7311615
2225,47.65114288
2226,34.67624054
2227,37.64766998
2228,44.31445999
2229,50.56045761
2230,40.01824722
2231,41.0219574
2232,42.65570068
2233,36.14962082
2234,34.84178009
2235,34.8079895
2236,35.58450851
2237,36.59830704
2238,37.38040772
2239,39.26467133
2240,42.41319733
2241,37.91579437
2242,34.76398697
2243,34.40829506
2244,39.34658432
2245,36.50040817
2246,35.18677483
2247,36.07333984
2248,37.81926193
2249,38.5414917
2250,36.95731659
2251,32.62041817
2252,33.20339279
2253,35.23629379
2254,36.77501755
2255,35.31591225
2256,40.71024246
2257,40.66517258
2258,35.56537628
2259,29.8650959
2260,32.24864922
2261,35.12160721
2262,36.28075027
2263,37.30563507
2264,11.49513521
2265,-2.363975853
2266,26.51218033
2267,31.90231133
2268,35.70891571
2269,38.33902435
2270,39.66050263
2271,32.70405808
2272,32.13463669
2273,36.56855392
2274,34.06814651
2275,36.5903244
2276,38.19909286
2277,37.66745834
2278,40.46682053
2279,37.39169846
2280,35.26893578
2281,37.92093353
2282,34.82159882
2283,26.96925888
2284,24.34258537
2285,38.08388062
2286,37.88856354
2287,35.79642219
2288,32.60874748
2289,28.76051598
2290,31.08438721
2291,34.62370872
2292,35.93616142
2293,26.89216614
2294,29.16024513
2295,33.76840668
2296,37.13649292
2297,31.78992157
2298,29.58912964
2299,28.2421814
2300,28.39749031
2301,38.06753235
2302,37.18325272
2303,33.57175293
2304,30.58613205
2305,30.43710785
2306,30.95989838
2307,23.51506157
2308,7.736936188
2309,38.63765869
2310,43.94959412
2311,39.29975891
2312,34.06751442
2313,31.52543945
2314,35.50455627
2315,36.48849793
2316,28.78841019
2317,33.28208466
2318,31.84611091
2319,30.68397141
2320,33.86688385
2321,30.41585503
2322,33.74343147
2323,36.02922134
2324,32.16427307
2325,36.07209244
2326,33.99058914
2327,32.34798126
2328,35.0582489
2329,32.34822273
2330,35.52583427
2331,47.57992172
2332,66.55757294
2333,42.87983932
2334,35.11771851
2335,31.9073864
2336,28.27871818
2337,33.41511574
2338,32.73940849
2339,30.92762985
2340,30.67442551
2341,36.12222519
2342,36.59270782
2343,32.91889916
2344,28.12821159
2345,33.88845482
2346,30.58690148
2347,31.69297905
2348,37.03116074
2349,37.183004
2350,42.32709961
2351,39.23826294
2352,32.77879143
2353,35.82081871
2354,29.98461189
2355,32.08686256
2356,34.70723496
2357,27.40050392
2358,28.010289
2359,27.2542984
2360,26.45764313
2361,26.82588959
2362,30.18540459
2363,32.85189819
2364,31.18274498
2365,26.90249023
2366,37.61000519
2367,35.70351028
2368,32.95550651
2369,32.20231018
2370,33.12165489
2371,33.76098366
2372,35.59135819
2373,37.35296707
2374,37.19378967
2375,35.35093994
2376,35.66175919
2377,33.26798668
2378,26.91274834
2379,34.14281044
2380,31.54441872
2381,29.38428879
2382,29.41328049
2383,26.48553696
2384,25.64343186
2385,30.25541725
2386,33.94102593
2387,27.99798012
2388,27.84353981
2389,28.46577225
2390,28.86894836
2391,29.00302773
2392,32.09705238
2393,42.45164261
2394,39.26924591
2395,28.50529823
2396,32.0694458
2397,25.92642517
2398,27.24783783
2399,30.51930275
2400,30.77023125
2401,30.45960617
2402,29.77209969
2403,29.88615341
2404,29.72319603
2405,25.98939819
2406,26.98213119
2407,33.60922547
2408,38.62948379
2409,36.3767334
2410,32.01082382
2411,30.18368988
2412,35.6661911
2413,42.9449173
2414,37.94688339
2415,39.0134697
2416,39.40000076
2417,38.43368378
2418,35.23044662
2419,26.46420822
2420,24.66383972
2421,23.94640541
2422,23.21015396
2423,22.7792469
2424,29.36870957
2425,36.55154571
2426,36.34242935
2427,29.63222618
2428,29.78938255
2429,31.85269814
2430,35.92556992
2431,36.60964508
2432,30.69448967
2433,26.44173927
2434,23.12367706
2435,22.62318497
2436,24.23932076
2437,26.33913498
2438,29.4963913
2439,28.48148499
2440,30.38765869
2441,32.51026993
2442,23.18070221
2443,26.25819969
2444,25.04477882
2445,23.68711281
2446,24.32075691
2447,24.95468788
2448,27.94474297
2449,27.62371864
2450,25.88348732
2451,25.82634888
2452,32.81521111
2453,29.22650413
2454,25.19861259
2455,24.4186779
2456,26.97982254
2457,19.81612148
2458,23.31074448
2459,25.88012619
2460,25.95657997
2461,25.2915741
2462,30.55670585
2463,29.65709076
2464,26.26845627
2465,22.86481514
2466,21.92037125
2467,28.15671043
2468,29.86614685
2469,24.88321877
2470,19.92121735
2471,23.13572845
2472,24.7383625
2473,27.14678993
2474,28.86205864
2475,33.17842331
2476,40.97833252
2477,24.27373657
2478,24.81205177
2479,26.68838234
2480,27.84360161
2481,28.9147541
2482,24.89026871
2483,30.19934273
2484,31.06139755
2485,26.79421807
2486,20.97521133
2487,22.10457916
2488,24.5646225
2489,23.54227943
2490,25.04590263
2491,30.6
2492,30.59999962
2493,20.61967049
2494,29.81515846
2495,48.5632721
2496,57.19302902
2497,30.51334114
2498,26.78394623
2499,28.81895141
2500,29.22451325
2501,25.21381988
2502,19.21644936
2503,32.21710472
2504,28.24770622
2505,30.02117043
2506,28.74556045
2507,18.7973074
2508,23.35764847
2509,27.92038384
2510,25.44562607
2511,25.53423958
2512,29.1641655
2513,27.6136364
2514,27.94027939
2515,25.06222801
2516,22.8239933
2517,23.15020027
2518,26.0172905
2519,27.49044457
2520,21.83939476
2521,19.65370026
2522,20.66947556
2523,22.42671165
2524,21.96957321
2525,25.74473343
2526,25.17849617
2527,24.70000648
2528,23.83458671
2529,21.77121315
2530,21.60671272
2531,21.44212418
2532,20.90985832
2533,21.64719849
2534,20.55274887
2535,14.1083046
2536,19.05698586
2537,21.95098686
2538,22.35181694
2539,20.68714714
2540,20.80893822
2541,28.82829819
2542,25.18923493
2543,25.84834556
2544,21.70803642
2545,19.63676758
2546,22.58944549
2547,17.04562683
2548,22.51929512
2549,24.26596718
2550,21.62375031
2551,17.94704017
2552,17.22912941
2553,20.55382385
2554,18.63180542
2555,23.54698677
2556,22.91212082
2557,17.36052933
2558,14.15119438
2559,18.31851807
2560,22.65161285
2561,22.16582031
2562,17.31298294
2563,17.18037968
2564,26.53364487
2565,29.37522812
2566,25.42113876
2567,20.87311974
2568,19.80395107
2569,21.21163025
2570,22.61298904
2571,23.64356308
2572,25.99141731
2573,19.60882377
2574,16.91934948
2575,17.7206501
2576,19.99860954
2577,25.06401672
2578,22.87787704
2579,22.6
2580,23.29114037
2581,31.23906517
2582,36.91504974
2583,23.06439667
2584,18.6801157
2585,29.92954826
2586,24.762743
2587,22.6765316
2588,24.37394448
2589,22.20252342
2590,24.28691101
2591,29.86988907
2592,24.59278259
2593,23.10407257
2594,19.92932015
2595,15.82143268
2596,21.50950279
2597,17.09874668
2598,18.69888783
2599,19.84023895
2600,18.24137344
2601,21.15605926
2602,28.29677849
2603,17.57587833
2604,17.06527386
2605,19.22786751
2606,18.45451012
2607,19.81163788
2608,22.8
2609,23.04338379
2610,24.37710876
2611,20.79115734
2612,17.34625874
2613,17.56322021
2614,18.1770319
2615,21.88605614
2616,30.53348198
2617,14.78072949
2618,23.57572594
2619,24.21475792
2620,27.83999405
2621,26.89511566
2622,15.71518421
2623,3.595847606
2624,17.51049271
2625,20.16160393
2626,17.45993138
2627,19.9872612
2628,18.19541531
2629,23.06903648
2630,44.39283142
2631,19.79558639
2632,28.93494148
2633,24.25390472
2634,17.71365528
2635,15.08179474
2636,19.13461952
2637,25.33514709
2638,20.18755722
2639,20.01455402
2640,18.41464748
2641,15.10251675
2642,15.48913002
2643,15.47786198
2644,15.95284042
2645,23.76655121
2646,15.26177406
2647,16.75159626
2648,18.60753593
2649,13.6818594
2650,14.59911556
2651,21.8351841
2652,25.96759834
2653,26.3594017
2654,23.74601402
2655,18.49800243
2656,20.04054069
2657,16.32158375
2658,13.1280468
2659,17.30810433
2660,23.31869507
2661,15.90271397
2662,14.50362358
2663,15.04808349
2664,15.06292458
2665,4.339923859
2666,3.955972123
2667,16.20724545
2668,20.21894112
2669,18.83063393
2670,21.81495285
2671,18.04595528
2672,16.63811836
2673,17.91151752
2674,22.96255684
2675,23.64926033
2676,16.17664681
2677,15.84639988
2678,7.564459705
2679,8.782442761
2680,16.90717468
2681,13.94526196
2682,10.08893967
2683,12.51728706
2684,16.49994507
2685,14.6498764
2686,12.09572582
2687,17.75880813
2688,23.09815369
2689,20.12800484
2690,14.63557224
2691,13.70902939
2692,13.21288414
2693,11.49053669
2694,18.34317169
2695,14.10484352
2696,10.72791643
2697,14.2534483
2698,14.23075943
2699,15.08093967
2700,16.75615063
2701,21.01559792
2702,25.57453193
2703,20.43538666
2704,14.78472824
2705,14.42773571
2706,17.52962341
2707,21.64126015
2708,17.74802856
2709,16.82342892
2710,18.88040848
2711,14.27671566
2712,158.3927029
2713,748.0196732
2714,48.71908112
2715,18.97910785
2716,21.45684795
2717,17.00559139
2718,16.83037415
2719,17.6712862
2720,13.88943882
2721,11.26487827
2722,-76.35212803
2723,-493.5415862
2724,9.727769852
2725,17.42802601
2726,16.92603531
2727,10.32886439
2728,10.3408802
2729,17.49239387
2730,23.9753685
2731,22.6000843
2732,13.97959671
2733,14.71339779
2734,6.206846237
2735,11.9901123
2736,34.16115532
2737,31.74459229
2738,17.70001678
2739,16.41370621
2740,19.3589325
2741,17.83130341
2742,17.97291183
2743,12.9485939
2744,9.052979469
2745,14.693573
2746,10.15597754
2747,21.65645332
2748,21.3115448
2749,17.8701189
2750,20.47666969
2751,21.72607269
2752,20.5093872
2753,20.25140343
2754,20.4674305
2755,46.26287384
2756,17.82738304
2757,19.10851097
2758,15.11907654
2759,15.31940823
2760,13.82525272
2761,17.67576637
2762,19.3530714
2763,14.26326198
2764,12.00990887
2765,16.3658905
2766,14.81922207
2767,12.82633152
2768,9.991098785
2769,15.88182888
2770,16.02576561
2771,12.98849163
2772,17.6285059
2773,17.89050922
2774,16.46450272
2775,14.07799912
2776,14.64080887
2777,17.67856674
2778,14.17943897
2779,11.03003464
2780,12.79094715
2781,10.87265778
2782,6.982346629
2783,5.740024281
2784,9.004062367
2785,13.04772072
2786,6.871852302
2787,5.935722447
2788,8.218959808
2789,9.86875887
2790,9.86796875
2791,10.34538641
2792,15.13996868
2793,10.21042938
2794,11.11436291
2795,10.22757378
2796,6.124089956
2797,19.57322731
2798,13.11885185
2799,11.6
2800,13.7205801
2801,14.21494236
2802,15.84678631
2803,14.01980362
2804,10.46095352
2805,13.65932655
2806,18.11979103
2807,14.02633057
2808,11.8431963
2809,9.902316285
2810,11.73885345
2811,11.08908863
2812,16.35285377
2813,7.09929824
2814,12.86486282
2815,13.57718048
2816,11.67120514
2817,13.25283642
2818,9.799506187
2819,5.044738817
2820,7.143640423
2821,10.97451534
2822,10.66678658
2823,10.45181732
2824,12.45139427
2825,13.59132481
2826,12.1208004
2827,15.00283546
2828,8.739395618
2829,10.99645328
2830,10.42746134
2831,12.38664322
2832,14.98636971
2833,17.48519134
2834,13.78775806
2835,11.41601992
2836,10.73841286
2837,12.5377945
2838,11.68103428
2839,10.40812283
2840,8.484230137
2841,7.633146572
2842,14.64677563
2843,17.71533489
2844,11.64634972
2845,20.28225307
2846,19.40425949
2847,11.38746662
2848,9.333129691
2849,12.2613451
2850,13.09706936
2851,7.922783947
2852,17.53384705
2853,15.33566265
2854,4.914084649
2855,12.32628078
2856,13.00422668
2857,11.56891632
2858,12.45644112
2859,5.871634388
2860,7.802693081
2861,15.53259697
2862,13.4400753
2863,14.94389782
2864,17.53652382
2865,13.2504816
2866,11.555513
2867,9.930736541
2868,7.120745754
2869,7.699813271
2870,11.12417202
2871,9.524355317
2872,12.13550148
2873,13.3286375
2874,12.2029253
2875,10.13343449
2876,27.31100731
2877,7.495417977
2878,6.086475086
2879,15.5950882
2880,9.956834699
2881,23.41601868
2882,15.74852429
2883,9.468327235
2884,16.59631538
2885,19.48158951
2886,17.35254459
2887,14.10948334
2888,13.55346489
2889,11.81485882
2890,7.884411716
2891,9.811899853
2892,13.76950817
2893,14.34537792
2894,14.63354683
2895,16.47110596
2896,12.53851223
2897,12.41024475
2898,11.03183517
2899,12.60544262
2900,11.84008274
2901,6.500468826
2902,9.074637699
2903,11.49539661
2904,14.49763489
2905,14.79091873
2906,11.60262566
2907,15.79155311
2908,13.19588871
2909,13.03219643
2910,15.45586434
2911,15.34185066
2912,16.64424496
2913,12.68582706
2914,11.11526909
2915,12.59181557
2916,13.16387043
2917,12.81819
2918,16.59140148
2919,11.38626433
2920,16.8832386
2921,13.14421864
2922,13.45868873
2923,29.38875771
2924,10.55301476
2925,11.95063496
2926,9.829448987
2927,8.658814526
2928,13.73628407
2929,21.04134598
2930,18.79876594
2931,10.6447238
2932,13.81321259
2933,6.600000095
2934,6.560883904
2935,7.686080361
2936,13.07785759
2937,12.62027111
2938,10.96579819
2939,16.88774185
2940,12.09597664
2941,2.929750889
2942,8.739468194
2943,5.304716253
2944,8.464413929
2945,10.54469137
2946,11.8
2947,11.93537464
2948,12.5851861
2949,12.34374237
2950,8.865825271
2951,8.011814022
2952,10.69197741
2953,7.151542473
2954,11.75136566
2955,15.58987694
2956,11.32948437
2957,14.91297646
2958,8.527235603
2959,8.009057331
2960,7.561244202
2961,10.01242275
2962,11.3543211
2963,11.78218079
2964,8.852950192
2965,9.854921436
2966,9.327511598
2967,7.670206165
2968,12.78235607
2969,12.90550022
2970,11.72282772
2971,16.38281555
2972,15.06443253
2973,7.167712594
2974,3.884824658
2975,7.996755982
2976,10.67291222
2977,7.054549122
2978,12.11038132
2979,13.66556606
2980,11.49710198
2981,10.28786831
2982,7.793585205
2983,8.518663597
2984,-3.539398879
2985,3.511980366
2986,7.167651081
2987,12.90387573
2988,10.60879288
2989,11.8441822
2990,8.424409008
2991,12.85109653
2992,-2.362037969
2993,15.38107147
2994,21.57252579
2995,14.14083138
2996,11.6107029
2997,13.25930004
2998,13.52801285
2999,11.54474754
3000,4.077098465
