Frequency,Density
0,258.8
1,258.8
2,258.8
3,258.8
4,258.8
5,258.8
6,258.8
7,258.8
8,258.8
9,258.8
10,258.8
11,258.8
12,258.8
13,258.8
14,258.8
15,258.8
16,258.8
17,258.8
18,258.8
19,258.8
20,258.8
21,258.8
22,258.8
23,258.8
24,258.8
25,258.8
26,258.8
27,258.8
28,258.8
29,258.8
30,258.8
31,258.8
32,258.8
33,258.8
34,258.8
35,258.8
36,258.8
37,258.8
38,258.8
39,258.8
40,258.8
41,258.8
42,258.8
43,258.8
44,258.8
45,258.8
46,258.8
47,258.8
48,258.8
49,258.8
50,258.8
51,258.8
52,258.8
53,258.8
54,258.8
55,258.8
56,258.8
57,258.8
58,258.8
59,258.8
60,258.8
61,258.8
62,258.8
63,258.8
64,258.8
65,258.8
66,258.8
67,258.8
68,258.8
69,258.8
70,258.8
71,258.8
72,258.8
73,258.8
74,258.8
75,258.8
76,258.8
77,258.8
78,258.8
79,258.8
80,258.8
81,258.8
82,258.8
83,258.8
84,258.8
85,258.8
86,258.8
87,258.8
88,258.8
89,258.8
90,258.8
91,258.8
92,258.8
93,258.8
94,258.8
95,258.8
96,258.8
97,258.8
98,258.8
99,258.8
100,258.8
101,258.8
102,258.8
103,258.8
104,258.8
105,258.8
106,258.8
107,258.8
108,258.8
109,258.8
110,258.8
111,258.8
112,258.8
113,258.8
114,258.8
115,258.8
116,258.8
117,258.8
118,258.8
119,258.8
120,258.8
121,258.8
122,258.8
123,258.8
124,258.8
125,258.8
126,258.8
127,258.8
128,258.8
129,258.8
130,258.8
131,258.8
132,258.8
133,258.8
134,258.8
135,258.8
136,258.8
137,258.8
138,258.8
139,258.8
140,258.8
141,258.8
142,258.8
143,258.8
144,258.8
145,258.8
146,258.8
147,258.8
148,258.8
149,258.8
150,258.8
151,258.8
152,258.8
153,258.8
154,258.8
155,258.8
156,258.8
157,258.8
158,258.8
159,258.8
160,258.8
161,258.8
162,258.8
163,258.8
164,258.8
165,258.8
166,258.8
167,258.8
168,258.8
169,258.8
170,258.8
171,258.8
172,258.8
173,258.8
174,258.8
175,258.8
176,258.8
177,258.8
178,258.8
179,258.8
180,258.8
181,258.8
182,258.8
183,258.8
184,258.8
185,258.8
186,258.8
187,258.8
188,258.8
189,258.8
190,258.8
191,258.8
192,258.8
193,258.8
194,258.8
195,258.8
196,258.8
197,258.8
198,258.8
199,274.665863
200,330.1868225
201,385.7077759
202,394.2480591
203,382.9358826
204,373.9809448
205,382.0436585
206,390.1063782
207,394.7247803
208,396.4313537
209,398.1379334
210,398.5739685
211,398.9620606
212,401.2732178
213,406.6319519
214,411.9906982
215,411.2970459
216,409.1989075
217,404.8804077
218,393.450531
219,382.0206482
220,379.9609985
221,382.606189
222,385.1775635
223,387.0458557
224,388.9141541
225,391.7250976
226,395.3860108
227,399.0469055
228,394.2712463
229,389.1273743
230,390.1270508
231,400.6547791
232,411.1825012
233,410.5467895
234,407.5816894
235,404.6986328
236,402.0440796
237,399.3895386
238,397.008313
239,394.7428223
240,392.933606
241,393.8716064
242,394.8096008
243,390.6339172
244,382.8126404
245,375.2605347
246,377.5300537
247,379.7995544
248,380.3729431
249,379.0417603
250,377.7105835
251,376.2349915
252,374.7463257
253,373.7143188
254,373.479126
255,373.243927
256,371.732843
257,369.9286499
258,368.5586243
259,368.4016419
260,368.2446716
261,372.1893982
262,377.7654175
263,380.7813721
264,371.1944031
265,361.6074402
266,363.1983887
267,371.5329407
268,378.7526367
269,373.1667725
270,367.5809021
271,367.2021179
272,371.2955872
273,375.3890381
274,372.3363098
275,369.2644104
276,368.1416626
277,369.3238647
278,370.5060608
279,374.0844788
280,377.8697327
281,375.9234192
282,364.7976685
283,353.6719238
284,357.970813
285,364.997583
286,370.2751465
287,371.776123
288,373.2771057
289,373.6
290,373.6
291,373.7208679
292,374.1954163
293,374.6699646
294,376.7534119
295,379.4441284
296,382.213855
297,385.3020752
298,388.3902954
299,393.7727905
300,400.2697937
301,405.2809265
302,401.7926697
303,398.3044189
304,393.2256958
305,387.1969849
306,381.9746643
307,383.6414673
308,385.3082702
309,385.3495606
310,384.2376953
311,382.9932861
312,379.8941406
313,376.7949829
314,376.4493347
315,378.3576294
316,380.2357239
317,381.2700012
318,382.3042664
319,382.758551
320,382.6789429
321,382.5669006
322,378.5842529
323,374.6016113
324,372.9964356
325,373.7934326
326,374.5904297
327,372.1575256
328,369.6853821
329,369.6640869
330,372.2972717
331,374.9304626
332,378.9643494
333,383.0362243
334,385.7240967
335,386.8425293
336,387.9609558
337,384.5284973
338,380.9314331
339,378.5185303
340,377.478772
341,376.4390076
342,375.3986511
343,374.3582764
344,369.9408508
345,361.6129273
346,353.2850098
347,360.2738525
348,367.8054566
349,369.2021179
350,363.6703369
351,358.1385559
352,360.7372986
353,363.544928
354,362.4479614
355,357.1504639
356,351.8529602
357,357.5246948
358,363.307196
359,366.3204712
360,366.561554
361,366.7560608
362,362.7356995
363,358.7153442
364,359.4117676
365,364.3999512
366,369.1574951
367,368.0304565
368,366.9034302
369,365.8651733
370,364.8985779
371,363.790155
372,360.8080689
373,357.8259827
374,359.3544617
375,364.031842
376,367.6377625
377,362.473468
378,357.3091797
379,356.0106995
380,356.9795776
381,357.8247559
382,357.9863281
383,358.1479065
384,358.4738647
385,358.8780396
386,358.5912598
387,355.5986084
388,352.6059509
389,350.4398926
390,348.5784912
391,346.6747925
392,344.6503357
393,342.6258911
394,345.9748474
395,350.7553772
396,355.458667
397,359.9987976
398,364.5389221
399,363.1207092
400,360.6870606
401,361.3152771
402,366.7536255
403,372.1919861
404,374.5532165
405,376.6648682
406,378.514032
407,380.0580627
408,381.5986694
409,380.6229004
410,379.6471436
411,383.1228211
412,390.3639588
413,397.4830078
414,403.2630615
415,409.0431091
416,404.4600158
417,393.7076599
418,383.080072
419,373.0549194
420,363.0297607
421,360.4926636
422,360.9004333
423,358.6882385
424,349.2224609
425,339.7566895
426,339.0639465
427,340.370343
428,341.7366455
429,343.2072082
430,344.6777771
431,352.3701294
432,360.6264832
433,364.4999328
434,363.4366089
435,362.0071961
436,346.3752442
437,330.7432922
438,329.3897705
439,338.3158875
440,344.4836182
441,333.5856934
442,322.6877625
443,327.1864136
444,338.3367432
445,344.4121704
446,335.9624634
447,327.5127381
448,326.4717224
449,327.0463135
450,329.3577637
451,334.4500122
452,339.5422608
453,344.5593384
454,349.5724121
455,348.8616638
456,342.7766418
457,337.4543457
458,340.4986572
459,343.5429626
460,343.0952332
461,340.7900696
462,337.9139893
463,333.0538147
464,328.1936401
465,325.6262329
466,323.648053
467,324.1046509
468,328.7231445
469,333.3416504
470,336.3267029
471,339.2149658
472,339.0958801
473,336.2059021
474,333.3969727
475,331.331488
476,329.2660034
477,331.4006165
478,335.5340332
479,338.4718384
480,337.975531
481,337.4792297
482,337.3304443
483,337.2476807
484,331.6883179
485,318.686383
486,305.9296081
487,320.5136353
488,335.0976624
489,339.7167236
490,337.5609863
491,334.7517944
492,329.0274353
493,323.3030762
494,323.6028626
495,325.6781311
496,327.2713867
497,328.0189209
498,328.7664612
499,327.1330139
500,325.3877319
501,325.6493713
502,327.5620056
503,329.8929809
504,334.7190003
505,339.5450134
506,337.7196961
507,333.5568909
508,330.6030518
509,330.0199097
510,329.4367798
511,327.2132507
512,324.8793274
513,327.6557373
514,334.8284851
515,340.1263184
516,333.8673157
517,327.608313
518,326.4343262
519,327.0188415
520,326.266333
521,323.0077942
522,319.7492615
523,321.6740723
524,323.8477112
525,328.0901856
526,333.945752
527,339.9593567
528,346.7390869
529,353.5188171
530,344.9857239
531,332.1720032
532,324.9275452
533,326.2683411
534,327.6239868
535,331.1456421
536,334.6672974
537,336.7822327
538,338.0407105
539,339.3791931
540,340.9742127
541,342.5692261
542,342.0097107
543,341.0857361
544,340.161499
545,339.2369812
546,337.9062805
547,332.6922485
548,327.4782288
549,327.024939
550,328.4554382
551,330.3438355
552,333.1223267
553,335.900824
554,335.5125549
555,335.0070862
556,330.8190674
557,324.0753662
558,319.534607
559,322.9084533
560,326.2823059
561,322.8704651
562,318.2286926
563,315.2363342
564,314.0540894
565,313.348053
566,316.5588989
567,319.7697449
568,315.1464539
569,307.7909546
570,305.393866
571,311.2309875
572,317.027655
573,319.3977417
574,321.7678345
575,321.8855408
576,320.784491
577,319.2203247
578,316.5084351
579,313.7965576
580,315.7235535
581,318.0130615
582,318.9517334
583,318.8668823
584,319.0876099
585,320.4459595
586,321.8043091
587,313.856604
588,304.3425476
589,301.7314026
590,305.9812744
591,309.4105469
592,308.1348267
593,306.8591126
594,304.9046692
595,302.7772186
596,301.4098389
597,300.9840943
598,301.558313
599,311.3561707
600,321.1540222
601,317.1393128
602,308.5291504
603,305.2622437
604,309.8684143
605,314.1287598
606,312.9338562
607,311.7389588
608,311.8893982
609,312.5726013
610,312.4560852
611,311.0034057
612,309.6318909
613,310.5724121
614,311.5129333
615,307.2231506
616,300.635614
617,293.710495
618,286.1774292
619,278.9769714
620,287.5423492
621,296.107727
622,300.915564
623,304.0009277
624,307.3284729
625,311.1016968
626,314.7437622
627,311.9121643
628,309.0805664
629,310.6254517
630,314.1455628
631,317.5120056
632,320.6046814
633,323.4403442
634,318.3687927
635,313.2972412
636,305.8594849
637,297.4305695
638,297.4575683
639,311.3132935
640,323.6878784
641,310.8572937
642,298.0266937
643,295.2315064
644,296.0931335
645,296.2095337
646,295.2611847
647,295.4623566
648,307.0218018
649,318.5812378
650,320.4656311
651,319.5161621
652,315.925592
653,309.1889893
654,304.3967956
655,311.4830627
656,318.5693298
657,309.0822021
658,296.1118439
659,293.7086456
660,301.3224365
661,309.0419372
662,317.179657
663,325.3173828
664,322.9564331
665,319.3182739
666,316.0828858
667,313.135968
668,309.7351135
669,305.1386597
670,300.5422119
671,302.5864014
672,304.8425964
673,304.1579956
674,301.9872864
675,303.7982422
676,312.6599853
677,320.6929199
678,315.4770447
679,310.2611694
680,306.2960083
681,302.7297241
682,304.1150207
683,311.3388794
684,317.5682068
685,318.6132324
686,319.6582703
687,320.5531921
688,321.4245667
689,319.2195679
690,314.6857239
691,312.0724548
692,314.5152038
693,316.9579468
694,309.5362915
695,301.9418335
696,300.7477966
697,302.4073425
698,304.5940796
699,307.5655518
700,309.92229
701,307.4737488
702,305.0252136
703,304.3107788
704,303.9607849
705,303.1373535
706,301.9116333
707,300.0347168
708,296.2677612
709,292.5008179
710,295.8976898
711,299.4915588
712,301.8131225
713,303.5672668
714,306.4046204
715,310.7925964
716,312.1137207
717,293.3220734
718,274.530426
719,278.934201
720,287.2812317
721,293.6986756
722,298.7098633
723,302.7874207
724,304.7227112
725,306.3995178
726,299.7100037
727,293.0204895
728,294.2029602
729,297.9019867
730,299.9287232
731,300.1930908
732,299.6141663
733,295.9989258
734,292.3836822
735,294.1261566
736,296.1554291
737,296.077124
738,295.017749
739,294.1422302
740,293.5238953
741,293.2294739
742,294.7320312
743,296.2346039
744,294.3537201
745,292.0543213
746,290.9775482
747,290.6235809
748,290.4978455
749,290.7634705
750,289.8838196
751,279.6953064
752,269.5067871
753,275.4782654
754,284.2544556
755,288.328659
756,289.2156708
757,289.4971435
758,288.60961
759,287.6050598
760,285.3849029
761,283.1647492
762,274.8541504
763,265.3462463
764,272.1138275
765,290.4296264
766,303.0477417
767,304.3822082
768,304.2301758
769,288.5631592
770,272.8961456
771,277.1390991
772,285.1553863
773,290.2037018
774,293.2338837
775,294.4484558
776,292.3082367
777,289.9841339
778,286.1473022
779,282.3104706
780,284.6639099
781,287.9673279
782,288.080014
783,286.2933258
784,284.7490448
785,283.5870117
786,283.0849823
787,286.3048492
788,289.524707
789,286.8536865
790,283.6319183
791,289.0517273
792,298.5436798
793,298.9621185
794,288.1205383
795,280.406134
796,284.1715607
797,287.9369934
798,291.9692322
799,296.006012
800,290.0312531
801,280.786026
802,277.9105499
803,280.7845581
804,285.1356232
805,292.9539581
806,299.2587433
807,286.4002716
808,273.5417969
809,278.0164032
810,285.5741119
811,289.6963837
812,291.7669922
813,291.4331299
814,287.5597076
815,285.9611267
816,294.4336457
817,302.9061462
818,297.3670593
819,291.3245697
820,292.5663452
821,296.2661896
822,297.04039
823,295.2345123
824,293.3425507
825,291.264563
826,288.6107666
827,280.9266876
828,273.2426056
829,278.3596436
830,285.0532837
831,287.200003
832,287.2
833,286.0093506
834,283.4736084
835,280.6535461
836,277.0289154
837,273.6832306
838,275.2246094
839,276.7660004
840,277.6156006
841,278.341394
842,276.3211548
843,272.7808472
844,276.1213623
845,288.2019195
846,295.773587
847,288.957196
848,282.1925323
849,276.7361816
850,271.2798309
851,263.6837921
852,255.6763947
853,261.2011536
854,274.3119415
855,280.6694244
856,278.5740967
857,277.2040833
858,278.0244781
859,279.09935
860,284.5719177
861,290.0444763
862,275.2245087
863,257.1543122
864,259.037143
865,270.725824
866,278.731134
867,282.7514923
868,284.667276
869,281.4673615
870,278.8757172
871,281.5286499
872,284.1815918
873,283.2240143
874,281.9425232
875,280.3249298
876,278.584732
877,277.9509521
878,278.225882
879,279.0388672
880,280.7811401
881,281.9104737
882,280.3506744
883,278.7334534
884,267.3493805
885,255.9652924
886,264.4124207
887,276.9974701
888,275.9019073
889,267.4456207
890,266.2715118
891,273.1693268
892,277.1450775
893,274.2922821
894,272.2770661
895,276.0523681
896,279.8276459
897,266.2831604
898,251.910138
899,258.6970154
900,271.3269775
901,268.5517517
902,256.0987732
903,245.1244934
904,235.9868866
905,232.9834595
906,245.8206574
907,258.3124115
908,268.1077393
909,277.9030731
910,277.6100433
911,276.7778687
912,279.4369965
913,283.0452301
914,277.6934357
915,266.954895
916,254.9667389
917,241.5355896
918,235.6762329
919,247.0763245
920,258.1228333
921,267.1184845
922,276.114151
923,271.4207703
924,266.5954895
925,254.1687073
926,240.2413605
927,243.4565704
928,254.6979798
929,259.3615051
930,258.1530334
931,258.4516357
932,261.2420746
933,258.8221344
934,238.6259644
935,221.7376465
936,244.0876923
937,266.437732
938,260.3732849
939,252.173407
940,253.9805084
941,258.5490692
942,260.2
943,260.2
944,256.1353882
945,247.9208679
946,246.4166077
947,257.2512726
948,263.8676392
949,254.7087829
950,247.0296692
951,258.7188263
952,270.4079834
953,263.2621704
954,254.747403
955,258.2831696
956,264.9305023
957,261.4005432
958,252.5946106
959,248.2527435
960,247.9715332
961,249.7021118
962,254.5792633
963,258.9011108
964,261.6226868
965,263.9762421
966,263.7884338
967,263.6006317
968,258.2623718
969,252.90672
970,251.0574799
971,249.7412781
972,250.9329529
973,253.0025055
974,245.642456
975,232.3706177
976,224.8156952
977,223.2146027
978,227.7233063
979,242.8014557
980,251.2315521
981,239.0675751
982,229.6303375
983,239.6314819
984,249.6200226
985,255.7564484
986,261.8928833
987,260.7612976
988,258.6831116
989,256.894165
990,255.1928406
991,255.4626861
992,256.786734
993,251.2023346
994,239.6573212
995,234.2827759
996,237.3127838
997,241.3456451
998,247.5987335
999,250.1897491
1000,238.1501343
1001,227.9725342
1002,236.5096192
1003,245.0467041
1004,247.9962585
1005,250.8436401
1006,238.7374359
1007,224.4920349
1008,232.0868042
1009,246.2456512
1010,254.0314392
1011,258.5953888
1012,256.8654144
1013,250.2057037
1014,247.6913727
1015,250.0712524
1016,252.3153778
1017,254.3156677
1018,256.3900208
1019,258.6774292
1020,257.4666229
1021,237.8213745
1022,219.9825775
1023,229.3339355
1024,238.6852844
1025,240.5685059
1026,242.1916504
1027,235.4883942
1028,227.5589447
1029,235.0984436
1030,247.0474792
1031,249.8158356
1032,248.3810943
1033,246.0917023
1034,243.2205231
1035,240.1065643
1036,236.7548584
1037,237.7550903
1038,244.8457581
1039,247.2305908
1040,240.0398285
1041,235.4876739
1042,239.1331543
1043,241.8952698
1044,239.9754547
1045,238.4238983
1046,241.4013886
1047,244.3788727
1048,246.7855774
1049,249.188208
1050,224.1465668
1051,196.4518372
1052,207.0109467
1053,225.2926422
1054,235.1679321
1055,242.2924011
1056,241.3434204
1057,236.5267243
1058,234.0794952
1059,233.2119782
1060,234.6739166
1061,238.2425049
1062,237.8472626
1063,232.6359497
1064,232.1452087
1065,239.3874512
1066,244.7272186
1067,245.7900452
1068,243.1957031
1069,228.8873383
1070,218.522229
1071,227.5186401
1072,235.6196869
1073,235.8132752
1074,235.8042847
1075,230.2837921
1076,224.7632965
1077,227.3272064
1078,230.1375549
1079,233.3889649
1080,236.6858063
1081,233.5967865
1082,229.3277374
1083,219.8898163
1084,209.0166992
1085,212.1063721
1086,220.5574768
1087,225.851181
1088,229.5446594
1089,233.416275
1090,237.4037109
1091,239.7882202
1092,240.8586609
1093,238.5123047
1094,232.6700806
1095,230.9013123
1096,234.3113007
1097,235.6822998
1098,233.8300598
1099,228.2421722
1100,215.2687866
1101,209.9855011
1102,223.9426269
1103,233.6995331
1104,229.8907806
1105,225.8421387
1106,220.7607788
1107,217.5785645
1108,225.8895691
1109,233.4376984
1110,233.8290314
1111,233.5884277
1112,221.8412811
1113,210.2379578
1114,214.4498505
1115,218.6617493
1116,206.0030334
1117,192.7717743
1118,206.7927277
1119,222.9738892
1120,215.0501678
1121,204.0600586
1122,203.6503021
1123,205.1230682
1124,193.1154755
1125,177.9860932
1126,187.9525848
1127,205.1552887
1128,216.0192627
1129,224.6749115
1130,229.2215027
1131,232.0756317
1132,233.266333
1133,233.6602417
1134,229.0955261
1135,221.8039154
1136,220.699057
1137,223.4596832
1138,222.4575989
1139,218.8074585
1140,217.8076477
1141,218.8934723
1142,219.4
1143,219.4
1144,213.8206848
1145,202.850705
1146,204.5842896
1147,219.8129578
1148,222.8300232
1149,211.6490906
1150,209.9854065
1151,220.3809448
1152,226.3165924
1153,226.1184662
1154,223.2897003
1155,216.5493408
1156,214.0012878
1157,218.1669281
1158,222.6985962
1159,227.8591217
1160,227.8036346
1161,218.1715454
1162,213.3135315
1163,217.7846832
1164,220.4439148
1165,219.3503174
1166,218.4126434
1167,217.8157806
1168,216.2826569
1169,212.5998108
1170,210.9372406
1171,214.1242951
1172,209.1332886
1173,183.7212982
1174,170.102121
1175,186.9538086
1176,199.4181397
1177,200.2163269
1178,204.3684631
1179,217.6462311
1180,224.6427612
1181,214.2539673
1182,204.8897156
1183,198.392865
1184,197.3247772
1185,211.5263489
1186,222.105072
1187,222.5053589
1188,220.6066925
1189,212.2958954
1190,207.5350739
1191,212.5445557
1192,216.5793549
1193,217.9828461
1194,215.1067413
1195,200.9631897
1196,194.1330658
1197,205.9765503
1198,213.819986
1199,211.8114197
1200,211.6547424
1201,215.875238
1202,217.9047943
1203,214.9889069
1204,213.0959503
1205,213.3977722
1206,210.3113556
1207,200.345282
1208,195.3904022
1209,200.0238587
1210,197.6285492
1211,182.6112579
1212,177.0776184
1213,187.4648773
1214,198.2875519
1215,209.7909698
1216,212.1912537
1217,201.3877624
1218,198.8688782
1219,207.4561951
1220,206.0014862
1221,192.1525238
1222,188.8330353
1223,197.4305664
1224,202.3972595
1225,203.6117554
1226,203.5733826
1227,202.3581665
1228,192.7602509
1229,176.0411194
1230,176.5593475
1231,190.2467682
1232,196.2220245
1233,196.9321625
1234,197.2632263
1235,197.3647339
1236,200.1175263
1237,204.2818725
1238,194.347287
1239,177.8832702
1240,176.4743775
1241,181.0504425
1242,175.3429321
1243,166.1853699
1244,180.3869019
1245,201.0545746
1246,202.8815613
1247,200.5385132
1248,202.7289673
1249,205.6850036
1250,203.5396362
1251,200.7858246
1252,198.030484
1253,195.2750366
1254,197.1866699
1255,199.3101013
1256,207.0754059
1257,214.1621063
1258,209.9704315
1259,205.64487
1260,200.1208526
1261,196.3078156
1262,202.5516236
1263,206.8352509
1264,202.8409363
1265,199.3597138
1266,197.515094
1267,197.3480133
1268,201.3470795
1269,204.2763001
1270,205.0971069
1271,202.5779877
1272,194.7756592
1273,189.8135132
1274,188.4781067
1275,190.1777954
1276,195.0086578
1277,191.5806549
1278,181.2961029
1279,183.7017365
1280,194.5069397
1281,200.3010193
1282,203.4930267
1283,202.2611206
1284,199.2732727
1285,194.2875458
1286,188.7206665
1287,185.3894195
1288,182.5011688
1289,178.6868805
1290,174.7647827
1291,177.9638031
1292,181.6388092
1293,192.7990784
1294,201.0357208
1295,178.1849243
1296,161.3734925
1297,178.3407379
1298,191.9393494
1299,193.4921448
1300,194.5703186
1301,194.4667389
1302,192.7778534
1303,188.2175446
1304,185.7767212
1305,186.1915405
1306,190.2199524
1307,197.8986878
1308,200.4897247
1309,199.2437836
1310,194.0510742
1311,186.6748688
1312,178.4736908
1313,169.9496277
1314,177.3757263
1315,188.9212555
1316,191.4889496
1317,192.7378571
1318,191.3156616
1319,189.8309479
1320,190.8729462
1321,191.1904541
1322,185.6645966
1323,181.5606384
1324,183.4384613
1325,185.4313843
1326,187.7278656
1327,182.8637695
1328,165.212143
1329,163.9867798
1330,183.321051
1331,192.2335968
1332,191.9198853
1333,191.1535095
1334,190.1071716
1335,188.8385101
1336,187.4774597
1337,186.7829834
1338,186.259198
1339,179.8777344
1340,172.7499298
1341,169.3143402
1342,163.6206085
1343,127.8342605
1344,106.3308899
1345,156.4195602
1346,187.625647
1347,165.5609223
1348,159.3085022
1349,181.3863464
1350,189.8994141
1351,182.2201782
1352,179.0335113
1353,179.454541
1354,181.4612274
1355,184.3048706
1356,183.8852936
1357,182.4099335
1358,182.7426483
1359,183.3753204
1360,185.1236725
1361,186.4409577
1362,180.9512695
1363,176.4180542
1364,176.5236908
1365,176.7760498
1366,177.4102295
1367,174.7838593
1368,166.9576721
1369,169.0677521
1370,181.3431091
1371,177.4973145
1372,163.0969574
1373,159.7580551
1374,160.8175308
1375,168.6345367
1376,177.8574829
1377,180.496521
1378,182.4462921
1379,179.686734
1380,177.5819671
1381,178.6439636
1382,172.9402985
1383,150.518779
1384,143.1569916
1385,157.8300201
1386,161.0020416
1387,153.7675552
1388,152.5734406
1389,154.7024979
1390,165.81138
1391,179.6584595
1392,177.1272858
1393,172.5818787
1394,171.0888855
1395,169.872937
1396,170.4064697
1397,170.8280151
1398,170.9347839
1399,171.0831604
1400,171.2968262
1401,170.9577728
1402,170.1026031
1403,171.3895843
1404,173.8496643
1405,160.3592346
1406,142.2722794
1407,152.9426178
1408,166.0855103
1409,168.2285217
1410,168.3456879
1411,158.8036133
1412,155.7018127
1413,167.0732757
1414,175.0190918
1415,178.6687042
1416,172.7191192
1417,159.8304596
1418,159.9826813
1419,165.2486755
1420,173.928418
1421,183.1762726
1422,177.5119873
1423,172.316391
1424,170.2708313
1425,168.6486633
1426,168.1100403
1427,165.6042969
1428,160.4304291
1429,157.3409882
1430,155.8310425
1431,149.9252045
1432,142.2630966
1433,148.1749329
1434,156.0695587
1435,141.6995376
1436,132.6404999
1437,151.8839798
1438,165.1666809
1439,165.0585052
1440,164.3539398
1441,162.9468475
1442,158.8907562
1443,153.15074
1444,160.0865753
1445,170.92323
1446,165.4218933
1447,159.1861542
1448,161.6815491
1449,162.9976196
1450,160.3921845
1451,159.8983353
1452,162.7225647
1453,164.8333862
1454,166.3550293
1455,163.1833191
1456,158.0719177
1457,161.6530975
1458,166.5566559
1459,171.6741302
1460,174.7655823
1461,169.4271729
1462,166.1170838
1463,166.4441193
1464,166.2003967
1465,165.4368652
1466,166.1786835
1467,167.5975189
1468,169.2979462
1469,170.7849762
1470,162.4803833
1471,156.8691925
1472,162.3359894
1473,165.3992096
1474,164.3052002
1475,164.8015655
1476,166.6624878
1477,165.8758118
1478,164.0137848
1479,161.1806641
1480,158.6182007
1481,162.2370087
1482,162.8202759
1483,153.6032959
1484,147.9274338
1485,147.2686859
1486,144.9834945
1487,141.5779556
1488,143.8532074
1489,147.810376
1490,151.2462005
1491,154.8325958
1492,159.5648315
1493,163.0438507
1494,163.8146759
1495,161.5550324
1496,156.266272
1497,157.696051
1498,162.2162201
1499,152.616951
1500,141.6
1501,141.6000015
1502,141.8444184
1503,142.8384201
1504,146.7171829
1505,154.3423706
1506,149.1110764
1507,136.173735
1508,145.0022583
1509,158.5803467
1510,156.3662109
1511,155.0706024
1512,157.3968201
1513,157.0847565
1514,152.7620621
1515,143.6420288
1516,131.2207779
1517,138.6689575
1518,151.4304901
1519,154.6677033
1520,157.0351288
1521,156.1463165
1522,156.3710663
1523,158.3720825
1524,155.4829864
1525,149.1426819
1526,144.1153564
1527,139.4407822
1528,142.7118149
1529,144.768605
1530,141.5370895
1531,136.6523285
1532,129.293486
1533,132.8989151
1534,143.6090363
1535,148.7807419
1536,152.5096466
1537,148.4885864
1538,146.0738495
1539,148.9796707
1540,153.0241028
1541,158.5037079
1542,148.6924484
1543,130.7892502
1544,136.5496521
1545,144.5170395
1546,136.0029297
1547,132.9424683
1548,142.9188522
1549,144.1338425
1550,136.9555573
1551,130.835672
1552,125.112088
1553,132.6566315
1554,138.0295929
1555,128.4789612
1556,128.5645859
1557,144.0794968
1558,148.3608734
1559,145.3235474
1560,135.4841797
1561,125.3435776
1562,136.0431458
1563,144.3578964
1564,146.3863846
1565,143.4509338
1566,135.5576874
1567,132.9080872
1568,132.2311279
1569,135.0002945
1570,137.6267121
1571,138.8692871
1572,137.8307098
1573,133.5356323
1574,132.0726624
1575,132.1857559
1576,128.5403732
1577,123.9545288
1578,116.0284744
1579,114.2318069
1580,124.3151901
1581,132.2506989
1582,138.599057
1583,137.5926575
1584,134.6864182
1585,128.1035385
1586,122.8164078
1587,120.7722351
1588,125.6395676
1589,136.7755524
1590,139.7476181
1591,140.1383774
1592,128.5341217
1593,123.6291092
1594,139.1106155
1595,145.1567017
1596,141.397937
1597,136.8004181
1598,131.8997299
1599,129.1188034
1600,127.283458
1601,128.5386093
1602,129.41604
1603,129.8727295
1604,128.3519363
1605,126.0671387
1606,132.5459686
1607,137.7747284
1608,137.6603516
1609,139.1675552
1610,142.4863983
1611,139.6655151
1612,134.5125305
1613,135.6328384
1614,136.6800125
1615,137.0239533
1616,137.7039703
1617,138.7363998
1618,140.9659485
1619,143.5757065
1620,132.7797867
1621,127.0182678
1622,135.5222199
1623,139.1212128
1624,138.2013214
1625,137.011383
1626,135.3265762
1627,124.27482
1628,119.521373
1629,129.082196
1630,130.9690094
1631,127.0502106
1632,127.1695358
1633,125.6256882
1634,101.8542496
1635,93.48995668
1636,111.7332123
1637,119.7196197
1638,121.7991943
1639,128.3707092
1640,134.2
1641,134.1999985
1642,130.5493164
1643,122.3319718
1644,124.4788482
1645,130.7323578
1646,126.3297837
1647,120.4368897
1648,110.6976898
1649,106.1375641
1650,106.021553
1651,118.7594711
1652,133.1696152
1653,135.0279984
1654,135.8136856
1655,134.7677277
1656,131.987088
1657,128.2659287
1658,120.9774063
1659,115.8543274
1660,119.9291626
1661,124.1770615
1662,128.6037857
1663,126.0771286
1664,121.44832
1665,115.5001556
1666,108.2650024
1667,98.57893525
1668,107.8841019
1669,128.3186127
1670,114.8814072
1671,104.7613464
1672,119.1408798
1673,122.7508011
1674,115.3813187
1675,117.2933396
1676,120.4390991
1677,107.9078705
1678,103.5884659
1679,113.3146988
1680,121.6470886
1681,129.2685242
1682,119.1635864
1683,111.9754486
1684,115.8493744
1685,119.0163651
1686,121.6005051
1687,122.8942444
1688,122.7690307
1689,115.5954391
1690,116.1354523
1691,126.3726852
1692,124.6238953
1693,118.5525574
1694,108.5388336
1695,103.4725876
1696,107.7161987
1697,103.5236984
1698,94.79556275
1699,106.906247
1700,115.6788635
1701,112.1362488
1702,106.3172196
1703,98.75516815
1704,103.1712616
1705,107.1879471
1706,101.6280029
1707,102.522287
1708,110.0977478
1709,114.6383972
1710,117.7856934
1711,115.8895859
1712,110.210231
1713,99.41977235
1714,98.08990784
1715,100.1572968
1716,103.1252136
1717,106.9687912
1718,112.3141937
1719,108.9549133
1720,101.6211044
1721,112.5623947
1722,119.8094696
1723,119.2144851
1724,114.5835602
1725,107.6776428
1726,100.7678116
1727,95.93402253
1728,96.41085511
1729,100.054303
1730,105.7796753
1731,105.9788269
1732,104.871431
1733,101.1694275
1734,103.3169998
1735,109.7694595
1736,112.773291
1737,112.1095459
1738,100.3856949
1739,97.33616638
1740,101.1666199
1741,105.7426285
1742,109.5560532
1743,110.2751129
1744,110.5342667
1745,110.4143524
1746,106.1750595
1747,104.0142578
1748,111.5777451
1749,109.0804687
1750,98.26911774
1751,106.6539566
1752,111.9125046
1753,96.87901154
1754,89.86562501
1755,89.26392976
1756,97.80932161
1757,105.0317429
1758,104.3088562
1759,107.5903641
1760,113.8590698
1761,106.7952072
1762,102.2970611
1763,108.9352402
1764,105.0941956
1765,94.22531126
1766,104.191272
1767,104.6957901
1768,78.57968597
1769,83.63109894
1770,106.7381195
1771,86.08370819
1772,79.30272217
1773,102.8003647
1774,105.8901749
1775,99.48937531
1776,102.884787
1777,104.0850326
1778,101.6583069
1779,101.796257
1780,102.5231812
1781,99.12175902
1782,98.36327669
1783,101.0373947
1784,100.2555145
1785,99.0473465
1786,100.751062
1787,100.5003479
1788,98.3085617
1789,102.7108368
1790,105.3280701
1791,97.6477768
1792,97.63834686
1793,103.2494858
1794,101.5402832
1795,102.5187347
1796,110.9453613
1797,108.0631256
1798,99.59700165
1799,99.47472992
1800,99.59026337
1801,100.0796265
1802,97.61554566
1803,95.77789001
1804,105.5766968
1805,103.5519776
1806,89.09022673
1807,75.35552368
1808,68.40915833
1809,84.48306885
1810,95.16082765
1811,102.1589386
1812,99.43463744
1813,96.36287537
1814,93.2899124
1815,94.14746704
1816,96.44148104
1817,96.93373412
1818,89.73804473
1819,73.48414078
1820,75.32591782
1821,80.19996033
1822,83.03541565
1823,88.92479859
1824,96.94275513
1825,95.88587647
1826,94.31333007
1827,92.33735808
1828,92.78963317
1829,94.09482117
1830,94.96032255
1831,95.94781951
1832,97.06126707
1833,98.93384705
1834,100.110437
1835,98.99567719
1836,88.52695313
1837,73.82313995
1838,87.33999328
1839,92.0843094
1840,84.6394638
1841,90.01010131
1842,95.48690645
1843,88.77866364
1844,87.31063233
1845,89.54802552
1846,81.09614105
1847,80.60130157
1848,94.16591187
1849,93.03776855
1850,86.24447327
1851,73.66064987
1852,72.04660721
1853,79.40187531
1854,82.15974121
1855,84.82602082
1856,87.8215149
1857,81.76021881
1858,73.07234345
1859,67.82407303
1860,70.98443756
1861,81.36211624
1862,88.10562744
1863,85.97545776
1864,67.07338944
1865,67.40574493
1866,71.63234787
1867,59.47569046
1868,68.3346138
1869,94.41780854
1870,93.20426636
1871,89.78852539
1872,84.76663055
1873,69.90578232
1874,57.318927
1875,69.38563004
1876,80.79492951
1877,91.73679961
1878,86.42002869
1879,81.51739807
1880,77.3621582
1881,75.67407074
1882,73.81779938
1883,69.53161545
1884,67.18935623
1885,66.32430267
1886,72.00385437
1887,77.80431366
1888,83.73977051
1889,72.15877914
1890,66.23666229
1891,78.12151337
1892,80.3922821
1893,75.26574555
1894,47.79723587
1895,53.8485199
1896,85.89280854
1897,77.54447861
1898,74.41395874
1899,79.86661301
1900,77.75033569
1901,72.4352066
1902,62.27883148
1903,64.50526276
1904,71.95667877
1905,73.48192215
1906,75.7479744
1907,78.67307205
1908,70.03537674
1909,62.63555527
1910,58.05177078
1911,74.41881103
1912,86.97371826
1913,72.95128784
1914,77.01517868
1915,87.48134918
1916,78.93039627
1917,76.17306747
1918,78.34398117
1919,74.16772537
1920,69.97916336
1921,66.01579361
1922,50.59720154
1923,44.87528305
1924,69.32337951
1925,75.92384644
1926,75.64027786
1927,75.89657593
1928,73.32305298
1929,69.12723923
1930,72.59135742
1931,69.6760643
1932,59.79112625
1933,68.9263298
1934,74.12064056
1935,69.49369583
1936,70.36395492
1937,65.36160355
1938,38.98286781
1939,49.67600021
1940,72.67420578
1941,73.18951569
1942,66.68992157
1943,56.01658325
1944,61.43367233
1945,67.23121567
1946,73.42579575
1947,61.90977631
1948,58.69340134
1949,70.19263382
1950,63.39207535
1951,56.62090454
1952,58.0438179
1953,70.91723175
1954,82.10807648
1955,71.87698364
1956,63.95165787
1957,58.43897476
1958,62.19908523
1959,63.42750778
1960,63.01179733
1961,69.5023323
1962,67.56063843
1963,56.90993653
1964,69.14523697
1965,75.65664673
1966,72.40568466
1967,67.10326233
1968,15.3324623
1969,-126.8356522
1970,-39.04932098
1971,66.61778259
1972,65.1840126
1973,61.74437256
1974,57.20756378
1975,51.20478668
1976,55.54834518
1977,63.29118805
1978,59.5024025
1979,56.26449127
1980,53.78271027
1981,56.26791916
1982,56.54489517
1983,54.99572678
1984,54.73382034
1985,52.7416626
1986,48.94180069
1987,55.61553574
1988,58.51028747
1989,56.01781616
1990,56.63852081
1991,54.28856583
1992,46.80241775
1993,52.97041245
1994,59.80290756
1995,63.87907639
1996,63.95021896
1997,58.45411148
1998,42.13040199
1999,49.43936463
2000,56.38256836
2001,44.25729179
2002,43.46831971
2003,48.94291763
2004,62.53379822
2005,63.94379425
2006,57.67387772
2007,40.10400886
2008,41.77112007
2009,51.22686157
2010,55.98816528
2011,64.42782593
2012,71.6491005
2013,61.32090988
2014,53.10782166
2015,47.9319336
2016,55.09055633
2017,53.3482254
2018,47.61883087
2019,53.06042023
2020,52.46015243
2021,48.53390656
2022,49.86266937
2023,44.93592033
2024,37.68139267
2025,49.52117843
2026,55.80865555
2027,58.47770996
2028,64.07153625
2029,62.58818894
2030,56.5668129
2031,56.16678848
2032,55.68883667
2033,55.1887825
2034,55.05528641
2035,54.68697739
2036,54.50776749
2037,57.98272858
2038,59.63756333
2039,59.9353714
2040,59.26633148
2041,41.10933838
2042,16.98967381
2043,39.09370117
2044,47.02279053
2045,45.72121735
2046,41.83174362
2047,43.28315163
2048,47.48511048
2049,49.49924927
2050,50.98848953
2051,52.439534
2052,55.12817535
2053,54.18212433
2054,52.73714523
2055,56.64021149
2056,51.93165207
2057,45.40000152
2058,45.40000153
2059,48.36646347
2060,49.44394455
2061,41.61964264
2062,40.93947601
2063,41.03521652
2064,37.6587513
2065,30.364925
2066,30.59933281
2067,48.44779434
2068,42.61759872
2069,38.88677483
2070,46.19690399
2071,42.90059891
2072,36.72461662
2073,28.3217514
2074,32.76035385
2075,24.03857517
2076,-0.927933407
2077,18.00301962
2078,31.04488068
2079,37.55635872
2080,31.98347435
2081,36.99438896
2082,48.51692047
2083,47.70042953
2084,45.33455353
2085,42.44436188
2086,41.49068298
2087,38.73601417
2088,33.41823387
2089,22.09720039
2090,26.88525505
2091,35.41849938
2092,40.88074951
2093,41.57271919
2094,42.80855713
2095,46.63656845
2096,43.65721664
2097,40.69046097
2098,38.63736038
2099,37.12093391
2100,33.18454247
2101,28.04536171
2102,38.4658371
2103,38.54463463
2104,34.19755707
2105,43.80649109
2106,38.76233063
2107,29.83192978
2108,29.96935882
2109,8.309365923
2110,-4.519208955
2111,14.33046742
2112,19.19264679
2113,24.58405113
2114,33.67543945
2115,21.37377396
2116,21.65300751
2117,33.65227661
2118,31.30648613
2119,30.90828476
2120,31.89633293
2121,33.6922512
2122,24.78101005
2123,16.69585552
2124,22.22815475
2125,29.24609795
2126,29.91535454
2127,19.66875401
2128,28.58338852
2129,35.22993851
2130,37.19311524
2131,20.54815235
2132,20.31415634
2133,28.31029129
2134,24.14423599
2135,20.17800484
2136,17.55902948
2137,18.11514578
2138,20.32190628
2139,20.14624214
2140,16.10973454
2141,17.89677925
2142,22.83908062
2143,29.44427528
2144,27.91053009
2145,22.83940887
2146,19.88228245
2147,29.65375939
2148,31.71185379
2149,31.49066009
2150,30.65213776
2151,29.81316033
2152,22.86657925
2153,11.6780962
2154,20.35785255
2155,16.94030113
2156,9.666147423
2157,11.76851335
2158,20.44776459
2159,26.48275223
2160,25.07955666
2161,10.03424559
2162,14.93585644
2163,35.23545685
2164,18.78963203
2165,20.58594322
2166,27.68438683
2167,24.02554169
2168,29.70357056
2169,33.79699669
2170,32.81078606
2171,-0.38353436
2172,-0.240112972
2173,22.66870194
2174,30.99542999
2175,29.56611824
2176,26.78582535
2177,28.62264328
2178,30.84359131
2179,3.17E+01
2180,30.94554977
2181,27.54863549
2182,19.74501324
2183,15.34812412
2184,27.95953026
2185,24.05785217
2186,21.21321316
2187,24.06569023
2188,27.75628929
2189,23.49307804
2190,18.87978859
2191,33.23285713
2192,35.29762535
2193,31.79398804
2194,24.53805389
2195,17.69696388
2196,20.95366345
2197,30.28999824
2198,33.14037704
2199,27.99115868
2200,24.45356064
2201,27.87795143
2202,23.86969948
2203,27.23171539
2204,34.69647102
2205,32.83839073
2206,29.99606933
2207,27.79075622
2208,27.21838112
2209,11.81787205
2210,14.16165676
2211,26.32186127
2212,20.15822449
2213,22.15453949
2214,20.59929295
2215,9.692903003
2216,8.603448965
2217,17.83215332
2218,29.73903503
2219,25.57021255
2220,23.74465332
2221,22.81660729
2222,22.07165756
2223,12.71164207
2224,-1.679530955
2225,-8.59531355
2226,13.8945159
2227,16.04632377
2228,3.856618475
2229,-14.88137465
2230,16.74525757
2231,20.12800923
2232,14.70469799
2233,14.41553869
2234,17.27466164
2235,18.11041279
2236,18.87606811
2237,26.98645668
2238,12.69681816
2239,3.030839092
2240,7.447060896
2241,13.39523964
2242,18.96073417
2243,23.50414772
2244,25.9732933
2245,26.5959507
2246,24.94347973
2247,20.22329292
2248,8.874796153
2249,10.38406889
2250,17.20425015
2251,26.02134094
2252,20.92031555
2253,24.51558571
2254,25.90766869
2255,11.17070992
2256,4.355361653
2257,13.82629003
2258,31.12455025
2259,26.30123482
2260,20.04864864
2261,15.48718796
2262,12.06574101
2263,-7.407055569
2264,-3.706668282
2265,9.792539788
2266,24.15732765
2267,-6.023161638
2268,2.743577766
2269,23.06802025
2270,6.182461073
2271,17.54063301
2272,25.18365936
2273,24.92800598
2274,16.3972065
2275,12.52735319
2276,11.7349968
2277,13.35484428
2278,14.97552795
2279,25.08396797
2280,25.3798954
2281,5.52424699
2282,10.39463016
2283,16.94981251
2284,19.05824814
2285,9.749629284
2286,20.21383648
2287,22.70624314
2288,21.54375382
2289,25.98401947
2290,28.81594849
2291,26.04673996
2292,21.10275917
2293,24.51278992
2294,29.32315445
2295,20.54433651
2296,4.518563304
2297,20.11273079
2298,25.78500214
2299,25.71736374
2300,22.31053772
2301,23.20315628
2302,14.58181572
2303,13.4585453
2304,23.87303104
2305,18.21011143
2306,11.20101376
2307,7.105617809
2308,7.283831835
2309,-0.180110967
2310,2.920322728
2311,4.51635859
2312,-1.033635104
2313,17.50855999
2314,19.69927006
2315,19.60234833
2316,26.11835556
2317,24.17109661
2318,24.87102509
2319,24.8276783
2320,21.8694519
2321,23.66998901
2322,20.91594238
2323,18.44879418
2324,19.25249825
2325,10.98595877
2326,20.68878383
2327,26.8950695
2328,16.52287884
2329,22.69571514
2330,15.02161741
2331,11.56009655
2332,22.134762
2333,26.96079769
2334,22.9288496
2335,21.32348461
2336,25.65952377
2337,13.4228117
2338,6.99510501
2339,7.166738863
2340,13.31189356
2341,19.06234894
2342,12.54811926
2343,13.65180731
2344,23.78474731
2345,21.2077961
2346,30.75823288
2347,23.38071384
2348,2.291247272
2349,-4.086168861
2350,-31.51488533
2351,-20.58881283
2352,8.180446709
2353,-0.489336395
2354,13.03590441
2355,16.21337147
2356,14.50755291
2357,17.39848785
2358,15.56913299
2359,21.8300663
2360,26.44363632
2361,21.64510059
2362,7.443515445
2363,10.13441119
2364,19.88019657
2365,26.26523895
2366,-0.350584173
2367,4.122562885
2368,12.01965952
2369,15.1547327
2370,10.40478573
2371,10.28049159
2372,-0.833117724
2373,-4.240387368
2374,26.16066551
2375,14.489289
2376,1.951531697
2377,5.376987911
2378,29.03801994
2379,13.1934166
2380,17.1279913
2381,18.14140224
2382,13.74255924
2383,19.44395485
2384,18.88686371
2385,10.08976784
2386,6.510583925
2387,25.36364212
2388,22.58372536
2389,19.24787197
2390,18.24841518
2391,18.92894974
2392,7.635759306
2393,-22.71791458
2394,-17.08427162
2395,10.34365158
2396,4.610021591
2397,16.20029507
2398,5.572809118
2399,0.670462763
2400,19.29016018
2401,5.622666288
2402,10.15806456
2403,9.457440758
2404,6.145617319
2405,22.94770661
2406,18.77594185
2407,-6.181105423
2408,-23.41398583
2409,-11.41275187
2410,4.959409785
2411,15.11417084
2412,6.485927713
2413,-11.08622904
2414,-9.836720992
2415,-13.13704076
2416,-8.798964918
2417,-4.135578918
2418,-1.535584354
2419,16.93613338
2420,17.18727856
2421,13.36915073
2422,12.66799726
2423,20.60853596
2424,20.9223196
2425,0.683705092
2426,-2.805232859
2427,15.12226448
2428,16.69382706
2429,6.683131241
2430,-3.235443485
2431,-3.790252924
2432,8.262116742
2433,10.46724649
2434,16.82172661
2435,20.07439499
2436,20.49835701
2437,20.71651917
2438,18.82216587
2439,14.96297054
2440,11.83102951
2441,10.90451689
2442,12.9601841
2443,9.27634306
2444,12.39700975
2445,17.68157101
2446,21.06791802
2447,19.32460785
2448,18.61105156
2449,12.57727108
2450,7.981076954
2451,7.357237625
2452,-5.190946483
2453,1.723750591
2454,6.80100894
2455,5.799090285
2456,0.766474796
2457,10.954849
2458,3.378511262
2459,0.064226651
2460,6.875312346
2461,19.65275326
2462,-7.630206299
2463,-10.79337006
2464,0.676262069
2465,13.48166618
2466,14.67991448
2467,13.2407589
2468,5.672380591
2469,6.570566035
2470,13.7220871
2471,19.44790459
2472,24.73659515
2473,19.42797928
2474,0.132271099
2475,-22.12894974
2476,-28.89905052
2477,13.34430103
2478,10.70075598
2479,7.674441242
2480,6.284102274
2481,1.422819549
2482,11.56452236
2483,-7.002633669
2484,-0.737131476
2485,12.10725098
2486,10.1249094
2487,9.640894602
2488,8.417688821
2489,12.69894085
2490,12.2790679
2491,0.180105567
2492,-20.84058533
2493,2.727053738
2494,-8.776124572
2495,-104.2670242
2496,-180.7019547
2497,2.814763975
2498,12.05717754
2499,-12.26750049
2500,-18.40990448
2501,-3.197094393
2502,10.2608222
2503,10.9108551
2504,11.42089953
2505,1.613327742
2506,-3.596448004
2507,5.768832349
2508,10.16630373
2509,5.308118249
2510,-1.362263274
2511,-11.51392336
2512,-15.49056673
2513,4.406816673
2514,-9.802150321
2515,1.35411458
2516,5.095974158
2517,-1.045233464
2518,-6.899841404
2519,-2.153012085
2520,0.322327983
2521,7.464258647
2522,12.12065754
2523,11.82671146
2524,10.75763455
2525,0.909389925
2526,6.121854782
2527,2.999604297
2528,0.204208493
2529,8.318162069
2530,11.27917843
2531,11.87362766
2532,8.44647217
2533,7.159931851
2534,9.6496603
2535,12.77641287
2536,8.652512074
2537,1.734785676
2538,9.035930349
2539,12.27530823
2540,3.955694151
2541,-1.454632367
2542,-2.612516177
2543,3.580434156
2544,7.546924543
2545,1.540203261
2546,-9.570541332
2547,-0.220739403
2548,-2.708770323
2549,9.053800964
2550,10.93404188
2551,5.816448516
2552,4.671846962
2553,7.165367866
2554,11.46442175
2555,6.270527387
2556,3.387542081
2557,7.288650321
2558,13.50794583
2559,6.340149516
2560,9.470471907
2561,1.725301915
2562,3.135905493
2563,2.261197639
2564,-12.17218247
2565,-8.829143284
2566,-0.179133535
2567,7.988938154
2568,12.20493879
2569,12.52041054
2570,10.27704706
2571,5.887979556
2572,-0.149358785
2573,9.056061841
2574,-1.728767872
2575,-8.803436687
2576,2.29667474
2577,2.803765988
2578,-6.781617404
2579,-6.090689849
2580,0.820262003
2581,-13.49021158
2582,-30.79448357
2583,-4.520196259
2584,1.044468331
2585,-39.03238869
2586,-10.89480228
2587,3.570404935
2588,-1.134656286
2589,4.17980904
2590,-11.89744568
2591,-18.15714779
2592,1.678821397
2593,5.652488708
2594,3.795431387
2595,7.095819474
2596,7.50950265
2597,3.098746872
2598,6.597775841
2599,-1.491395891
2600,-4.641373563
2601,-5.383539963
2602,-7.272733808
2603,7.848243036
2604,8.869452191
2605,4.692788816
2606,6.172095121
2607,0.339846945
2608,-0.664389587
2609,16.45347309
2610,-2.186919306
2611,-0.137804145
2612,1.769557422
2613,-1.462457013
2614,1.69074378
2615,4.044051448
2616,-9.01391158
2617,6.225163507
2618,-2.237019634
2619,-0.703526404
2620,-7.031099223
2621,-7.303426027
2622,0.932413092
2623,-2.347712007
2624,-28.63093033
2625,-3.696283615
2626,-1.683686316
2627,1.761088729
2628,3.696815848
2629,-10.58209181
2630,-32.98406906
2631,7.276700111
2632,-26.52167282
2633,-11.42923432
2634,-2.538706593
2635,-0.166752172
2636,-5.20213526
2637,-15.10981998
2638,-4.800914866
2639,-2.032863092
2640,4.382875395
2641,5.868296134
2642,4.015821672
2643,4.200417328
2644,-1.734918093
2645,-23.30103474
2646,0.824763679
2647,2.379196525
2648,2.892279232
2649,3.599797821
2650,2.028950314
2651,-16.75283127
2652,-43.42735672
2653,-21.13284988
2654,-7.36900754
2655,-7.258322143
2656,-5.176387047
2657,0.224609995
2658,2.455898499
2659,-2.696038353
2660,-9.529680538
2661,-3.975678516
2662,-3.625905848
2663,-0.0355425
2664,-3.312265873
2665,-0.599335645
2666,5.797704411
2667,0.179215717
2668,-15.6178236
2669,1.697594875
2670,-15.1550293
2671,-11.75169983
2672,-28.63974037
2673,-15.85264892
2674,-1.568609977
2675,-0.773908424
2676,-0.078148436
2677,-4.782638062
2678,5.790051365
2679,2.543893191
2680,-11.27808604
2681,-11.15054865
2682,-2.77833851
2683,3.151919174
2684,3.666630191
2685,2.217516154
2686,-0.957104218
2687,-3.96561687
2688,-14.97593784
2689,-14.17048645
2690,1.19896574
2691,1.885176516
2692,-0.67696867
2693,4.132175565
2694,-20.55159721
2695,-15.01970348
2696,-8.621315001
2697,-11.8534483
2698,-13.63077765
2699,-8.643343734
2700,0.493053746
2701,-4.500844264
2702,-23.24363289
2703,-16.70462761
2704,14.64405651
2705,-3.027101231
2706,2.847548974
2707,-13.23645849
2708,-16.65797272
2709,-11.67364225
2710,-17.54907627
2711,-22.68356781
2712,-194.7816391
2713,-924.2283631
2714,-55.88377991
2715,-10.12239389
2716,-8.994108677
2717,-7.239679766
2718,-2.340349245
2719,-6.654463053
2720,-11.64639874
2721,-4.505475783
2722,-106.0303436
2723,-594.6469788
2724,-50.66933899
2725,-2.761969852
2726,-7.042996216
2727,-3.67196157
2728,-5.177705038
2729,-11.08136797
2730,-15.91023426
2731,-16.31434917
2732,-9.486120987
2733,-8.584994698
2734,-4.603204723
2735,-1.885884859
2736,-49.26149826
2737,-51.65423355
2738,-15.14948807
2739,0.341653633
2740,-3.775339739
2741,-10.99680405
2742,-17.26842842
2743,2.410564864
2744,-0.541551065
2745,0.186267531
2746,-0.514465046
2747,-26.32043343
2748,-18.87427406
2749,-14.40229721
2750,-17.47676125
2751,-21.40341568
2752,-27.09170036
2753,-25.55421143
2754,-23.60792923
2755,-91.33186798
2756,-17.45476494
2757,-20.01702232
2758,-9.997691536
2759,-10.34528637
2760,-7.177467108
2761,-16.19022903
2762,-18.85251084
2763,-9.038343716
2764,-5.60905596
2765,-15.47597542
2766,-20.91533165
2767,-9.881170464
2768,0.561126459
2769,-6.802286291
2770,-7.896937608
2771,-1.184480834
2772,-11.68556595
2773,-13.29021616
2774,-10.05801115
2775,-12.08654633
2776,-14.66950645
2777,-10.3016675
2778,-2.379438901
2779,0.017404513
2780,-4.4592628
2781,3.08456682
2782,-12.6619297
2783,-5.27351942
2784,-12.46700859
2785,0.509989548
2786,4.334370506
2787,5.146277905
2788,2.219881499
2789,-3.03126142
2790,-5.612812424
2791,-6.098657608
2792,-4.267633343
2793,-2.631288332
2794,-5.236042622
2795,-2.411614251
2796,-7.447707748
2797,-8.504881764
2798,-9.10305195
2799,-7.96414013
2800,-14.95134392
2801,-9.272028925
2802,-5.669665707
2803,-7.831043672
2804,-7.203178311
2805,-21.1319849
2806,-33.81069717
2807,-10.66783743
2808,-18.97849197
2809,-7.484097982
2810,-16.03566933
2811,-6.984540828
2812,-17.88805408
2813,-10.69188337
2814,-16.83229885
2815,-18.82281952
2816,-8.339098358
2817,-4.995118713
2818,-3.341884363
2819,-2.438815296
2820,-4.571820177
2821,-10.41384949
2822,-10.1916934
2823,-2.703634572
2824,-6.919920158
2825,-10.21741734
2826,-11.00400142
2827,-28.13782311
2828,-17.8722208
2829,-15.82837448
2830,-20.38030777
2831,-9.402556897
2832,-19.96139221
2833,-28.09517593
2834,-20.12245598
2835,-22.20103683
2836,-17.07556267
2837,-7.023280381
2838,-3.111524534
2839,-7.077167034
2840,-9.040015124
2841,-7.000000095
2842,-16.33822937
2843,-23.94561653
2844,-12.50909805
2845,-29.03464623
2846,-31.44672623
2847,-16.1937335
2848,-15.52051544
2849,-19.87730866
2850,-17.72933102
2851,-4.122876191
2852,-15.21855125
2853,-14.38880997
2854,-2.404607397
2855,-8.548465157
2856,-14.12206211
2857,-36.85275726
2858,-29.94151879
2859,-12.24741764
2860,-11.25566711
2861,-20.17195835
2862,-12.98229427
2863,-20.93426285
2864,-28.0459774
2865,-11.43343449
2866,-4.21495614
2867,-4.429386759
2868,-3.071701693
2869,-4.641833067
2870,-5.029386854
2871,-3.759809017
2872,-18.17107048
2873,-21.9961895
2874,-4.898138106
2875,-6.691544818
2876,-38.09957886
2877,2.448937166
2878,-0.473560906
2879,-16.19525757
2880,-10.7514266
2881,-24.97246361
2882,-10.73432694
2883,-9.578440952
2884,-25.71238441
2885,-18.44677964
2886,-24.92134743
2887,-11.44822941
2888,-14.15246067
2889,-8.910673331
2890,-9.715588379
2891,-19.6581646
2892,-15.69147568
2893,-16.84420376
2894,-18.51303444
2895,-29.40107002
2896,-22.72697487
2897,-13.77325802
2898,-9.545208262
2899,-18.65239792
2900,-18.52106514
2901,-9.299322796
2902,-13.30249596
2903,-17.50460339
2904,-32.8527153
2905,-31.39458008
2906,-8.572947885
2907,-13.91885586
2908,-20.33607407
2909,-22.40213204
2910,-21.58435402
2911,-18.75042076
2912,-17.64132023
2913,-11.7186739
2914,-13.22065124
2915,-20.9609314
2916,-7.330446052
2917,-19.93599701
2918,-33.14814606
2919,-14.7189106
2920,-30.63826675
2921,-24.28638153
2922,-8.838125514
2923,-10.81532402
2924,-12.98433819
2925,-14.40885735
2926,-13.99613628
2927,-5.305265689
2928,-16.46279411
2929,-20.57981262
2930,-15.67666912
2931,-7.727314758
2932,-15.59853191
2933,-13.95962009
2934,-2.74828186
2935,-1.419268966
2936,-17.00535564
2937,-15.49824409
2938,-14.7921175
2939,-21.39632759
2940,-10.16845818
2941,-5.647029781
2942,-10.3960515
2943,-9.7658154
2944,-11.37104731
2945,-14.82765427
2946,-14.33216457
2947,-16.83062019
2948,-22.45740013
2949,-15.19337711
2950,-9.038808918
2951,-16.08565426
2952,-10.63599453
2953,-10.99572182
2954,-19.01529961
2955,-25.01059799
2956,-21.55982895
2957,-36.104562
2958,-19.47317352
2959,-18.1773571
2960,-22.54154244
2961,-22.98757744
2962,-18.63589706
2963,-9.05990696
2964,-3.652950418
2965,-13.41080856
2966,-21.87924118
2967,-12.19163303
2968,-16.84711895
2969,-16.85301056
2970,-11.21660213
2971,-26.93682365
2972,-29.12886505
2973,-15.4029892
2974,-22.39867401
2975,-31.28177872
2976,-23.54845276
2977,-18.82231216
2978,-23.54232788
2979,-21.86473999
2980,-16.27771854
2981,-9.757505417
2982,-16.91984787
2983,-13.51788025
2984,-8.10840788
2985,-4.612435532
2986,-8.503796959
2987,-15.24786778
2988,-13.36337109
2989,-7.336706161
2990,-19.03228531
2991,-25.03248405
2992,-18.61626968
2993,-41.17337189
2994,-40.26749573
2995,-38.80831451
2996,-13.13244553
2997,-28.6905983
2998,-43.61189117
2999,-41.34935761
3000,-17.06341209
