Frequency,Density
0,96
1,96
2,96
3,96
4,96
5,96
6,96
7,96
8,96
9,96
10,96
11,96
12,96
13,96
14,96
15,96
16,96
17,96
18,96
19,96
20,96
21,96
22,96
23,96
24,96
25,96
26,96
27,96
28,96
29,96
30,96
31,96
32,96
33,96
34,96
35,96
36,96
37,96
38,96
39,96
40,96
41,96
42,96
43,96
44,96
45,96
46,96
47,96
48,96
49,96
50,96
51,96
52,96
53,96
54,96
55,96
56,96
57,96
58,96
59,96
60,96
61,96
62,96
63,96
64,96
65,96
66,96
67,96
68,96
69,96
70,96
71,96
72,96
73,96
74,96
75,96
76,96
77,96
78,96
79,96
80,96
81,96
82,96
83,96
84,96
85,96
86,96
87,96
88,96
89,96
90,96
91,96
92,96
93,96
94,96
95,96
96,96
97,96
98,96
99,96
100,96
101,96
102,96
103,96
104,96
105,96
106,96
107,96
108,96
109,96
110,96
111,96
112,96
113,96
114,96
115,96
116,96
117,96
118,96
119,96
120,96
121,96
122,96
123,96
124,96
125,96
126,96
127,96
128,96
129,96
130,96
131,96
132,96
133,96
134,96
135,96
136,96
137,96
138,96
139,96
140,96
141,96
142,96
143,96
144,96
145,96
146,96
147,96
148,96
149,96
150,96
151,96
152,96
153,96
154,96
155,96
156,96
157,96
158,96
159,96
160,96
161,96
162,96
163,96
164,96
165,96
166,96
167,96
168,96
169,96
170,96
171,96
172,96
173,96
174,96
175,96
176,96
177,96
178,96
179,96
180,96
181,96
182,96
183,96
184,96
185,96
186,96
187,96
188,96
189,96
190,96
191,96
192,96
193,96
194,96
195,96
196,96
197,96
198,96
199,110.0070984
200,159.0235138
201,208.0399261
202,224.4518219
203,227.0861633
204,228.8623688
205,224.4433777
206,220.0243836
207,219.3871674
208,221.9470306
209,224.506897
210,223.0293152
211,221.399353
212,220.6704193
213,221.3693878
214,222.0683502
215,220.244751
216,217.8357849
217,216.647522
218,219.3689209
219,222.0903259
220,222.3266785
221,221.3152802
222,220.6589417
223,223.3835419
224,226.1081421
225,224.9014618
226,220.1500794
227,215.3986939
228,219.0832611
229,223.1359985
230,223.0932007
231,216.6985809
232,210.3039612
233,206.2948791
234,202.7835724
235,200.3856567
236,201.0883301
237,201.7910034
238,200.7376373
239,198.9408539
240,196.7987824
241,192.5777802
242,188.3567719
243,188.5177582
244,191.8026947
245,194.9164917
246,191.786145
247,188.6557892
248,186.557373
249,185.6177155
250,184.6780579
251,186.6115845
252,188.8054108
253,188.172171
254,182.6059815
255,177.039798
256,176.3827332
257,176.8533966
258,177.5930695
259,179.0843659
260,180.5756622
261,180.7752441
262,180.4611023
263,180.226532
264,180.3837006
265,180.54086
266,179.3739685
267,177.4082672
268,175.6378052
269,176.1098511
270,176.5818939
271,177.0964356
272,177.6474823
273,178.198526
274,179.1426727
275,180.0878754
276,180.4194427
277,180.0253784
278,179.631311
279,180.3259338
280,181.1145294
281,181.5696686
282,181.4907654
283,181.4118591
284,181.6683502
285,181.9841583
286,181.8749054
287,180.8479187
288,179.8209289
289,181.0269409
290,182.8449829
291,185.1266022
292,188.7648346
293,192.4030701
294,194.951239
295,197.0879822
296,198.2963257
297,195.7624024
298,193.228476
299,191.0668304
300,189.0860321
301,188.0252563
302,192.2270111
303,196.428772
304,198.4469574
305,199.1608826
306,200.2574402
307,204.6228912
308,208.9883423
309,207.6407196
310,202.2402496
311,196.9826813
312,193.7246033
313,190.4665222
314,185.9394379
315,180.373587
316,174.9450348
317,173.3538513
318,171.7626678
319,167.9741547
320,162.1629273
321,156.4483398
322,162.2629913
323,168.0776489
324,170.8414246
325,170.5226257
326,170.2038269
327,170.9878967
328,171.7853607
329,171.7020264
330,170.6647125
331,169.6273896
332,171.5433105
333,173.539328
334,174.2256409
335,173.4267639
336,172.6278839
337,171.8285523
338,171.0292053
339,170.0814972
340,168.9617523
341,167.8420044
342,169.1094604
343,170.4699585
344,171.8308228
345,173.1921203
346,174.5534118
347,175.6833405
348,176.805069
349,178.7930695
350,181.7593841
351,184.7256989
352,177.9958557
353,171.0168976
354,167.1293304
355,166.5674713
356,166.0056183
357,164.0122559
358,162.0044433
359,159.3133484
360,155.9382324
361,152.6456909
362,156.8268646
363,161.0080475
364,163.1263733
365,163.3677399
366,163.5362335
367,161.845694
368,160.1551514
369,159.7565491
370,160.400946
371,161.1361145
372,163.0704437
373,165.0047699
374,164.8976807
375,163.3654327
376,162.026355
377,162.2684326
378,162.5105072
379,159.3938415
380,154.3072388
381,150.1114014
382,150.8384888
383,151.5655762
384,151.1975067
385,150.308316
386,149.6987122
387,150.1840118
388,150.6693054
389,151.687027
390,152.9009796
391,154.2411743
392,155.9417175
393,157.6422577
394,157.9360229
395,157.8549927
396,158.7377167
397,161.6563721
398,164.5750244
399,166.5248139
400,168.3094879
401,169.5894287
402,170.0764465
403,170.5634613
404,168.7970276
405,166.8478149
406,166.7395172
407,168.7711456
408,170.8135559
409,180.7337647
410,190.6539703
411,198.4616669
412,204.4823944
413,210.1020416
414,211.3231811
415,212.5443207
416,209.6810638
417,204.3863464
418,198.6855835
419,191.0240845
420,183.3625885
421,175.8734497
422,168.4520874
423,163.0649597
424,163.3097656
425,163.5545685
426,161.2061127
427,158.2667236
428,156.9366486
429,158.4072083
430,159.8777741
431,158.4260132
432,156.7093414
433,156.4923981
434,157.9646973
435,159.3794311
436,158.5610108
437,157.7425812
438,154.876532
439,150.5363098
440,147.1192383
441,149.4135376
442,151.7078369
443,148.7930603
444,143.627829
445,140.6283997
446,143.8278046
447,147.0272156
448,146.9934998
449,146.2547333
450,145.0737365
451,143.1846741
452,141.2956131
453,139.951651
454,138.6367462
455,138.7209686
456,140.1188782
457,141.4824921
458,142.4698334
459,143.4571747
460,142.7251648
461,141.0786194
462,140.0761047
463,141.3117432
464,142.5473816
465,141.4229614
466,139.6920471
467,138.2042786
468,137.1321228
469,136.0599747
470,133.7407333
471,131.3475952
472,131.7470947
473,134.7196381
474,137.2619446
475,135.8574143
476,134.4528809
477,132.2076065
478,129.5622192
479,127.5786407
480,127.4959198
481,127.4132034
482,128.8606232
483,130.5987122
484,133.6361633
485,138.4394257
486,143.1565491
487,138.2675858
488,133.378624
489,132.1403519
490,133.3840454
491,134.2328949
492,133.320314
493,132.4077392
494,131.8794281
495,131.4643738
496,131.1095382
497,130.8603622
498,130.6111816
499,131.8700836
500,133.199823
501,135.0318695
502,137.2771362
503,138.6623443
504,134.9180191
505,131.1736954
506,128.72146
507,126.7233093
508,126.1033814
509,128.1860153
510,130.2686585
511,131.3371765
512,132.3374344
513,131.0963058
514,127.9269486
515,125.0369125
516,123.8685654
517,122.7002182
518,125.9986679
519,130.8418213
520,133.6511749
521,132.6485535
522,131.6459244
523,132.796582
524,134.0506012
525,133.1899216
526,130.6803924
527,129.0007645
528,131.3443726
529,133.6879837
530,135.7708679
531,137.7808609
532,137.7800369
533,134.6794571
534,131.604567
535,132.2753601
536,132.9461502
537,131.0619003
538,127.6220596
539,125.2794068
540,126.4546799
541,127.6299545
542,128.7339783
543,129.8259506
544,130.5195923
545,130.77173
546,131.1513061
547,132.7491486
548,134.3469955
549,132.2678024
550,128.7336334
551,125.9423843
552,124.5952332
553,123.2480865
554,125.3122177
555,127.502626
556,128.8976135
557,129.7405823
558,130.6020126
559,131.5298248
560,132.4576324
561,131.4568664
562,130.1065277
563,128.9168579
564,127.9035049
565,127.0641144
566,127.6555878
567,128.2470596
568,129.2775803
569,130.4612259
570,130.3415268
571,128.0574402
572,125.7930862
573,125.2005631
574,124.6080429
575,124.1801681
576,123.8413818
577,123.1370636
578,121.5268845
579,119.9167084
580,119.6426987
581,119.4731064
582,119.013826
583,118.335054
584,117.9078507
585,118.4172333
586,118.9266144
587,121.035846
588,123.4143646
589,124.6426285
590,124.727623
591,124.5473969
592,122.8464447
593,121.1454925
594,121.8850098
595,123.246579
596,122.8590546
597,120.3046021
598,118.025
599,118.2805954
600,118.5361939
601,118.5360336
602,118.4507828
603,119.6070053
604,122.5924942
605,125.2524429
606,122.7772873
607,120.3021378
608,119.5388245
609,119.4534226
610,120.1678787
611,122.2187103
612,124.1333206
613,122.1667786
614,120.2002365
615,120.1349564
616,120.9049286
617,122.3168762
618,124.8849701
619,127.4318527
620,128.9736206
621,130.5153915
622,127.8266479
623,123.1986069
624,119.4451843
625,117.3013031
626,115.234082
627,116.9502029
628,118.6663223
629,120.1465134
630,121.520224
631,122.1219986
632,121.3488281
633,120.7813003
634,126.5405213
635,132.2997436
636,133.3332107
637,132.3871063
638,130.0692474
639,125.5080444
640,121.3624985
641,124.2902832
642,127.2180664
643,128.5052063
644,129.1945053
645,128.819075
646,126.9223831
647,124.7481033
648,119.8310272
649,114.9139511
650,116.8042419
651,120.6884445
652,122.4058441
653,121.5421783
654,120.617659
655,119.3213913
656,118.0251236
657,120.0150116
658,122.6955536
659,121.9568451
660,117.9769119
661,115.1318802
662,116.776741
663,118.4216003
664,119.1405945
665,119.7469528
666,120.2525162
667,120.6858887
668,121.1193283
669,121.5529587
670,121.9865845
671,119.5613281
672,117.0447952
673,118.449527
674,121.8358292
675,122.0246124
676,116.5511841
677,111.5740112
678,114.5296753
679,117.4853363
680,117.6723938
681,116.976532
682,116.0807785
683,114.9493317
684,114.7148697
685,119.1562485
686,123.5976319
687,124.8778747
688,125.6621094
689,125.6030121
690,124.9054962
691,123.1991821
692,118.8371368
693,114.4750931
694,116.5447464
695,118.7270599
696,116.6815201
697,112.7510269
698,110.7512009
699,111.6251617
700,112.4495911
701,112.8868286
702,113.3240692
703,114.5568725
704,115.9568695
705,115.7953537
706,114.3069778
707,113.4469345
708,114.4105713
709,115.3742096
710,113.7791199
711,112.1136673
712,111.6606567
713,111.7483643
714,111.0781509
715,109.3229645
716,108.6945953
717,115.4560761
718,122.2175552
719,119.7455414
720,115.7038208
721,113.2880447
722,112.0572266
723,111.2534027
724,111.4293381
725,111.5551529
726,110.058815
727,108.5624786
728,107.6661026
729,106.961525
730,106.6
731,106.6
732,106.4466675
733,105.7412521
734,105.0358429
735,105.0000015
736,105
737,105.1807175
738,105.4455612
739,107.2202377
740,111.1069122
741,114.3730042
742,114.1962311
743,114.019458
744,112.7407516
745,111.3257385
746,111.0224518
747,111.376413
748,111.5347717
749,111.3576874
750,111.4523544
751,113.7558441
752,116.0593353
753,114.2093964
754,111.6385941
755,108.8025528
756,105.7867218
757,105.5565857
758,110.7042908
759,115.3454163
760,114.7237732
761,114.1021301
762,118.3070969
763,123.4609131
764,120.5031296
765,111.7897919
766,104.8657089
767,101.4850647
768,99.03042909
769,106.2408188
770,113.4512054
771,112.6531494
772,110.3373322
773,107.3840912
774,103.9974258
775,102.4576019
776,104.3302917
777,105.806572
778,104.0220017
779,102.2374283
780,107.5730179
781,114.0012879
782,117.3519882
783,118.8706741
784,118.5858887
785,115.4573273
786,112.5440353
787,110.844664
788,109.1452942
789,105.2352661
790,101.1185608
791,100.4695206
792,101.4545318
793,103.2394592
794,106.0170532
795,108.0848373
796,107.5469193
797,107.0090012
798,105.2358994
799,103.4417725
800,106.2475708
801,110.5560257
802,115.668306
803,121.506134
804,123.2643844
805,115.4460388
806,108.7002472
807,115.5341217
808,122.3679977
809,118.8168549
810,113.4184891
811,109.8781525
812,107.4474457
813,105.344104
814,103.7226715
815,102.5162537
816,103.1471848
817,103.7781189
818,105.8023514
819,107.8766419
820,107.5903381
821,106.507457
822,106.4318268
823,107.2444671
824,106.7995255
825,103.6373703
826,101.2456848
827,105.5849289
828,109.9241745
829,109.0308929
830,107.4931656
831,106.6925949
832,106.2400513
833,106
834,106
835,105.9053543
836,105.542891
837,105.1559387
838,104.3399094
839,103.5238846
840,105.7085098
841,108.4302139
842,107.7054749
843,105.072934
844,104.0401123
845,105.0392563
846,106.5806793
847,109.8525452
848,113.0414948
849,114.1327637
850,115.2240326
851,113.6446289
852,111.5517883
853,107.4162018
854,102.1354675
855,100.9802246
856,104.9886765
857,108.0453507
858,108.2276626
859,108.1455551
860,103.4938736
861,98.84219209
862,104.493129
863,111.7942169
864,110.0365189
865,103.8269089
866,101.4777878
867,103.3052277
868,105.4527756
869,108.378418
870,110.9144333
871,110.0911072
872,109.2677826
873,104.7480438
874,99.89669342
875,101.015921
876,104.3131363
877,106.2528564
878,107.0776504
879,104.6410248
880,96.57158813
881,90.74936981
882,94.78648528
883,98.80160979
884,99.07703096
885,99.3524536
886,97.95594331
887,96.21056976
888,100.2614227
889,107.4308868
890,108.4519302
891,102.6577698
892,99.89617159
893,104.2213684
894,107.2785736
895,101.569606
896,95.86063843
897,99.82056427
898,104.2430374
899,104.6220734
900,103.8845551
901,105.7528397
902,109.2581238
903,110.3766663
904,108.5306824
905,106.0141083
906,101.7658264
907,98.11543731
908,99.13193511
909,100.1484314
910,98.18122253
911,96.05455781
912,96.40017854
913,97.41788635
914,99.36101075
915,101.8604996
916,103.7158554
917,104.8274002
918,105.3173798
919,104.3905426
920,103.4908996
921,102.7489899
922,102.0070801
923,100.0699264
924,98.12125702
925,98.34279327
926,98.99273834
927,98.82033538
928,98.26291047
929,97.36150513
930,96.15303648
931,94.94429169
932,93.73510284
933,94.95181276
934,104.4449387
935,112.7004273
936,106.2747879
937,99.84914858
938,99.57333373
939,99.75969543
940,97.53477935
941,94.64446565
942,93.12336883
943,92.3770401
944,92.83139953
945,94.51163939
946,94.87615968
947,92.82131196
948,91.41689606
949,92.44493256
950,93.18096924
951,90.09503021
952,87.00909271
953,90.20192871
954,93.8511139
955,91.99562073
956,88.71876526
957,89.82106934
958,93.19355316
959,94.1618866
960,92.94332123
961,91.65131684
962,90.24444123
963,89.56264343
964,90.97035523
965,91.72488556
966,87.96876373
967,84.21264343
968,87.47748871
969,90.76604766
970,92.1793045
971,93.3074829
972,92.69416809
973,91.47124939
974,93.02492219
975,96.31934966
976,97.49251251
977,96.45650482
978,95.0060257
979,92.83854066
980,91.52215881
981,92.84227598
982,93.66340027
983,90.92723236
984,88.19753571
985,87.44228363
986,86.6870285
987,89.10732423
988,91.94120635
989,91.87453919
990,90.92935181
991,89.86055756
992,88.72565766
993,89.01280823
994,90.52690735
995,90.63834992
996,88.8392868
997,87.86531525
998,88.71800995
999,90.17811279
1000,94.06491699
1001,97.14506225
1002,92.11766663
1003,87.09027405
1004,86.34754029
1005,85.68314972
1006,84.68607941
1007,83.64141693
1008,83.4
1009,83.4
1010,84.0315506
1011,84.98237152
1012,84.86648865
1013,83.9151001
1014,83.70558319
1015,84.37195129
1016,85.75384216
1017,88.42089538
1018,88.90035706
1019,83.08653412
1020,79.75147858
1021,89.4787384
1022,98.29682159
1023,93.4303009
1024,88.56378021
1025,88.12320252
1026,87.83676758
1027,85.88473663
1028,83.6874176
1029,82.97683868
1030,82.69006042
1031,83.3873352
1032,84.53512268
1033,83.17781525
1034,80.11522217
1035,81.79334717
1036,88.11369934
1037,89.76338654
1038,84.87657318
1039,82.26343384
1040,84.27684784
1041,85.63648224
1042,84.96494599
1043,84.27810821
1044,83.51018066
1045,83.11779175
1046,87.34390259
1047,91.57001647
1048,88.06934204
1049,84.51345215
1050,90.6010437
1051,97.62088775
1052,92.39539186
1053,84.6978363
1054,83.81555328
1055,85.16342774
1056,84.16710358
1057,82.04776001
1058,80.62166138
1059,79.65774994
1060,78.03513641
1061,75.81682129
1062,77.95482788
1063,85.38578186
1064,87.58421936
1065,81.21104431
1066,78.01962433
1067,81.981073
1068,85.50604401
1069,87.63296356
1070,88.97442932
1071,86.45930328
1072,82.95950622
1073,70.76356506
1074,59.45666962
1075,72.33781815
1076,85.2189682
1077,86.54041748
1078,87.50950165
1079,85.1385025
1080,82.42345276
1081,84.78430634
1082,88.08310699
1083,89.93975525
1084,91.39597779
1085,89.06266022
1086,85.27423553
1087,82.9034195
1088,81.25107269
1089,79.59812927
1090,77.94480133
1091,76.77220307
1092,75.9937027
1093,75.64812775
1094,75.74549866
1095,77.04394302
1096,79.8693634
1097,80.80675354
1098,78.75954132
1099,79.00551758
1100,83.78518219
1101,85.61137085
1102,80.04804382
1103,76.14633331
1104,77.61123657
1105,78.89210205
1106,79.3806961
1107,79.77226868
1108,79.57671509
1109,79.258638
1110,77.79111786
1111,76.53760376
1112,79.18071137
1113,81.77793274
1114,79.32915649
1115,76.8803772
1116,81.35003052
1117,86.05447846
1118,82.22020874
1119,77.70909882
1120,82.07491608
1121,87.56996918
1122,83.73220062
1123,78.23387756
1124,82.14571838
1125,88.23676911
1126,82.27515411
1127,72.83824158
1128,71.275354
1129,72.45567017
1130,76.14593353
1131,80.87000122
1132,79.73668823
1133,75.79761963
1134,74.84501953
1135,75.5347641
1136,74.10094299
1137,71.34031525
1138,71.30015259
1139,73.17454986
1140,74.38668365
1141,75.07766266
1142,75.4526947
1143,75.55146561
1144,77.20845185
1145,80.37096863
1146,79.506604
1147,74.36445465
1148,72.97256241
1149,75.94094849
1150,75.7658371
1151,71.60762024
1152,71.45210419
1153,76.80156097
1154,79.88042755
1155,79.58305969
1156,78.48497772
1157,76.10461273
1158,74.05232696
1159,72.56371308
1160,71.45994339
1161,71.06274414
1162,71.43904419
1163,73.32686539
1164,74.72948608
1165,75.12715759
1166,75.52490387
1167,75.92281342
1168,75.56583405
1169,73.47556839
1170,72.02928772
1171,72.12888336
1172,73.48236084
1173,77.96682892
1174,80.14272003
1175,76.35358124
1176,73.24552002
1177,71.94846573
1178,71.05366135
1179,71.25332565
1180,73.01722717
1181,79.11065521
1182,82.91588745
1183,80.31714478
1184,77.58684387
1185,74.48650208
1186,71.8585083
1187,70.55758972
1188,70.33991089
1189,73.14355392
1190,75.30680542
1191,75.70756378
1192,75.4038681
1193,73.19838562
1194,71.76566925
1195,72.36752319
1196,72.43279724
1197,71.12800751
1198,70.1129982
1199,69.81171265
1200,69.06225052
1201,67.25346756
1202,66.6173851
1203,68.62834015
1204,70.44777222
1205,71.85627747
1206,73.79655762
1207,76.81658173
1208,77.07130127
1209,72.03493576
1210,70.53040161
1211,75.36818848
1212,76.32942657
1213,70.78283157
1214,67.95110397
1215,69.3638031
1216,71.47730255
1217,74.60728455
1218,74.50081635
1219,70.05561905
1220,69.63600769
1221,74.18493652
1222,74.03783646
1223,68.57587509
1224,66.94475479
1225,69.27253036
1226,70.03447342
1227,69.32559738
1228,70.31487274
1229,72.7467453
1230,74.31728974
1231,75.22978211
1232,74.45450897
1233,72.52698365
1234,72.11611939
1235,72.62366333
1236,71.14296875
1237,68.60373688
1238,69.53652954
1239,72.07727203
1240,73.52763977
1241,74.54454193
1242,77.16187897
1243,80.31615143
1244,76.05621948
1245,69.74392319
1246,68.26635895
1247,67.85887299
1248,68.06161804
1249,68.36741486
1250,70.40474167
1251,72.64858704
1252,71.75316162
1253,70.63057175
1254,67.81866303
1255,65.02028198
1256,66.45073395
1257,67.82321091
1258,68.23215332
1259,68.85700302
1260,71.41441956
1261,73.51070709
1262,72.89656219
1263,72.20391388
1264,71.17972717
1265,70.05755615
1266,68.62284775
1267,67.04071121
1268,65.09244614
1269,64.31805725
1270,65.85707702
1271,67.15786972
1272,68.08182983
1273,70.5399292
1274,74.95702972
1275,75.78344269
1276,72.90548096
1277,73.96012421
1278,78.27963715
1279,75.9131958
1280,69.12135315
1281,65.98670044
1282,64.75108643
1283,68.30899201
1284,73.7695343
1285,67.013974
1286,56.70493469
1287,60.2516243
1288,66.54387741
1289,70.25086975
1290,73.65689697
1291,72.41490555
1292,71.004422
1293,71.21109543
1294,71.61331711
1295,74.09485092
1296,74.28557129
1297,61.66360092
1298,53.54197464
1299,61.51303787
1300,66.90318604
1301,65.86736832
1302,65.2
1303,65.2
1304,65.95106125
1305,67.71404724
1306,68.13541183
1307,67.20151062
1308,67.27351685
1309,68.10414505
1310,67.59736481
1311,66.35068131
1312,68.16662292
1313,71.18123017
1314,70.06405182
1315,67.87976227
1316,68.14447556
1317,68.76892853
1318,67.51357574
1319,66.18142929
1320,65.55623169
1321,65.41403122
1322,69.1674408
1323,71.37854385
1324,67.10128402
1325,64.28699417
1326,65.33084793
1327,67.68716202
1328,72.38729858
1329,72.07585296
1330,65.49174881
1331,61.01332016
1332,58.39902802
1333,57.07675476
1334,56.55358505
1335,58.69278336
1336,61.93836365
1337,63.85103912
1338,65.42241211
1339,65.97189712
1340,66.39118042
1341,66.81070633
1342,68.16821823
1343,81.60121613
1344,90.52952881
1345,76.87852631
1346,69.05474854
1347,77.67049866
1348,81.50532074
1349,76.77435455
1350,72.61754456
1351,69.14610596
1352,66.37406159
1353,64.16364975
1354,62.4349205
1355,60.96043777
1356,58.9279396
1357,56.71490021
1358,59.47500305
1359,63.06014862
1360,60.76658096
1361,58.60023422
1362,61.66178894
1363,63.69440231
1364,60.73666153
1365,59.12815094
1366,61.03068466
1367,63.09669113
1368,65.42339478
1369,63.25227585
1370,56.47966309
1371,57.12749787
1372,62.63351669
1373,65.26127548
1374,66.74454651
1375,62.52458191
1376,57.11802597
1377,56.10115967
1378,55.4295578
1379,55.96024322
1380,56.34541092
1381,56.02681045
1382,57.11643219
1383,61.68574677
1384,63.70933304
1385,62.0081131
1386,61.75852279
1387,62.82241821
1388,62.85663986
1389,62.32437592
1390,61.22048721
1391,59.9422966
1392,61.69428482
1393,63.78964615
1394,62.93650513
1395,62.33129425
1396,63.29164658
1397,63.15949707
1398,59.9564148
1399,57.5010376
1400,56.21904297
1401,57.42419815
1402,60.95177612
1403,58.1223671
1404,51.81173477
1405,56.38186416
1406,64.08755035
1407,59.55195694
1408,54.1026123
1409,56.67422638
1410,59.24610672
1411,61.81924973
1412,57.05887832
1413,35.81783638
1414,32.38115959
1415,51.27330322
1416,59.32468109
1417,59.5394928
1418,57.3612709
1419,54.24466095
1420,54.99848175
1421,56.39641342
1422,58.97570343
1423,60.40887451
1424,54.702845
1425,52.02253952
1426,57.08561249
1427,59.08512421
1428,56.92934494
1429,57.34987717
1430,59.72264252
1431,62.01930542
1432,64.28556366
1433,60.41504288
1434,55.64903946
1435,61.0513031
1436,64.7459259
1437,59.34045334
1438,55.79992065
1439,56.44896317
1440,58.14181976
1441,61.06424255
1442,60.94196777
1443,58.88422775
1444,47.8760498
1445,34.11349869
1446,44.85930023
1447,56.74334411
1448,55.9838768
1449,55.19920654
1450,54.33072891
1451,56.25013733
1452,62.55034104
1453,62.12598877
1454,56.14810791
1455,57.32412338
1456,61.45674591
1457,59.73168259
1458,57.12333908
1459,54.61904221
1460,52.97998962
1461,54.94103775
1462,56.74639206
1463,58.27255707
1464,59.11417084
1465,59.33232346
1466,57.3673523
1467,54.42053604
1468,39.58229523
1469,23.72058563
1470,43.82644424
1471,59.59370575
1472,57.51632462
1473,54.23610992
1474,48.87547302
1475,47.46048508
1476,49.43086853
1477,50.07789307
1478,50.18742371
1479,53.01336212
1480,55.83469696
1481,53.09317627
1482,50.84430542
1483,50.18594971
1484,51.29912033
1485,54.92222443
1486,56.59514542
1487,56.92471466
1488,56.57594376
1489,56.02633667
1490,54.21982422
1491,52.11451721
1492,48.48280258
1493,47.21926727
1494,51.07337188
1495,51.67751847
1496,49.03313522
1497,47.52037888
1498,46.52814636
1499,53.0285881
1500,59.81059112
1501,53.07747727
1502,48.38020859
1503,49.92642975
1504,50.70384979
1505,50.48282928
1506,51.43704071
1507,53.0956749
1508,49.15398331
1509,44.02259827
1510,46.56885681
1511,48.51036148
1512,48.06727219
1513,47.88796158
1514,48.10963821
1515,50.10518875
1516,53.32140503
1517,51.28575973
1518,47.84569473
1519,50.64857941
1520,51.68104553
1521,44.57054672
1522,41.78497543
1523,45.89817123
1524,47.46957855
1525,47.24711304
1526,49.13005142
1527,51.57863846
1528,50.82724228
1529,50.11291123
1530,49.66718521
1531,52.25834961
1532,59.39419479
1533,57.93508759
1534,50.9065712
1535,50.69054108
1536,52.02007751
1537,52.91364746
1538,53.34082642
1539,52.22320175
1540,52.6883728
1541,55.14860382
1542,55.56096726
1543,54.88959808
1544,53.53874359
1545,52.25391846
1546,52.9260849
1547,52.87101593
1548,51.07751007
1549,51.05925674
1550,52.74166717
1551,53.36330643
1552,53.58776093
1553,52.75063477
1554,51.81524658
1555,50.69164276
1556,48.78979492
1557,45.64184036
1558,45.01304245
1559,46.02548523
1560,47.9700058
1561,49.82834396
1562,46.44953308
1563,45.14678726
1564,49.31645737
1565,50.55377121
1566,48.86236191
1567,47.25220947
1568,45.67262573
1569,44.41525879
1570,43.8122055
1571,46.07143097
1572,48.51744842
1573,51.23012543
1574,51.4734024
1575,50.34245071
1576,50.79345245
1577,51.48454743
1578,52.27715225
1579,52.87711868
1580,53.1037117
1581,50.65754852
1582,46.23637009
1583,47.14748001
1584,49.25947189
1585,50.50794906
1586,50.91367493
1587,49.21019592
1588,48.69793701
1589,49.26609955
1590,47.66192245
1591,45.41691513
1592,48.60239792
1593,49.59223938
1594,43.90050812
1595,42.11715011
1596,44.39519272
1597,46.25566864
1598,47.96521149
1599,46.43596954
1600,45.14846268
1601,44.92025299
1602,45.66416016
1603,47.49091568
1604,47.83519287
1605,47.60671387
1606,44.04964524
1607,41.14945831
1608,40.92070694
1609,42.90808716
1610,47.37136383
1611,45.94436569
1612,42.28002167
1613,40.8550827
1614,39.90668335
1615,40.36526871
1616,39.98403549
1617,38.72217789
1618,39.08380814
1619,39.9868206
1620,34.129459
1621,31.89836235
1622,39.94263763
1623,43.2015152
1624,42.05165253
1625,40.99113235
1626,40.1232872
1627,43.00134888
1628,44.50723877
1629,42.8945694
1630,43.90605164
1631,46.90278015
1632,46.05331345
1633,45.34917679
1634,52.84987335
1635,55.94868164
1636,51.44559936
1637,46.06108017
1638,40.16894989
1639,44.50858002
1640,48.45864792
1641,45.33559036
1642,42.57163849
1643,40.25689354
1644,40.59529915
1645,41.9849678
1646,46.01173096
1647,48.17614441
1648,45.04568634
1649,42.53859177
1650,40.56639633
1651,42.18480758
1652,44.28338928
1653,43.00575256
1654,43.18724976
1655,45.86025238
1656,45.36733246
1657,43.1578949
1658,45.80903626
1659,48.12677231
1660,47.77750015
1661,45.8239769
1662,42.21270294
1663,42.39363022
1664,42.73114013
1665,28.03568191
1666,23.70385323
1667,39.10820007
1668,43.99014206
1669,42.70568772
1670,40.88441467
1671,39.64076004
1672,40.80982819
1673,42.21093369
1674,43.84859619
1675,43.64842072
1676,43.24246826
1677,46.40455628
1678,46.67061844
1679,41.98327713
1680,39.15764008
1681,37.28159523
1682,41.91322021
1683,45.03837585
1684,42.80793686
1685,41.99314041
1686,42.34552307
1687,36.5377121
1688,31.63097
1689,38.80456085
1690,40.87112885
1691,36.51736336
1692,37.23796349
1693,39.53156586
1694,38.00005608
1695,37.65448341
1696,39.54053268
1697,43.11485748
1698,47.59687347
1699,42.16655578
1700,38.72113495
1701,42.26375275
1702,44.80377731
1703,46.57613296
1704,44.73413086
1705,42.6492691
1706,41.82119141
1707,40.52759018
1708,38.75209046
1709,39.63434906
1710,40.45083389
1711,35.59206772
1712,34.01048851
1713,36.85632439
1714,37.51235809
1715,37.31191254
1716,35.64988098
1717,34.42499695
1718,33.94984894
1719,38.19410858
1720,44.59495316
1721,41.97855835
1722,40.2
1723,40.2
1724,39.28625412
1725,37.85744286
1726,39.74391785
1727,40.93195419
1728,39.97828789
1729,38.08874359
1730,35.58389244
1731,30.53416786
1732,27.94791946
1733,33.32179642
1734,36.35716629
1735,37.67155647
1736,37.04486237
1737,36.97652588
1738,39.48877869
1739,40.6
1740,40.6
1741,39.00668106
1742,37.70403442
1743,38.18340759
1744,39.7146759
1745,42.11295014
1746,42.82249451
1747,42.40568314
1748,38.68396835
1749,38.71008606
1750,41.8333664
1751,38.16867828
1752,34.65259972
1753,34.89313622
1754,35.66875229
1755,36.8721405
1756,36.13906784
1757,34.72696991
1758,31.83542747
1759,31.42854614
1760,32.87516899
1761,33.88171463
1762,34.6
1763,34.59999962
1764,37.34689445
1765,41.93597946
1766,38.55569229
1767,36.94647713
1768,40.9364357
1769,39.2592926
1770,34.29914665
1771,39.77565002
1772,41.61476288
1773,35.55866852
1774,34.41996727
1775,35.55211983
1776,33.7331501
1777,33.83520584
1778,37.11128311
1779,37.64610863
1780,37.28897781
1781,38.38229217
1782,36.99070549
1783,32.37177238
1784,34.37706909
1785,37.08764496
1786,33.55851326
1787,31.55563316
1788,31.06856957
1789,32.04685249
1790,33.34500084
1791,34.92982445
1792,35.31840477
1793,34.83048058
1794,33.88456993
1795,32.68895264
1796,30.97920189
1797,30.88480644
1798,31.54900322
1799,29.4704319
1800,28.81835327
1801,30.40878601
1802,31.90762329
1803,32.92025147
1804,30.59303398
1805,31.37105637
1806,35.41544533
1807,35.16075783
1808,33.95918655
1809,31.99596138
1810,29.52106972
1811,26.69726982
1812,27.07445793
1813,27.15108948
1814,26.41357918
1815,26.28737335
1816,26.56592407
1817,28.53493614
1818,29.71306038
1819,29.95933113
1820,30.20572319
1821,30.68693733
1822,32.04302483
1823,32.38193283
1824,32.01187286
1825,34.98664474
1826,35.36916084
1827,30.67622261
1828,30.65953102
1829,31.95618095
1830,29.73059273
1831,28.05218048
1832,26.93873215
1833,24.74105568
1834,23.25738945
1835,24.24828606
1836,27.55795822
1837,32.06211204
1838,34.04623795
1839,34.36914978
1840,32.38385773
1841,31.69955406
1842,30.71913567
1843,27.24078865
1844,27.83875809
1845,31.31915207
1846,37.35270081
1847,38.8599411
1848,32.51319771
1849,30.33618202
1850,29.83233986
1851,31.32744713
1852,31.03978768
1853,29.2944706
1854,28.1381176
1855,27.27174759
1856,26.89731102
1857,27.07728882
1858,28.33555717
1859,35.08333587
1860,36.31609421
1861,32.81518898
1862,29.31235504
1863,29.340065
1864,36.22492447
1865,34.74640999
1866,32.29384804
1867,41.19202042
1868,38.65294151
1869,26.73994293
1870,24.64277306
1871,25.63791008
1872,31.28754005
1873,36.16821251
1874,39.00675277
1875,33.35048638
1876,28.72134628
1877,24.82251949
1878,29.05393028
1879,34.76125641
1880,42.56806946
1881,37.62137451
1882,29.52004471
1883,20.44341965
1884,22.79343605
1885,30.84145203
1886,28.06478195
1887,27.19666252
1888,28.45952568
1889,32.19375343
1890,34.92262421
1891,34.66975517
1892,31.48523216
1893,28.27138519
1894,31.56254311
1895,29.71845169
1896,23.89221687
1897,26.04506188
1898,28.37826042
1899,30.78757286
1900,32.67225189
1901,33.7755806
1902,32.88689728
1903,30.19144821
1904,26.86943474
1905,25.59839859
1906,27.08640022
1907,31.02892265
1908,33.75634918
1909,35.84111099
1910,36.9870575
1911,30.04278336
1912,24.89510422
1913,31.01398392
1914,28.52010613
1915,22.94278011
1916,26.13343392
1917,26.35792999
1918,24.0593132
1919,23.0041708
1920,23.86398163
1921,27.44379997
1922,32.97028236
1923,35.00422897
1924,27.19619827
1925,25.3682045
1926,26.58539887
1927,31.58326874
1928,32.22328377
1929,29.78322258
1930,23.88139114
1931,24.11288948
1932,31.04518318
1933,23.68256989
1934,19.22627563
1935,22.05385208
1936,24.46771622
1937,22.89699211
1938,9.771963693
1939,13.79117317
1940,24.304953
1941,29.20039635
1942,31.27625084
1943,31.3071785
1944,28.985569
1945,27.8
1946,27.8
1947,28.04265747
1948,26.18049469
1949,21.01230011
1950,20.41792183
1951,23.43152923
1952,33.00387955
1953,28.89880218
1954,22.21184044
1955,23.24790039
1956,27.70616036
1957,32.86698494
1958,30.01448669
1959,27.01203232
1960,23.96611252
1961,22.92762718
1962,24.38073425
1963,28.4072197
1964,23.27917328
1965,22.04189606
1966,26.98335915
1967,24.52530327
1968,39.67510224
1969,91.36076354
1970,60.44273224
1971,23.11272316
1972,24.28580856
1973,23.45413933
1974,23.36651344
1975,29.23879623
1976,29.02590866
1977,26.0070015
1978,24.56987648
1979,25.9721695
1980,28.47109719
1981,21.27707672
1982,19.63895149
1983,22.68119774
1984,27.65741997
1985,29.68735504
1986,28.6391182
1987,28.85242729
1988,28.02499466
1989,25.79488754
1990,25.00105629
1991,24.39568901
1992,23.87034492
1993,22.09275894
1994,20.34744911
1995,19.03255634
1996,18.25851574
1997,20.59203281
1998,29.80703125
1999,24.9866848
2000,20.76826897
2001,28.93965225
2002,28.53443565
2003,25.11510086
2004,21.28854217
2005,22.08938904
2006,24.96885338
2007,28.79987755
2008,26.55060082
2009,22.40000038
2010,22.40000038
2011,21.9623188
2012,21.34034996
2013,20.94311161
2014,23.76653328
2015,26.00516662
2016,12.21818676
2017,12.11129627
2018,19.65658855
2019,21.91285686
2020,23.36408654
2021,24.18660927
2022,24.05373268
2023,24.55432701
2024,25.37569885
2025,25.10963669
2026,22.10442925
2027,17.57725201
2028,17.31087932
2029,16.96662407
2030,16.86549778
2031,20.06569424
2032,24.20046654
2033,27.70268364
2034,17.02293472
2035,14.4781374
2036,17.28162785
2037,15.94510422
2038,17.37970047
2039,20.33537197
2040,19.66633148
2041,23.91295967
2042,29.99171906
2043,24.3652401
2044,22.36491661
2045,22.73207779
2046,23.80503578
2047,23.0976181
2048,21.37191124
2049,19.76060104
2050,19.02478027
2051,17.98686066
2052,13.01287374
2053,15.85379353
2054,21.78463211
2055,24.88016739
2056,24.56954002
2057,22.46663513
2058,19.09800949
2059,18.00223541
2060,18.40705185
2061,20.8352829
2062,21.81435585
2063,23.82083702
2064,29.49329796
2065,27.66316337
2066,24.76065674
2067,23.40849991
2068,21.14022331
2069,18.15710259
2070,14.23129234
2071,16.45255375
2072,18.8726551
2073,20.49901581
2074,19.96405678
2075,22.05051995
2076,27.34233322
2077,20.95423126
2078,16.39812298
2079,13.97827396
2080,18.05599441
2081,16.92008038
2082,12.58000622
2083,14.34907017
2084,14.65575886
2085,14.44457378
2086,15.94321213
2087,15.73661938
2088,15.77764015
2089,19.1875906
2090,18.23264809
2091,15.91213818
2092,13.59068146
2093,56.38354854
2094,70.13418922
2095,18.31930408
2096,11.7905118
2097,12.4371706
2098,16.13275032
2099,-16.87728748
2100,-16.1367136
2101,14.09810104
2102,12.4527626
2103,15.11050262
2104,19.28090763
2105,15.71187496
2106,13.74895286
2107,13.82173901
2108,18.21948623
2109,20.05480347
2110,20.40053177
2111,19.16223183
2112,16.96625023
2113,16.34534359
2114,18.1360714
2115,24.18084412
2116,21.89174881
2117,12.46068745
2118,16.60031948
2119,14.98086567
2120,10.41764107
2121,9.312460899
2122,13.85821629
2123,18.38863945
2124,16.8672575
2125,15.00291748
2126,13.43253365
2127,12.46326046
2128,7.996821404
2129,8.323692417
2130,13.78154926
2131,17.52666588
2132,15.21150608
2133,10.965592
2134,16.79806919
2135,15.07407742
2136,13.23126316
2137,18.23631172
2138,19.58941841
2139,17.77598057
2140,12.34757404
2141,14.90968456
2142,14.25525761
2143,10.91505928
2144,10.07847118
2145,10.54458618
2146,11.30218792
2147,10.88341036
2148,13.14892673
2149,14.69066048
2150,13.85213776
2151,14.45569954
2152,16.93046341
2153,20.72344093
2154,19.74346848
2155,20.85570679
2156,21.48124619
2157,16.43556747
2158,15.1770874
2159,14.79310112
2160,14.23182258
2161,17.24612713
2162,17.12369347
2163,14.6279089
2164,19.12591286
2165,17.57433948
2166,14.30564766
2167,14.72782231
2168,12.46534424
2169,11.77872276
2170,14.17380486
2171,22.14731712
2172,21.33660775
2173,14.67744846
2174,12.56048384
2175,13.66120319
2176,13.84809589
2177,9.609284591
2178,10.86041794
2179,9.794957733
2180,6.434685278
2181,12.23774662
2182,18.51168156
2183,21.5960186
2184,14.3692585
2185,16.64644547
2186,16.45225239
2187,10.66821651
2188,14.5007616
2189,14.53003521
2190,12.14379597
2191,9.870042517
2192,11.43034267
2193,13.55019874
2194,14.97293072
2195,13.04494762
2196,12.52819538
2197,12.6815012
2198,10.82875481
2199,13.68802357
2200,14.72858524
2201,10.16273136
2202,8.760909844
2203,10.05122251
2204,12.49647064
2205,10.63839092
2206,7.905338669
2207,8.772482967
2208,16.35644169
2209,17.15431099
2210,15.43678761
2211,12.77551098
2212,13.77889366
2213,11.76364002
2214,13.09525776
2215,21.13154526
2216,17.35615978
2217,13.64996548
2218,11.24532642
2219,13.401614
2220,14.50356445
2221,15.55017815
2222,16.94143982
2223,20.97344665
2224,23.98279037
2225,24.42324714
2226,19.08912125
2227,14.00355511
2228,16.92218514
2229,26.20317917
2230,16.09421024
2231,14.33439827
2232,14.92348919
2233,13.47769356
2234,16.13777313
2235,15.84964047
2236,12.67745724
2237,7.608464194
2238,16.8151825
2239,22.00299339
2240,17.03012924
2241,17.7555172
2242,15.6903347
2243,13.90414753
2244,16.37329254
2245,16.73198395
2246,16.25851498
2247,15.76445274
2248,18.09234943
2249,17.68935547
2250,15.45452309
2251,11.64686413
2252,7.274556256
2253,6.476529026
2254,7.582485008
2255,8.895679188
2256,14.51024208
2257,15.91302223
2258,13.33677998
2259,9.682753565
2260,10.18918934
2261,11.91281204
2262,14.45753956
2263,22.80302391
2264,-1.426961922
2265,-16.88474998
2266,8.766657353
2267,18.28369331
2268,16.89135742
2269,11.22601642
2270,12.107002
2271,15.09093914
2272,13.77882671
2273,10.49130573
2274,16.81586418
2275,16.44503136
2276,15.46681824
2277,15.78299828
2278,17.69835129
2279,14.28288937
2280,12.12519465
2281,14.95105419
2282,13.03241844
2283,14.47892113
2284,15.66611042
2285,12.71099338
2286,11.31941414
2287,12.06250439
2288,13.33312397
2289,12.2970619
2290,12.06578064
2291,11.34112329
2292,1.569684094
2293,-41.27809525
2294,-11.5432497
2295,11.11515827
2296,14.00034199
2297,10.28744526
2298,11.53739281
2299,13.2880907
2300,13.96050225
2301,12.02649345
2302,13.80454597
2303,13.97175331
2304,11.0416029
2305,11.48867531
2306,11.93593903
2307,13.23910007
2308,15.94067097
2309,20.86687336
2310,19.14959488
2311,16.48332005
2312,15.88826962
2313,9.906916047
2314,13.33224258
2315,14.46220627
2316,6.062803507
2317,7.56069498
2318,11.91899567
2319,13.72525482
2320,9.400000096
2321,9.400000094
2322,11.51874704
2323,13.11950379
2324,12.54531879
2325,16.00223541
2326,14.11152954
2327,11.9443943
2328,12.75274963
2329,11.84940739
2330,13.99912109
2331,14.148452
2332,9.779077339
2333,9.47745018
2334,13.21317253
2335,14.30738621
2336,10.84767761
2337,17.79692135
2338,17.53940887
2339,16.73985119
2340,17.4253191
2341,14.39876366
2342,13.8
2343,13.65417347
2344,13.91295948
2345,17.09625149
2346,9.173803139
2347,7.813593387
2348,13.93482342
2349,18.49012051
2350,24.66679382
2351,18.53598137
2352,8.362883758
2353,13.68643455
2354,10.41941214
2355,9.859186173
2356,12.32851029
2357,17.19609394
2358,12.47026005
2359,8.267973422
2360,5.165926027
2361,4.082583761
2362,11.25972872
2363,8.254512024
2364,6.651497412
2365,10.67221146
2366,14.03743019
2367,13.70774403
2368,9.171914673
2369,4.751041317
2370,11.79935017
2371,12.82073727
2372,17.30602875
2373,19.75427227
2374,11.79327183
2375,9.796852018
2376,14.04739361
2377,16.11199112
2378,11.55164843
2379,13.08995952
2380,9.098625754
2381,9.628024388
2382,14.49120025
2383,12.95028248
2384,15.721982
2385,17.93373394
2386,16.85502987
2387,10.00201988
2388,10.15645981
2389,9.867113684
2390,10.45183735
2391,11.93803215
2392,9.926915933
2393,23.08119621
2394,21.53139458
2395,9.636164475
2396,10.56594238
2397,7.463212872
2398,16.11663399
2399,20.04895439
2400,9.02515049
2401,15.5482729
2402,13.40933781
2403,12.37230663
2404,12.33866024
2405,6.115664148
2406,8.312029173
2407,18.0998888
2408,23.61428833
2409,17.04534969
2410,17.51312561
2411,12.89956589
2412,13.77323609
2413,19.3098774
2414,21.3403286
2415,19.88316345
2416,16.69948196
2417,13.30484161
2418,10.49876289
2419,6.741803551
2420,15.58280659
2421,16.84339886
2422,10.99646359
2423,5.054895091
2424,-0.279431659
2425,13.87345734
2426,17.8373827
2427,7.50234003
2428,11.90271683
2429,16.01215344
2430,16.25683556
2431,15.56774674
2432,15.96938
2433,12.34666662
2434,8.320780182
2435,5.868280029
2436,6.081927108
2437,9.337389183
2438,7.91662426
2439,7.477248955
2440,5.381312227
2441,4.61211189
2442,13.62542324
2443,10.85210505
2444,8.185076904
2445,6.871778297
2446,7.452839184
2447,9.830080318
2448,8.674865722
2449,9.046942328
2450,9.541743564
2451,9.909718323
2452,16.10439129
2453,9.887054729
2454,8.801135158
2455,13.79202557
2456,20.19707279
2457,9.690311621
2458,8.610067558
2459,10.52845364
2460,11.73487034
2461,10.16385803
2462,11.91890202
2463,15.14953918
2464,12.00571689
2465,8.405554581
2466,11.87934351
2467,0.84582026
2468,6.860536981
2469,6.695818424
2470,2.320347834
2471,3.322155881
2472,4.764526081
2473,10.90367222
2474,17.11029377
2475,22.01115856
2476,23.6562973
2477,7.754806995
2478,10.19190064
2479,12.30232353
2480,12.72658329
2481,13.01009865
2482,4.800148766
2483,14.4085537
2484,14.90220585
2485,11.2
2486,10.9747283
2487,9.522684289
2488,9.991155434
2489,10.85566616
2490,10.12497091
2491,8.903664683
2492,14.40138416
2493,10.07766294
2494,9.977956486
2495,25.46801567
2496,40.42619705
2497,13.14725113
2498,10.87718487
2499,6.171572971
2500,8.321102904
2501,13.21942902
2502,11.26547661
2503,7.690296363
2504,8.743298244
2505,12.17979545
2506,14.27455616
2507,13.17152452
2508,13.00865536
2509,11.30270596
2510,10.68267593
2511,10.92167521
2512,10.17966318
2513,6.352274179
2514,19.58131218
2515,11.98486786
2516,7.873007249
2517,10.01073751
2518,12.75171337
2519,12.42434588
2520,8.761723232
2521,7.946299744
2522,5.661048841
2523,3.099661636
2524,8.124401093
2525,15.34644756
2526,13.47837906
2527,8.99981451
2528,6.193082523
2529,6.22577188
2530,4.087260032
2531,3.368496537
2532,2.097181034
2533,4.716127896
2534,6.761025476
2535,0.654152215
2536,3.128492761
2537,14.12637825
2538,10.15680103
2539,6.162345886
2540,9.302642824
2541,8.543403434
2542,15.82153015
2543,8.122874451
2544,6.806646347
2545,9.619394015
2546,9.794722747
2547,6.820258998
2548,-14.74267654
2549,-2.75039444
2550,4.606333423
2551,1.906417194
2552,-0.206981768
2553,9.268397522
2554,4.643529773
2555,6.077871895
2556,9.725252912
2557,11.50226994
2558,9.849761105
2559,9.016296577
2560,7.201240396
2561,4.583540559
2562,5.638128233
2563,8.578822041
2564,11.24398041
2565,18.93297024
2566,7.726559306
2567,6.864131642
2568,6.796048927
2569,6.067958927
2570,6.519483852
2571,8.127578975
2572,15.00343628
2573,6.775510789
2574,7.496689701
2575,9.717397881
2576,7.047642136
2577,9.833891487
2578,3.948129654
2579,7.899840546
2580,8.102529525
2581,17.19737072
2582,25.98627968
2583,10.08499708
2584,5.869342136
2585,18.86687775
2586,11.88165665
2587,8.189760589
2588,10.15470734
2589,3.533645845
2590,-22.17071228
2591,5.405813313
2592,5.908879661
2593,7.180995464
2594,5.609137249
2595,-0.350696707
2596,0.271632025
2597,4.51274333
2598,5.274721956
2599,10.649961
2600,12.8165493
2601,12.13578243
2602,11.71730327
2603,8.422094918
2604,0.422626042
2605,4.30130941
2606,7.069954252
2607,8.157279682
2608,8.360668184
2609,8.408459377
2610,11.79782
2611,11.45630054
2612,-27.26818695
2613,-15.87640228
2614,5.276749277
2615,6.645304632
2616,7.612330246
2617,6.413751221
2618,11.31124649
2619,11.49625607
2620,12.99555263
2621,13.64604187
2622,6.117944526
2623,-6.842052507
2624,18.23866558
2625,9.349000072
2626,6.087235212
2627,3.219455671
2628,2.990063214
2629,10.7661561
2630,22.08526154
2631,6.47749629
2632,10.09875059
2633,5.694471645
2634,8.122586822
2635,8.263846302
2636,9.46806717
2637,15.70271988
2638,8.223970843
2639,11.33802919
2640,6.368336106
2641,3.419554639
2642,4.069323349
2643,4.617209816
2644,6.139352989
2645,11.96103468
2646,-2.097883886
2647,0.730792582
2648,2.369117001
2649,0.760687113
2650,2.215785134
2651,9.063331604
2652,16.36759834
2653,16.48672428
2654,10.91149683
2655,10.60000029
2656,8.376387071
2657,7.059645463
2658,6.095937538
2659,5.26264472
2660,6.109884512
2661,9.345929051
2662,11.44456444
2663,5.119168353
2664,4.422453183
2665,4.912211323
2666,3.601147795
2667,6.441755295
2668,14.61849423
2669,6.417067528
2670,9.225838088
2671,13.84830017
2672,15.22141132
2673,8.307494831
2674,5.319507265
2675,6.642024803
2676,4.75329442
2677,5.756527615
2678,3.641989708
2679,-2.102576232
2680,7.443438721
2681,9.617730904
2682,7.26681962
2683,5.799999999
2684,5.688876724
2685,5.626521587
2686,6.578205681
2687,2.330893827
2688,8.367599678
2689,11.0637228
2690,4.659336376
2691,2.933220506
2692,6.327663255
2693,5.452838993
2694,4.376817036
2695,11.56962166
2696,3.393902636
2697,7.898491287
2698,3.107631397
2699,0.51644904
2700,2.112301058
2701,8.23300991
2702,15.89818096
2703,14.54769459
2704,8.262555886
2705,5.049617958
2706,5.294151116
2707,5.973543406
2708,5.100750065
2709,4.299023771
2710,6.756733131
2711,9.363014889
2712,-92.34834291
2713,-469.667923
2714,-13.08790016
2715,8.480926227
2716,12.37319565
2717,4.241009712
2718,0.114364091
2719,4.338618231
2720,8.18775959
2721,7.605586147
2722,304.3973633
2723,1638.477051
2724,34.64364128
2725,2.572737947
2726,7.389052962
2727,4.5665245
2728,2.193580657
2729,5.526288843
2730,11.48100605
2731,12.3714714
2732,8.065717602
2733,8.728403092
2734,4.203641653
2735,-0.323525238
2736,18.49155903
2737,16.97832489
2738,7.989897726
2739,4.743057632
2740,5.136990452
2741,7.432460832
2742,11.02387905
2743,6.050354576
2744,1.346122453
2745,3.165668726
2746,7.129557515
2747,13.54785004
2748,8.280113603
2749,8.857465458
2750,7.892497826
2751,12.52349129
2752,18.36299362
2753,11.79327641
2754,11.33893442
2755,25.31106072
2756,9.293883323
2757,13.68632431
2758,7.19846077
2759,5.080591441
2760,4.936518955
2761,5.239782953
2762,6.74357624
2763,6.001279831
2764,3.682152319
2765,4.851164281
2766,6.447688723
2767,4.78889718
2768,-3.14918282
2769,4.582400608
2770,7.439281464
2771,4.471490621
2772,6.599963856
2773,2.580725473
2774,1.612983322
2775,6.38300104
2776,10.53049374
2777,8.433600807
2778,0.626868725
2779,-2.109895831
2780,3.193747067
2781,-1.884785561
2782,1.635019624
2783,1.44667474
2784,5.938749981
2785,2.718913865
2786,1.20000003
2787,1.318944454
2788,1.71421985
2789,0.006236088
2790,0.434257471
2791,4.498657465
2792,2.618808866
2793,0.971574611
2794,4.236042631
2795,1.364588827
2796,5.28155036
2797,2.504378176
2798,3.541471911
2799,5.190342617
2800,6.872348022
2801,7.271647548
2802,5.930334282
2803,7.462087536
2804,7.194608593
2805,6.084036302
2806,6.039583254
2807,1.659739912
2808,8.04662075
2809,4.05959903
2810,7.649681783
2811,1.171813774
2812,11.32336063
2813,8.214829731
2814,8.302306939
2815,8.244295216
2816,5.174608994
2817,3.204881287
2818,-0.589837563
2819,2.575487399
2820,6.901565504
2821,5.927424049
2822,3.200360012
2823,4.054631591
2824,9.028685569
2825,3.41738404
2826,5.543309641
2827,11.40354443
2828,3.13282516
2829,-1.14798038
2830,7.197231841
2831,6.877584362
2832,5.606815338
2833,7.324792195
2834,9.30437212
2835,9.940568447
2836,5.422226524
2837,0.577756941
2838,0.338294262
2839,4.562951994
2840,5.006337833
2841,1.833350253
2842,4.63863008
2843,9.085053443
2844,6.704455137
2845,6.846195507
2846,12.73680878
2847,3.764266681
2848,3.170362345
2849,9.37058134
2850,2.750440979
2851,0.259118175
2852,3.569408536
2853,6.127274084
2854,4.006731891
2855,7.511263275
2856,5.918625116
2857,2.401344407
2858,6.565369653
2859,4.443776642
2860,7.553684329
2861,13.96162472
2862,9.832433032
2863,8.292505599
2864,11.51365232
2865,7.663019276
2866,3.607477963
2867,3.378711939
2868,3.562284827
2869,5.680735493
2870,2.614693427
2871,1.97990455
2872,8.661314393
2873,9.436604976
2874,4.498138094
2875,3.476617944
2876,16.84790096
2877,8.63977318
2878,2.905235687
2879,6.397459412
2880,3.481121373
2881,14.36845894
2882,6.181069278
2883,9.682585431
2884,12.4522686
2885,8.09154892
2886,7.200000096
2887,8.624391174
2888,4.702979696
2889,2.804952931
2890,3.464936137
2891,3.660352164
2892,3.329525423
2893,7.52050581
2894,9.8
2895,11.02592154
2896,7.294231033
2897,5.346515846
2898,3.761775684
2899,7.583578777
2900,6.39141202
2901,0.599999929
2902,-12.91247997
2903,-13.70166512
2904,5.867965985
2905,7.474551154
2906,3.064871979
2907,3.974359703
2908,7.716135883
2909,7.539871693
2910,5.632407403
2911,6.114615441
2912,-0.508962029
2913,2.865298104
2914,5.01772232
2915,8.181822203
2916,4.870230055
2917,5.592101371
2918,9.278306484
2919,8.359528972
2920,14.26312523
2921,9.295631791
2922,4.443403053
2923,4.253347683
2924,1.384338236
2925,2.808857227
2926,5.029449034
2927,3.042940748
2928,3.873490173
2929,7.557683182
2930,10.00575438
2931,3.404571617
2932,6.969101858
2933,2.03936097
2934,2.239116192
2935,3.062526238
2936,5.566426897
2937,4.171149111
2938,4.748697424
2939,12.58739433
2940,4.404699135
2941,1.642494393
2942,3.400000048
2943,4.021808433
2944,5.851147175
2945,3.541481447
2946,4.05381093
2947,7.440129281
2948,3.020378721
2949,5.783656788
2950,-1.914770204
2951,1.410126245
2952,3.439976668
2953,1.576716829
2954,10.09754066
2955,11.13252754
2956,7.856879997
2957,12.82302933
2958,4.036177588
2959,4.147673774
2960,3.034478235
2961,4.5962708
2962,4.23523283
2963,3.898770142
2964,-0.379425514
2965,3.60027585
2966,2.891103268
2967,0.598980761
2968,8.141254234
2969,9.547509956
2970,1.862257908
2971,5.292985964
2972,7.291541386
2973,2.638265872
2974,8.19615593
2975,8.336036682
2976,5.965154648
2977,2.606616831
2978,4.458511257
2979,2.664534163
2980,-1.0543473
2981,3.469773889
2982,6.48256607
2983,3.155207443
2984,0.119090152
2985,-1.532059407
2986,5.205906397
2987,2.816085577
2988,4.504760838
2989,-0.863293928
2990,8.197639418
2991,6.086860371
2992,-12.75365639
2993,11.6000001
2994,11.30751763
2995,6.054441834
2996,3.406691483
2997,11.65229969
2998,15.86791668
2999,15.28368816
3000,3.926094818
