Frequency,Density
0,164.6
1,164.6
2,164.6
3,164.6
4,164.6
5,164.6
6,164.6
7,164.6
8,164.6
9,164.6
10,164.6
11,164.6
12,164.6
13,164.6
14,164.6
15,164.6
16,164.6
17,164.6
18,164.6
19,164.6
20,164.6
21,164.6
22,164.6
23,164.6
24,164.6
25,164.6
26,164.6
27,164.6
28,164.6
29,164.6
30,164.6
31,164.6
32,164.6
33,164.6
34,164.6
35,164.6
36,164.6
37,164.6
38,164.6
39,164.6
40,164.6
41,164.6
42,164.6
43,164.6
44,164.6
45,164.6
46,164.6
47,164.6
48,164.6
49,164.6
50,164.6
51,164.6
52,164.6
53,164.6
54,164.6
55,164.6
56,164.6
57,164.6
58,164.6
59,164.6
60,164.6
61,164.6
62,164.6
63,164.6
64,164.6
65,164.6
66,164.6
67,164.6
68,164.6
69,164.6
70,164.6
71,164.6
72,164.6
73,164.6
74,164.6
75,164.6
76,164.6
77,164.6
78,164.6
79,164.6
80,164.6
81,164.6
82,164.6
83,164.6
84,164.6
85,164.6
86,164.6
87,164.6
88,164.6
89,164.6
90,164.6
91,164.6
92,164.6
93,164.6
94,164.6
95,164.6
96,164.6
97,164.6
98,164.6
99,164.6
100,164.6
101,164.6
102,164.6
103,164.6
104,164.6
105,164.6
106,164.6
107,164.6
108,164.6
109,164.6
110,164.6
111,164.6
112,164.6
113,164.6
114,164.6
115,164.6
116,164.6
117,164.6
118,164.6
119,164.6
120,164.6
121,164.6
122,164.6
123,164.6
124,164.6
125,164.6
126,164.6
127,164.6
128,164.6
129,164.6
130,164.6
131,164.6
132,164.6
133,164.6
134,164.6
135,164.6
136,164.6
137,164.6
138,164.6
139,164.6
140,164.6
141,164.6
142,164.6
143,164.6
144,164.6
145,164.6
146,164.6
147,164.6
148,164.6
149,164.6
150,164.6
151,164.6
152,164.6
153,164.6
154,164.6
155,164.6
156,164.6
157,164.6
158,164.6
159,164.6
160,164.6
161,164.6
162,164.6
163,164.6
164,164.6
165,164.6
166,164.6
167,164.6
168,164.6
169,164.6
170,164.6
171,164.6
172,164.6
173,164.6
174,164.6
175,164.6
176,164.6
177,164.6
178,164.6
179,164.6
180,164.6
181,164.6
182,164.6
183,164.6
184,164.6
185,164.6
186,164.6
187,164.6
188,164.6
189,164.6
190,164.6
191,164.6
192,164.6
193,164.6
194,164.6
195,164.6
196,164.6
197,164.6
198,164.6
199,179.9790405
200,233.7964295
201,287.6138184
202,303.817865
203,304.1277832
204,304.4471619
205,304.8347961
206,305.2224243
207,304.9796509
208,304.2039368
209,303.4282104
210,303.3999939
211,303.4
212,304.6018677
213,307.7083862
214,310.8148987
215,306.7326294
216,300.982196
217,296.8960144
218,298.1400818
219,299.3841492
220,300.8876709
221,302.5214722
222,304.0739807
223,304.8524353
224,305.6309021
225,304.4025757
226,301.364801
227,298.3270386
228,302.1579407
229,306.2886169
230,305.9569214
231,298.7044861
232,291.4520508
233,290.2645569
234,290.3425781
235,291.7821045
236,297.0131226
237,302.2441345
238,297.652832
239,288.9032898
240,281.1773254
241,279.6139893
242,278.0506531
243,277.628302
244,278.0193665
245,278.3478149
246,276.391333
247,274.4348694
248,274.3221374
249,276.2797607
250,278.237384
251,276.8913025
252,275.245935
253,271.658075
254,264.6807373
255,257.7034088
256,259.7170502
257,263.7960968
258,266.6965607
259,266.3041138
260,265.9116638
261,265.3504883
262,264.7222046
263,264.7572357
264,268.0576599
265,271.3580933
266,269.2651855
267,263.9184906
268,259.2646393
269,262.5689484
270,265.8732727
271,266.0025055
272,263.4047241
273,260.8069488
274,260.4857788
275,260.1707092
276,259.6388885
277,258.8507599
278,258.0626221
279,256.6207275
280,255.1223968
281,255.8681732
282,260.2079956
283,264.5478302
284,268.0847778
285,271.4797363
286,273.3498718
287,271.927887
288,270.5059021
289,270.3861267
290,270.6232605
291,271.4848785
292,274.1740051
293,276.8631409
294,276.3360229
295,274.5949768
296,272.932428
297,271.5862762
298,270.2401245
299,274.0128113
300,280.2721252
301,285.0337341
302,281.2283691
303,277.4230041
304,276.5959412
305,277.5478455
306,278.5663391
307,280.1537842
308,281.7412109
309,280.7274414
310,277.8683655
311,275.0303864
312,272.4875
313,269.9446045
314,264.8212647
315,257.5856567
316,250.6769592
317,252.9046082
318,255.1322601
319,254.7907043
320,252.0841034
321,249.4066223
322,250.2031494
323,250.9996735
324,250.7656952
325,249.4904999
326,248.2153046
327,248.2
328,248.1999939
329,248.3149139
330,248.5542938
331,248.7936798
332,255.0185913
333,261.4058441
334,264.7251251
335,264.5653473
336,264.4055756
337,261.0827881
338,257.6455963
339,255.540741
340,254.9808807
341,254.4210053
342,252.0891846
343,249.6883118
344,248.5113159
345,248.7515533
346,248.9917786
347,249.3095276
348,249.6300232
349,250.891864
350,253.2168121
351,255.5417664
352,254.7397095
353,253.8573059
354,254.134671
355,255.6597199
356,257.1847565
357,253.3835358
358,249.5285309
359,246.8369934
360,245.3101532
361,243.8175751
362,245.4257172
363,247.0338592
364,248.1369995
365,248.7806396
366,249.4091095
367,249.6506134
368,249.8921204
369,247.7715576
370,243.7440765
371,240.272226
372,244.1408874
373,248.0095428
374,248.6976806
375,247.1654327
376,245.4661713
377,242.3998657
378,239.3335693
379,237.0294983
380,235.1724823
381,233.3524384
382,231.7366882
383,230.1209411
384,231.2431732
385,233.6682251
386,235.616452
387,235.6973389
388,235.7782165
389,237.6923279
390,240.2821014
391,241.779834
392,240.1602722
393,238.5407074
394,240.8232025
395,244.1452637
396,247.5981964
397,251.3275818
398,255.0569763
399,262.0457977
400,269.5901001
401,273.0634277
402,270.1413391
403,267.2192352
404,266.1736389
405,265.280246
406,267.5809692
407,273.5945862
408,279.6150024
409,290.5922729
410,301.5695496
411,315.8120056
412,332.8164917
413,348.6244995
414,351.3109986
415,353.9974975
416,349.2812195
417,340.1580139
418,328.5588684
419,305.0038208
420,281.4488037
421,266.8979706
422,255.8882568
423,246.8256134
424,243.1535461
425,239.4814728
426,239.730957
427,240.8740509
428,241.1826019
429,240.0388367
430,238.8950653
431,237.0761108
432,235.1959503
433,235.8925323
434,239.4914856
435,242.9280212
436,240.0635285
437,237.1990357
438,233.9050445
439,230.3018433
440,227.2114014
441,227.293338
442,227.3752808
443,228.0870331
444,229.0708862
445,229.5238678
446,228.4574005
447,227.3909271
448,228.884726
449,230.9368439
450,231.6316162
451,230.1532227
452,228.6748291
453,228.4439575
454,228.2795929
455,227.5638458
456,226.3304016
457,224.7669311
458,219.5833771
459,214.399823
460,214.5347015
461,217.4984833
462,219.5054871
463,218.1874756
464,216.8694611
465,215.8131226
466,214.8240265
467,213.1650299
468,210.3609467
469,207.5568604
470,208.4127747
471,209.4855621
472,209.6562012
473,208.995636
474,208.2457001
475,206.6759308
476,205.1061615
477,206.1123322
478,208.3443756
479,210.3417816
480,211.6652557
481,212.9887299
482,211.1829468
483,208.7827271
484,209.0148865
485,212.8243744
486,216.5830627
487,214.6771973
488,212.7713287
489,211.8519287
490,211.6031921
491,211.1265564
492,209.6332489
493,208.1399292
494,208.5693726
495,209.5655029
496,209.6270783
497,208.0489441
498,206.4708008
499,207.511322
500,208.6748474
501,209.0631256
502,208.8136505
503,208.6836365
504,209.2660858
505,209.8485352
506,210.8008759
507,211.8832092
508,211.8684845
509,209.7025391
510,207.5365967
511,209.5086456
512,211.7592255
513,212.4861633
514,211.9023346
515,211.3301025
516,210.8293823
517,210.3286621
518,212.3716125
519,215.2942047
520,216.2698059
521,213.5961365
522,210.9224731
523,210.4011414
524,209.9831268
525,210.2230255
526,210.975885
527,212.0866394
528,214.9324524
529,217.7782654
530,218.6618103
531,218.9968109
532,218.5405609
533,216.8645752
534,215.1925751
535,214.102536
536,213.0125061
537,210.4619019
538,207.0220581
539,204.5995758
540,205.4390564
541,206.27854
542,208.9145569
543,211.854483
544,211.9250427
545,208.8152924
546,206.143335
547,207.6570862
548,209.1708374
549,208.7559357
550,207.5778778
551,207.2576172
552,208.6047669
553,209.9519104
554,210.0000031
555,210
556,207.1138245
557,202.2246368
558,198.9509522
559,201.4813416
560,204.0117249
561,203.0425262
562,201.4390045
563,200.4389526
564,200.1011688
565,199.6442902
566,198.2078583
567,196.7714264
568,199.847644
569,204.4976715
570,206.2235779
571,203.0935272
572,199.9832092
573,198.5442261
574,197.105246
575,196.7099182
576,196.8793091
577,197.4873047
578,199.1822266
579,200.8771545
580,201.0786499
581,201.163446
582,199.3174072
583,196.0083893
584,193.5078522
585,194.0172333
586,194.5266113
587,193.6547852
588,192.550473
589,191.5310913
590,190.5961182
591,190.0273438
592,191.5582001
593,193.0890564
594,193.0609344
595,192.6354462
596,192.361969
597,192.2768188
598,192.2416626
599,192.6676575
600,193.0936554
601,193.7117371
602,194.3937317
603,194.3861694
604,193.3625732
605,192.4050903
606,192.4904388
607,192.5757873
608,192.1717773
609,191.5739685
610,191.2959839
611,191.5523376
612,191.7536133
613,190.3855865
614,189.0175568
615,192.344696
616,197.7345001
617,200.5581848
618,198.7605194
619,196.9716827
620,195.6012207
621,194.2307617
622,193.271109
623,192.4997681
624,191.7584595
625,191.0724182
626,190.468161
627,193.9004028
628,197.3326447
629,196.27034
630,193.1794983
631,191.7868896
632,193.4191376
633,195.0405884
634,196.3299683
635,197.6193451
636,204.3648377
637,213.3958313
638,218.2162628
639,216.1508179
640,213.9849304
641,210.1099213
642,206.2349091
643,200.2742371
644,193.5535705
645,190.9843658
646,194.3466888
647,197.3603607
648,196.9290375
649,196.4977142
650,195.4653473
651,194.2569275
652,193.2058441
653,192.3421784
654,191.454129
655,190.4171112
656,189.3800995
657,191.4150146
658,194.0955505
659,194.2007599
660,191.8647064
661,190.069867
662,190.416156
663,190.762442
664,191.1861389
665,191.6192536
666,194.527185
667,199.2075836
668,201.8601593
669,199.1716705
670,196.4831757
671,193.7090515
672,190.93219
673,192.1918457
674,195.4913238
675,196.5966247
676,193.8164795
677,191.2051178
678,191.2920471
679,191.3789825
680,190.0809814
681,188.3413269
682,188.6780823
683,191.4631836
684,194.6830719
685,200.1694855
686,205.655896
687,207.9817078
688,209.8115936
689,212.2375854
690,215.1148315
691,214.7983612
692,206.0742767
693,197.3501923
694,192.5673523
695,187.8535522
696,185.6146606
697,184.4791901
698,183.0975983
699,181.3496796
700,180.1669708
701,183.4025391
702,186.6381134
703,186.6215637
704,185.9215668
705,184.464032
706,182.362793
707,181.8101807
708,185.7523346
709,189.6944977
710,186.3023102
711,182.7084381
712,182.8737824
713,184.7156403
714,185.800003
715,185.8000031
716,185.7535278
717,185.4022827
718,185.0510376
719,181.9961182
720,178.4815826
721,177.3051209
722,177.8326172
723,178.1732971
724,178.0853332
725,178.0369354
726,179.2692139
727,180.5014923
728,179.6654663
729,178.1682434
730,178.5155731
731,180.8068115
732,182.7533325
733,183.4587494
734,184.1641571
735,182.692569
736,181.1044525
737,180.057843
738,179.2633118
739,179.0209412
740,179.550946
741,179.7570251
742,178.1660797
743,176.5751312
744,178.9971985
745,181.9156677
746,182.5550964
747,181.8471741
748,181.3673859
749,181.2788422
750,181.3844116
751,183.0677277
752,184.7510529
753,181.6007904
754,177.611615
755,175.4713379
756,174.5843262
757,175.6960113
758,180.6662109
759,185.2389893
760,185.68302
761,186.1270508
762,188.7248474
763,191.7460541
764,190.087503
765,185.1084534
766,181.083609
767,178.9484619
768,177.2646271
769,180.2912018
770,183.3177887
771,179.3821472
772,174.1270172
773,172.6365997
774,173.7060761
775,174.6191986
776,175.2434326
777,175.4905151
778,172.635199
779,169.7798828
780,174.3537933
781,180.0678101
782,178.2800506
783,172.0266327
784,169.7956879
785,173.9075134
786,177.6963776
787,179.6640717
788,181.6317627
789,177.707898
790,173.2332184
791,171.9825989
792,172.251236
793,173.4395447
794,175.7691467
795,177.5808075
796,177.4911529
797,177.4015045
798,178.3702545
799,179.3570251
800,180.2089203
801,181.0167572
802,182.0608642
803,183.3182434
804,183.0456146
805,179.1813751
806,175.4683563
807,173.6699677
808,171.871579
809,172.363858
810,173.2635864
811,174.2200104
812,175.2102966
813,175.472052
814,174.6613342
815,174.298938
816,175.9213348
817,177.5437317
818,178.2094086
819,178.8407165
820,178.2578064
821,177.2651672
822,176.8959625
823,177.0765472
824,176.9427368
825,176.1296112
826,175.3907166
827,175.3003143
828,175.2099152
829,173.0255341
830,170.5832642
831,170.4148163
832,171.3198975
833,170.3967346
834,167.4081848
835,165.9808228
836,168.9711456
837,171.7020844
838,169.8886902
839,168.075296
840,170.3393616
841,173.3332306
842,174.8674561
843,175.5936737
844,176.4401123
845,177.4392548
846,178.0481995
847,177.4120087
848,176.7965424
849,176.705603
850,176.6146637
851,174.7683105
852,172.5844727
853,171.3916077
854,170.7542847
855,170.4
856,170.4000031
857,170.7854828
858,172.3351227
859,173.7950104
860,173.7037994
861,173.6125915
862,173.6786621
863,173.7699249
864,174.3510498
865,175.1729065
866,176.7850159
867,179.2520599
868,181.9593689
869,185.2507202
870,187.6390564
871,182.2416992
872,176.8443451
873,173.712027
874,170.7829101
875,170.2013275
876,170.4760956
877,169.6942871
878,168.0446991
879,167.4707458
880,168.7545196
881,169.6296906
882,168.7121643
883,167.7957062
884,167.0612488
885,166.3267944
886,163.3878845
887,159.9890076
888,160.8319
889,163.9570496
890,165.5563812
891,165.4644104
892,165.6757813
893,166.5960358
894,167.0509216
895,164.2885193
896,161.526117
897,164.037857
898,166.8018982
899,164.0046783
900,159.6717621
901,160.6060699
902,164.8493072
903,169.2171723
904,173.7398254
905,174.7828949
906,166.8404572
907,159.8524719
908,160.3145172
909,160.7765625
910,160.8877716
911,160.9802368
912,160.0543335
913,158.851593
914,160.3657196
915,163.5132202
916,164.555185
917,163.1657532
918,162.2
919,162.200003
920,161.872699
921,159.6469726
922,157.4212402
923,160.6167816
924,163.8645721
925,160.98815
926,156.9027985
927,156.8655518
928,158.7236328
929,159.1579651
930,158.3213287
931,157.5896728
932,157.0315857
933,157.9501556
934,163.9066284
935,169.0379913
936,164.3817291
937,159.72547
938,161.0466736
939,162.8171051
940,159.0349152
941,153.7204712
942,152.0383118
943,152.4114807
944,153.3390198
945,154.8325684
946,155.5038818
947,154.663266
948,153.6253571
949,151.8496643
950,150.4256683
951,153.6051178
952,156.7845703
953,155.2554199
954,153.3840454
955,153.5952911
956,154.3442841
957,153.0575897
958,150.7155914
959,152.7414886
960,158.7405762
961,161.0465759
962,157.5762939
963,153.9845947
964,150.0430084
965,146.4218292
966,145.0132843
967,143.6047363
968,146.8774872
969,150.1660492
970,149.1310424
971,147.4387787
972,148.1845489
973,149.7837525
974,151.2678253
975,152.6797211
976,152.6618378
977,151.1549133
978,149.5441071
979,147.7535766
980,146.8602234
981,148.7461151
982,150.400003
983,150.4
984,150.3929107
985,148.2215607
986,146.0502075
987,146.8029266
988,147.9364807
989,149.0705505
990,150.2047791
991,149.1827362
992,147.0075104
993,144.5267853
994,141.7824753
995,140.7211335
996,141.9520691
997,143.4485443
998,145.5329102
999,147.0291962
1000,146.1759918
1001,145.7090149
1002,149.1238464
1003,152.5386841
1004,150.6426148
1005,148.6494476
1006,151.5571808
1007,155.1660156
1008,153.1504333
1009,149.4444244
1010,146.9369018
1011,145.035257
1012,143.6131378
1013,142.5666076
1014,142.4802048
1015,143.5273468
1016,144.0296692
1017,143.5534119
1018,143.1262482
1019,142.8403199
1020,143.2084259
1021,147.0230316
1022,150.6653931
1023,151.715036
1024,152.7646759
1025,146.4336823
1026,139.8456543
1027,140.8319962
1028,142.9337707
1029,142.6561279
1030,141.7002014
1031,143.6963898
1032,147.0441132
1033,149.1402618
1034,150.3844391
1035,149.7904022
1036,147.3963257
1037,143.8835205
1038,138.8050659
1039,136.1266174
1040,138.331784
1041,140.5139175
1042,142.6244553
1043,143.8514862
1044,140.395813
1045,137.0916626
1046,135.650943
1047,134.2102234
1048,136.108464
1049,138.0305664
1050,142.4965912
1051,147.2085419
1052,143.356659
1053,137.7759308
1054,137.488092
1055,138.9322449
1056,140.1815781
1057,141.3375854
1058,140.8168243
1059,139.1781769
1060,137.2351349
1061,135.0168213
1062,136.3270142
1063,141.924353
1064,143.8992859
1065,139.9401977
1066,137.7354446
1067,139.4746155
1068,140.2939545
1069,138.1670349
1070,136.8255707
1071,139.3406983
1072,141.3341827
1073,138.7207642
1074,136.2755401
1075,138.4062531
1076,140.536972
1077,137.3085403
1078,133.916745
1079,136.2373215
1080,139.1463013
1081,138.7810913
1082,137.8108459
1083,138.1318848
1084,138.8114563
1085,139.4211319
1086,140.0039642
1087,139.619458
1088,138.7446869
1089,137.3981308
1090,135.7448013
1091,134.9999985
1092,135
1093,134.3262039
1094,132.9630188
1095,131.9426315
1096,131.3580627
1097,131.3777374
1098,132.352597
1099,134.5072205
1100,138.9942551
1101,141.0294342
1102,136.9301361
1103,132.8302643
1104,128.7285355
1105,125.9341919
1106,128.7680267
1107,130.9920181
1108,129.5253693
1109,128.2659683
1110,128.9508118
1111,129.5541321
1112,128.6730972
1113,127.8220673
1114,130.2708465
1115,132.7196197
1116,138.0135773
1117,143.4040894
1118,136.2582046
1119,128.1185867
1120,127.8964157
1121,128.6814224
1122,129.5501831
1123,130.433844
1124,138.6567383
1125,148.5792541
1126,142.5595429
1127,131.9430206
1128,129.4188385
1129,129.7139175
1130,129.7302933
1131,129.6318741
1132,130.398996
1133,131.5807144
1134,130.5377975
1135,128.2714859
1136,127.2786392
1137,127.0814499
1138,126.5367752
1139,125.7475586
1140,126.0076477
1141,127.0934708
1142,127.0203629
1143,125.9338898
1144,126.0534347
1145,127.3382065
1146,128.8151489
1147,130.4962372
1148,130.7594711
1149,129.3742264
1150,127.5955765
1151,125.3184571
1152,126.0435776
1153,130.8977142
1154,133.2021393
1155,131.7152939
1156,129.9612305
1157,127.7792282
1158,125.8158157
1159,124.2279602
1160,123.9703079
1161,126.1549072
1162,127.8690735
1163,128.663948
1164,128.6496887
1165,126.959581
1166,125.9249054
1167,126.3228119
1168,126.8415893
1169,127.6378784
1170,127.5849365
1171,125.4934296
1172,124.4274536
1173,125.9222748
1174,126.9721756
1175,126.8724655
1176,126.7454651
1177,126.5459168
1178,125.9707123
1179,124.3733872
1180,123.9688461
1181,126.8657211
1182,128.4474487
1183,126.3484619
1184,124.2491501
1185,122.1489197
1186,121.3092514
1187,124.0111557
1188,125.0751129
1189,121.5705582
1190,118.8931946
1191,118.4924362
1192,118.633551
1193,120.2375397
1194,121.5104477
1195,121.9116837
1196,122.1435074
1197,121.9427704
1198,122.003006
1199,122.7060058
1200,122.2141296
1201,118.8980255
1202,118.0817215
1203,122.9080139
1204,126.0720673
1205,125.6696335
1206,124.6359711
1207,122.3206207
1208,120.8691483
1209,121.0706039
1210,121.3441986
1211,121.747348
1212,121.5858841
1213,120.4765686
1214,118.973346
1215,116.8542969
1216,115.8060181
1217,116.3108536
1218,117.2042862
1219,118.6186676
1220,118.1783951
1221,115.4490372
1222,115.8030014
1223,119.6466064
1224,120.5050171
1225,118.2784515
1226,117.0955628
1227,116.8930282
1228,117.0739304
1229,117.5805725
1230,119.6967285
1231,123.0425446
1232,121.0840988
1233,115.5044251
1234,116.8773178
1235,122.4603089
1236,123.0743759
1237,121.0429886
1238,119.28862
1239,117.6625442
1240,122.6572968
1241,130.2840591
1242,130.9809662
1243,129.3529511
1244,121.3451126
1245,111.5712341
1246,113.5534683
1247,118.1376968
1248,120.4569092
1249,122.3936264
1250,118.4082657
1251,113.7165894
1252,115.5888443
1253,117.9360794
1254,117.9006668
1255,117.7681274
1256,115.5202774
1257,113.4870346
1258,115.0205719
1259,116.5542007
1260,118.088649
1261,119.251178
1262,118.2276031
1263,117.6353073
1264,118.8643295
1265,119.7266205
1266,119.4191818
1267,118.3169144
1268,115.2407074
1269,113.0618515
1270,112.6514465
1271,113.3543213
1272,115.8182129
1273,117.6962616
1274,118.8262176
1275,119.1976349
1276,118.7864975
1277,117.9256775
1278,116.6915329
1279,115.8284698
1280,115.2110321
1281,114.5933502
1282,113.9755432
1283,113.7262451
1284,113.6232162
1285,113.1208389
1286,112.5022964
1287,111.9695389
1288,111.4537796
1289,115.3753738
1290,119.8135345
1291,117.4276794
1292,114.8
1293,114.7999985
1294,115.3599518
1295,121.8739807
1296,126.5840134
1297,121.2041565
1298,116.1855728
1299,112.4588379
1300,110.363945
1301,112.3319992
1302,114.44794
1303,116.8317383
1304,117.7581985
1305,116.7211487
1306,114.8062347
1307,112.0045319
1308,112.1021729
1309,114.3863983
1310,114.7317963
1311,114.0045639
1312,113.5758667
1313,113.2640106
1314,110.8027389
1315,107.7863388
1316,108.3982025
1317,109.5430343
1318,109.9958237
1319,110.4464264
1320,112.0094193
1321,112.9859695
1322,109.2325592
1323,106.5005326
1324,108.0653824
1325,109.6591904
1326,111.3293579
1327,111.5751648
1328,109.2773209
1329,106.7003784
1330,103.7741104
1331,102.4554672
1332,102.5600388
1333,104.2162247
1334,106.832074
1335,106.6385101
1336,105.2774612
1337,103.5821579
1338,101.8012665
1339,103.0875915
1340,104.7647217
1341,107.6749496
1342,111.0580841
1343,120.1883255
1344,127.4332306
1345,125.2280685
1346,126.1572113
1347,135.9287323
1348,138.2457519
1349,127.2068283
1350,118.0830429
1351,111.2453629
1352,107.3827057
1353,105.9091004
1354,104.5727906
1355,103.3089462
1356,103.8758408
1357,105.0350525
1358,104.9286758
1359,104.6123398
1360,105.005571
1361,105.4483322
1362,106.1873291
1363,106.2041168
1364,102.7182098
1365,100.4934158
1366,101.55038
1367,103.9933792
1368,108.646788
1369,108.7507477
1370,104.2004013
1371,102.6559601
1372,103.0795029
1373,102.2903366
1374,101.0189621
1375,100.6244934
1376,100.4124726
1377,98.70281525
1378,97.15370635
1379,99.91326601
1380,102.1818039
1381,102.0756058
1382,102.9490555
1383,106.2432129
1384,106.6460022
1385,102.8182556
1386,100.9441467
1387,100.8377594
1388,103.272197
1389,107.1044937
1390,102.1229263
1391,94.45377656
1392,94.45242767
1393,95.45177003
1394,99.71747591
1395,103.1957657
1396,101.7018829
1397,100.34785
1398,99.38692475
1399,98.7168396
1400,98.50317382
1401,97.90249176
1402,96.94042511
1403,97.70579987
1404,99.41715546
1405,98.63685913
1406,97.13853301
1407,97.38874359
1408,97.74869385
1409,96.46288605
1410,96.03198395
1411,99.6772705
1412,101.2749939
1413,98.27120819
1414,98.83815003
1415,103.8832123
1416,103.5687119
1417,99.37989808
1418,98.89477843
1419,99.86200256
1420,99.26247406
1421,98.40220642
1422,99.15124663
1423,99.47160951
1424,97.10306702
1425,96.39880371
1426,99.9537262
1427,99.43834688
1428,93.40216675
1429,92.88617401
1430,96.55317382
1431,97.59999999
1432,97.59999998
1433,97.87899933
1434,98.19509583
1435,97.65487059
1436,97.02918397
1437,95.94809114
1438,96.03300323
1439,98.73734435
1440,99.40484772
1441,97.67304231
1442,97.19863738
1443,97.52354281
1444,97.01993712
1445,96.2613739
1446,98.79110871
1447,101.3919067
1448,101.2834106
1449,101.5262894
1450,102.9375671
1451,102.5326859
1452,99.27396086
1453,96.49039613
1454,94.09924163
1455,95.40071411
1456,98.22830048
1457,97.08778839
1458,95.38333588
1459,94.83892212
1460,94.21000519
1461,93.22947998
1462,92.09263458
1463,90.67548065
1464,93.19678649
1465,99.30507355
1466,96.83357087
1467,90.50337524
1468,93.34485931
1469,97.63395233
1470,98.94520264
1471,99.14464417
1472,94.77121277
1473,90.31666565
1474,85.7218338
1475,84.60157013
1476,86.46248627
1477,89.02523193
1478,91.87303009
1479,92.29701233
1480,92.46612091
1481,93.56273041
1482,92.19432525
1483,82.8676239
1484,81.17051392
1485,90.2831665
1486,93.73980712
1487,93.30038299
1488,91.24934235
1489,88.72114868
1490,89.96130981
1491,91.42067413
1492,93.07145233
1493,92.7717163
1494,88.25690765
1495,85.94489746
1496,85.83471374
1497,88.51848602
1498,92.48741303
1499,92.90393372
1500,92.80638428
1501,92.9167633
1502,92.40253142
1503,89.97275238
1504,88.02309723
1505,86.69697723
1506,88.41235352
1507,91.95077362
1508,91.60625153
1509,90.38820801
1510,89.05972595
1511,88.67228699
1512,91.99546051
1513,94.08796234
1514,94.30963899
1515,95.58253021
1516,97.5788025
1517,89.94483643
1518,79.73561096
1519,84.09199066
1520,88.29460907
1521,90.96104584
1522,90.92935028
1523,86.59382019
1524,86.62590179
1525,89.74043732
1526,89.69816132
1527,88.80776825
1528,87.03369904
1529,85.40405121
1530,84.40116577
1531,86.70301056
1532,93.95035553
1533,94.43060303
1534,90.5258728
1535,87.80067444
1536,85.50039063
1537,89.9682373
1538,93.76284332
1539,95.3275177
1540,98.2778015
1541,102.9746063
1542,103.648761
1543,102.1941254
1544,98.99239045
1545,95.31473694
1546,89.26523895
1547,85.85959778
1548,88.77404785
1549,87.56494751
1550,82.40555725
1551,84.83771362
1552,90.11239014
1553,87.95807495
1554,85.59677124
1555,84.3608078
1556,82.86523132
1557,80.95397339
1558,81.97101135
1559,84.89584503
1560,88.66053619
1561,92.03952179
1562,84.94402008
1563,80.57485657
1564,83.39220123
1565,85.81547546
1566,87.84516449
1567,85.03861237
1568,80.41268921
1569,81.38473968
1570,81.47253876
1571,76.3892807
1572,75.54177704
1573,80.74107361
1574,83.18127899
1575,84.08604126
1576,84.69454498
1577,85.04298554
1578,83.57100372
1579,81.944487
1580,80.01844788
1581,77.83098602
1582,75.45035095
1583,77.66720734
1584,80.77837372
1585,80.32438202
1586,79.57851868
1587,78.1021698
1588,77.5191742
1589,77.7464386
1590,79.01665497
1591,80.59577179
1592,79.79940033
1593,79.28446655
1594,79.62597046
1595,78.34770508
1596,75.38624954
1597,76.27422485
1598,78.55361481
1599,75.24850464
1600,73.11537476
1601,75.39746857
1602,74.97969971
1603,71.55453186
1604,73.15450058
1605,76.69593506
1606,75.024823
1607,74.02961121
1608,75.97398529
1609,76.51351624
1610,75.48353119
1611,77.93862305
1612,81.71747742
1613,79.44639435
1614,76.79987488
1615,73.36048279
1616,71.87998352
1617,72.4535553
1618,69.26643677
1619,64.81137009
1620,69.86477966
1621,73.98969574
1622,75.4836319
1623,76.08030243
1624,75.85033111
1625,76.42911987
1626,77.1210968
1627,75.27913513
1628,73.50723877
1629,71.8945694
1630,72.57796478
1631,74.99839936
1632,78.38194885
1633,81.47321625
1634,80.2038681
1635,77.40994873
1636,71.98315888
1637,71.02637024
1638,72.64381714
1639,75.51538391
1640,77.177948
1641,72.43552551
1642,70.93119659
1643,73.47741547
1644,75.61000671
1645,77.57870483
1646,77.94386291
1647,78.53564606
1648,79.81101837
1649,79.77564392
1650,78.61552734
1651,76.50970764
1652,74.1985794
1653,71.99175568
1654,71.63017273
1655,74.41939392
1656,76.83266602
1657,79.04210663
1658,75.74272461
1659,72.94645691
1660,73.6449997
1661,74.74478455
1662,76.25919037
1663,76.32901001
1664,76.07585297
1665,77.35878906
1666,77.27584381
1667,74.59175415
1668,72.93739014
1669,71.88647156
1670,75.01672287
1671,76.71658096
1672,71.45577469
1673,70.47979126
1674,73.87209091
1675,70.3712204
1676,65.48980331
1677,66.66094742
1678,68.74026947
1679,72.37296143
1680,70.64939499
1681,66.19378662
1682,67.79551392
1683,68.54969864
1684,65.9670845
1685,67.31082916
1686,71.89180298
1687,70.21533966
1688,68.57745209
1689,73.98704681
1690,74.2370224
1691,68.00054626
1692,68.58805084
1693,71.47896118
1694,73.24608917
1695,72.60017243
1696,67.41353378
1697,65.52329254
1698,65.40534515
1699,64.38598099
1700,64.06056824
1701,65.83187638
1702,65.59622345
1703,63.8238678
1704,64.94281387
1705,66.22153244
1706,66.33982849
1707,66.80712356
1708,67.63569031
1709,67.70505142
1710,67.57321167
1711,67.33619842
1712,67.80524292
1713,69.22816162
1714,68.19773178
1715,66.24270172
1716,63.27478714
1717,61.61875458
1718,62.21268692
1719,61.50490417
1720,60.20802841
1721,64.37047501
1722,66.28545685
1723,63.42952194
1724,62.55229034
1725,62.79042664
1726,64.62957153
1727,64.52574616
1728,59.28058624
1729,58.13554001
1730,59.68616333
1731,60.46352311
1732,61.47926025
1733,63.38997269
1734,64.68183288
1735,65.51826325
1736,66.67876816
1737,67.27055664
1738,65.83498382
1739,64.99973603
1740,64.64063034
1741,66.29953995
1742,67.40986633
1743,65.61222229
1744,64.40559845
1745,63.68611679
1746,63.07188339
1747,62.70249405
1748,63.18271255
1749,63.72886276
1750,64.32949371
1751,65.46087418
1752,66.08440018
1753,64.64118576
1754,62.19436722
1755,58.9452179
1756,57.09336929
1757,56.61324463
1758,60.10719147
1759,63.1880455
1760,65.96074066
1761,61.79142456
1762,59.46508179
1763,64.41354599
1764,60.83392486
1765,51.53498917
1766,57.37753906
1767,62.33896561
1768,62.82259903
1769,63.07660294
1770,63.19758148
1771,62.48821564
1772,62.31763764
1773,63.2866127
1774,63.19001541
1775,62.6191513
1776,63.34673996
1777,63.57125778
1778,62.96457748
1779,65.80807877
1780,69.19465484
1781,64.21400604
1782,62.0873909
1783,63.66755142
1784,63.32776032
1785,62.84734421
1786,64.55106201
1787,61.9177681
1788,54.97711182
1789,59.44363327
1790,64.4
1791,64.4
1792,61.02085419
1793,55.1657547
1794,55.94428711
1795,57.2380394
1796,58.70354157
1797,60.97762298
1798,63.40801468
1799,55.58280182
1800,52.22697067
1801,55.89719849
1802,57.07690582
1803,57.16442261
1804,55.20466003
1805,55.15566406
1806,57.11657944
1807,55.82642212
1808,55.06121979
1809,58.00605774
1810,57.81305771
1811,55.48035355
1812,56.11168747
1813,56.80742569
1814,57.42201767
1815,55.76515961
1816,53.49333267
1817,54.60090179
1818,55.53917999
1819,56.27799377
1820,55.47424392
1821,54.49565888
1822,54.00253677
1823,51.91008148
1824,48.70289764
1825,52.54237137
1826,54.25582886
1827,51.53886566
1828,53.40902863
1829,56.49163589
1830,55.50248566
1831,55.97390137
1832,57.95336456
1833,55.7075943
1834,53.6
1835,53.59999924
1836,52.32088241
1837,50.50093079
1838,53.72513733
1839,54.14600983
1840,50.67175064
1841,52.10311966
1842,53.88388443
1843,52.26893692
1844,52.61937943
1845,54.35957565
1846,53.79258194
1847,54.63885498
1848,57.99889526
1849,52.54114456
1850,46.25829544
1851,50.49443436
1852,51.02826843
1853,48.53495712
1854,54.18136139
1855,56.61821671
1856,52.00016708
1857,50.6151413
1858,51.12765579
1859,56.37592773
1860,56.31055221
1861,51.68435821
1862,54.9224762
1863,56.20869446
1864,52.70367432
1865,53.00847702
1866,54.52756271
1867,55.40484696
1868,52.21634674
1869,45.69554825
1870,48.15509415
1871,49.86413879
1872,49.48749771
1873,51.61807785
1874,53.95585556
1875,53.70446548
1876,54.62906952
1877,56.38982926
1878,53.64745636
1879,52.56086807
1880,53.94594803
1881,53.47983322
1882,51.99112778
1883,48.46132965
1884,48.3348999
1885,49.84865875
1886,47.19820099
1887,48.72364502
1888,54.91167603
1889,54.02773285
1890,52.18099365
1891,50.15804138
1892,50.05805435
1893,50.52747879
1894,50.02114792
1895,49.01528168
1896,47.622052
1897,50.46868973
1898,50.60389023
1899,46.67290726
1900,49.25998535
1901,51.17408295
1902,47.11153107
1903,48.8967102
1904,52.56913529
1905,48.37471542
1906,47.47685089
1907,49.51170196
1908,50.33038483
1909,49.52567902
1910,46.21516876
1911,47.67455597
1912,49.07048416
1913,46.90338059
1914,48.18149109
1915,50.47093048
1916,47.40790329
1917,47.51808548
1918,50.32750702
1919,49.40417099
1920,48.90457001
1921,49.16027069
1922,49.95634842
1923,48.76419144
1924,42.23616562
1925,43.52973862
1926,47.26041565
1927,47.64486771
1928,48.18242187
1929,48.62563553
1930,43.87851028
1931,42.56564636
1932,45.00478744
1933,49.33597183
1934,51.1270752
1935,48.17097244
1936,49.46771698
1937,52.30100327
1938,56.6760109
1939,49.20073013
1940,39.64294357
1941,48.27438202
1942,48.82621384
1943,44.02578354
1944,44.6706749
1945,42.85289002
1946,38.46506119
1947,43.17448197
1948,45.08732071
1949,41.7279953
1950,40.11039009
1951,39.31479149
1952,39.70285988
1953,41.15845871
1954,42.86480102
1955,44.15987549
1956,46.90971527
1957,50.0908226
1958,50.86877594
1959,48.8905426
1960,44.9491684
1961,43.39143906
1962,45.41136475
1963,51.12637634
1964,48.55397644
1965,44.65063629
1966,39.44909592
1967,43.58286209
1968,55.43134461
1969,79.7769844
1970,67.46854706
1971,50.79233627
1972,47.01239548
1973,47.14586105
1974,47.80378189
1975,44.80239334
1976,40.93019943
1977,37.88426742
1978,42.97952804
1979,43.10671692
1980,40.29616394
1981,41.60416794
1982,43.3401413
1983,45.23119507
1984,34.88589096
1985,31.71466026
1986,36.03863983
1987,38.9766983
1988,41.1161789
1989,42.29682465
1990,47.07175751
1991,46.93102112
1992,38.52552185
1993,32.05064468
1994,30.94157982
1995,39.48838577
1996,42.29956283
1997,43.5595459
1998,44.08611679
1999,42.85798416
2000,41.25027847
2001,39.9323143
2002,39.6
2003,40.24078903
2004,43.01174469
2005,40.49356918
2006,37.568853
2007,41.39987793
2008,39.05982666
2009,35.7187355
2010,41.00907135
2011,39.47362366
2012,35.59766693
2013,38.24592056
2014,41.06467743
2015,42.87516327
2016,37.30734482
2017,36.60148544
2018,38.88677597
2019,41.40848694
2020,41.83591309
2021,40.79914093
2022,38.80599442
2023,40.45487595
2024,43.82333527
2025,39.69936524
2026,36.51308594
2027,34.2
2028,34.2
2029,35.60025711
2030,37.74468842
2031,37.07798004
2032,35.55534744
2033,33.63364906
2034,34.03413963
2035,34.43476639
2036,34.96572151
2037,36.83685341
2038,37.9959404
2039,38.41903992
2040,36.5457283
2041,36.84765091
2042,38.09585953
2043,35.28262024
2044,33.21049881
2045,31.98160744
2046,33.45692444
2047,37.39194336
2048,41.69588089
2049,39.5474678
2050,37.13540916
2051,35.39558067
2052,37.81535797
2053,36.78212509
2054,34.67625656
2055,35.08002243
2056,34.91604767
2057,34.48266144
2058,33.94368133
2059,32.71229591
2060,32.03842659
2061,33.79214859
2062,35.96100998
2063,36.21071129
2064,31.34860191
2065,32.14034767
2066,32.98491974
2067,31.09190064
2068,31.94432106
2069,32.15318374
2070,30.39333878
2071,30.80285263
2072,32.04081765
2073,34.07376938
2074,33.43686905
2075,35.57618637
2076,41.13937683
2077,37.17139435
2078,33.5878418
2079,30.73667717
2080,33.86292953
2081,32.86492996
2082,29.10307388
2083,28.15050049
2084,27.62787971
2085,27.24436188
2086,26.29068298
2087,27.13722382
2088,28.5866333
2089,29.40502205
2090,30.53565674
2091,30.55028801
2092,27.68260651
2093,26.06359062
2094,24.89816665
2095,24.07787781
2096,28.20943069
2097,29.34473724
2098,26.05977745
2099,28.95813141
2100,29.11381683
2101,26.6471508
2102,24.17914429
2103,25.02077599
2104,27.18073273
2105,24.2980526
2106,26.61506844
2107,30.26385842
2108,30.53871803
2109,25.15062866
2110,21.90910091
2111,26.58712273
2112,28.27669144
2113,26.76396942
2114,21.39178581
2115,24.25687599
2116,25.87077675
2117,25.87834587
2118,23.94651756
2119,23.454142
2120,23.59484634
2121,22.35151863
2122,28.34542503
2123,32.93018074
2124,26.01480675
2125,27.76600991
2126,30.47245636
2127,31.71866455
2128,26.49028473
2129,24.00855408
2130,24.8201725
2131,25.23629608
2132,27.75728531
2133,30.49421349
2134,27.43910675
2135,25.08821678
2136,24.27587395
2137,26.6393692
2138,25.34962845
2139,23.62973862
2140,22.23783951
2141,24.63871651
2142,24.52843781
2143,22.37168617
2144,22.09282379
2145,24.047612
2146,25.68271103
2147,22.61167564
2148,20.88146324
2149,19.58754807
2150,18.46951675
2151,22.98989754
2152,25.04492264
2153,24.35625191
2154,23.7962677
2155,21.23447647
2156,19.7052124
2157,25.59183807
2158,28.02601929
2159,26.72411041
2160,20.55004845
2161,21.65684357
2162,21.67117119
2163,20.98837509
2164,27.17312965
2165,29.48365555
2166,27.40532036
2167,17.83603249
2168,21.33624267
2169,24.30913658
2170,22.61849098
2171,29.85018425
2172,30.58675919
2173,25.75280075
2174,17.56720428
2175,18.20328007
2176,21.11544456
2177,22.10450058
2178,24.75448913
2179,24.12581787
2180,20.28481674
2181,21.41712151
2182,21.70626793
2183,21.67074432
2184,21.95414658
2185,24.25801582
2186,24.82942924
2187,22.59494667
2188,22.31105461
2189,22.71881104
2190,23.85620422
2191,26.1299572
2192,21.97533073
2193,18.95019856
2194,20.37293053
2195,18.86388741
2196,20.49736786
2197,22.72200298
2198,16.45117054
2199,18.28802376
2200,19.95536575
2201,17.10170727
2202,18.51444359
2203,20.97073441
2204,23.90352898
2205,25.76160889
2206,23.46826057
2207,21.93235397
2208,23.9356636
2209,27.18728752
2210,27.45479279
2211,24.72186165
2212,18.55822411
2213,20.77817573
2214,23.37891007
2215,22.80488949
2216,23.084729
2217,24.31801796
2218,24.79059296
2219,19.90300789
2220,23.80769043
2221,24.99928741
2222,20.05051422
2223,21.49051666
2224,25.53800202
2225,29.07906647
2226,27.06074829
2227,26.8
2228,26.2407917
2229,24.73007011
2230,19.96441326
2231,19.11563549
2232,20.60067291
2233,23.63684311
2234,22.97866783
2235,22.35520668
2236,22.57988396
2237,25.76610794
2238,23.49795952
2239,20.66766434
2240,19.13859501
2241,22.47537842
2242,27.64191475
2243,29.88755684
2244,22.48012161
2245,23.11983642
2246,22.87174034
2247,22.69836311
2248,30.99149475
2249,31.7755249
2250,27.31463242
2251,18.6714634
2252,20.71187381
2253,22.36646995
2254,23.6974884
2255,24.71886177
2256,26.68154602
2257,24.38255501
2258,19.81223049
2259,20.98151894
2260,24.88648644
2261,25.57437591
2262,22.22682419
2263,27.64406815
2264,25.54531898
2265,20.97733765
2266,17.45942974
2267,15.95814381
2268,16.85441246
2269,20.48346939
2270,27.82501717
2271,27.15453033
2272,22.87353325
2273,18.92275219
2274,27.74771729
2275,23.29973679
2276,18.79909267
2277,18.1689209
2278,19.93694
2279,18.44144478
2280,19.38794784
2281,25.94352417
2282,23.72971344
2283,23.98996239
2284,24.90661125
2285,24.61109924
2286,25.88058586
2287,24.23570709
2288,21.4856247
2289,21.04159851
2290,22.47641296
2291,23.11763992
2292,22.8777813
2293,22.28473244
2294,19.40266495
2295,20.51948929
2296,24.80810928
2297,23.61998253
2298,20.49391136
2299,19.0880909
2300,20.33161259
2301,23.00947113
2302,21.27942543
2303,20.05444259
2304,21.13867607
2305,22.62891807
2306,26.24741173
2307,27.14966431
2308,23.57549705
2309,26.11323776
2310,25.05691185
2311,23.83335991
2312,24.29089394
2313,22.19742012
2314,19.35464363
2315,18.41830998
2316,20.97487869
2317,20.37572212
2318,19.14081192
2319,20.54464359
2320,26.43794556
2321,22.23669281
2322,23.11874695
2323,24.10241203
2324,21.96427345
2325,25.87209205
2326,24.64643173
2327,23.34618797
2328,24.99524765
2329,21.08076553
2330,20.76335678
2331,20.86245384
2332,19.4326189
2333,17.01960106
2334,19.20380325
2335,22.47248077
2336,24.11008224
2337,16.70762691
2338,21.97721596
2339,23.6259285
2340,17.63695736
2341,22.78210144
2342,24.89312591
2343,23.85007973
2344,20.0916275
2345,15.69565277
2346,20.10678596
2347,21.25351028
2348,19.69062729
2349,25.00514069
2350,25.6
2351,22.64532738
2352,19.46197243
2353,22.0476963
2354,18.18974171
2355,20.60953598
2356,23.23265991
2357,17.6
2358,17.6
2359,16.3390646
2360,14.04713821
2361,11.45669346
2362,15.27432404
2363,16.08425636
2364,15.38283444
2365,14.65074692
2366,17.86300144
2367,23.11621189
2368,23.947081
2369,19.85126839
2370,13.72230415
2371,16.14516029
2372,18.89774876
2373,20.41186676
2374,19.80776291
2375,22.11132469
2376,21.61508179
2377,20.78423614
2378,21.36681366
2379,23.05895576
2380,18.23835068
2381,17.38258972
2382,20.45888062
2383,16.7606781
2384,17.37399387
2385,18.17349358
2386,18.55233383
2387,18.38788071
2388,17.46124172
2389,18.53154507
2390,17.69974727
2391,14.86802292
2392,23.06718864
2393,27.51104546
2394,27.42627869
2395,23.18940468
2396,16.06110821
2397,17.74182053
2398,20.38511849
2399,19.33674507
2400,13.07630529
2401,18.04630299
2402,19.75348091
2403,20.68615379
2404,20.9615982
2405,19.0946991
2406,17.67010231
2407,18.54533195
2408,19.62218857
2409,19.30581646
2410,20.39729347
2411,18.31330204
2412,19.16056137
2413,22.51377068
2414,23.76327934
2415,26.07525482
2416,24.42354469
2417,20.98273621
2418,17.12283516
2419,10.54815598
2420,17.50836563
2421,19.94849625
2422,18.1525383
2423,17.94025116
2424,15.74376335
2425,19.45224762
2426,20.52149467
2427,18.33456688
2428,22.89209938
2429,19.09460411
2430,15.62544308
2431,14.90324039
2432,17.41872253
2433,17.57623177
2434,14.92367706
2435,14.14878998
2436,14.35739346
2437,13.02087002
2438,13.49445877
2439,14.58200817
2440,15.92672768
2441,18.59116821
2442,25.07442742
2443,19.76966667
2444,17.51940384
2445,17.71778278
2446,18.18488941
2447,13.90585499
2448,19.63672257
2449,14.38925362
2450,8.639333248
2451,10.49330444
2452,11.12865543
2453,15.29133511
2454,19.60163918
2455,23.14578514
2456,25.09015541
2457,22.38386803
2458,20.63310814
2459,17.88744583
2460,15.10115261
2461,14.08302746
2462,17.11446686
2463,14.51639061
2464,11.40606518
2465,11.04499912
2466,15.10674305
2467,16.38599205
2468,17.79906502
2469,15.6016943
2470,12.13304329
2471,12.10578919
2472,20.43948326
2473,19.25068741
2474,19.98617592
2475,21.594421
2476,19.95322113
2477,19.47135811
2478,18.1677969
2479,17.01394119
2480,16.80956516
2481,17.50885277
2482,15.09416161
2483,20.17500076
2484,17.98933811
2485,15.33042641
2486,18.44981918
2487,17.48178921
2488,17.40000019
2489,18.05566635
2490,17.6083107
2491,16.12460728
2492,17.74158363
2493,18.57971382
2494,19.97795677
2495,26.69909325
2496,31.51260071
2497,16.03014221
2498,17.32732315
2499,13.37157288
2500,14.07434998
2501,15.63605337
2502,10.19301891
2503,16.53083839
2504,15.29550247
2505,12.64975834
2506,12.18224888
2507,15.25493126
2508,19.00092526
2509,20.58869533
2510,14.78181944
2511,11.28460703
2512,13.55883627
2513,17.12954597
2514,20.23265343
2515,13.85617523
2516,13.40702515
2517,15.32872562
2518,12.93115482
2519,16.53219795
2520,17.10318985
2521,16.96913376
2522,16.24460468
2523,14.36027088
2524,10.92440109
2525,18.14644737
2526,20.07861366
2527,20.4
2528,18.27609157
2529,14.49088268
2530,18.43890457
2531,14.81097927
2532,16.25070858
2533,16.22920284
2534,12.95033989
2535,9.688039399
2536,12.49229164
2537,17.20810108
2538,15.10249195
2539,13.28117294
2540,14.78760204
2541,14.15609245
2542,17.46433201
2543,19.1096405
2544,20.53839264
2545,19.7923233
2546,16.90681381
2547,17.40414848
2548,17.90175438
2549,15.46932373
2550,13.90237484
2551,15.68947086
2552,19.11921883
2553,14.46464691
2554,13.90795135
2555,14.06082878
2556,14.49065647
2557,14.5462801
2558,14.2103344
2559,15.37718506
2560,17.19875965
2561,17.33924045
2562,14.37801208
2563,12.5576437
2564,14.84304543
2565,14.00728569
2566,15.82364483
2567,12.60622234
2568,9.192098236
2569,10.92998829
2570,16.29955616
2571,11.30268536
2572,16.83691253
2573,16.13685512
2574,17.10319633
2575,16.81491242
2576,13.37617912
2577,11.98828411
2578,15.01524754
2579,13.49068966
2580,13.83671017
2581,16.02094478
2582,16.75067978
2583,13.07639923
2584,12.06464233
2585,26.0565731
2586,17.38075142
2587,11.82503719
2588,13.53547096
2589,13.90315495
2590,16.36576233
2591,14.16640759
2592,14.78751183
2593,14.4271492
2594,14.35872116
2595,14.16463185
2596,11.339575
2597,14.39317551
2598,12.22639008
2599,15.95362663
2600,18.98758793
2601,16.47700405
2602,10.6654932
2603,11.79195957
2604,11.62175789
2605,8.480984879
2606,7.637767696
2607,13.06987533
2608,18.04434376
2609,14.61296082
2610,16.00384178
2611,47.93588562
2612,25.3760273
2613,16.81283874
2614,16.34678364
2615,13.89060917
2616,15.77104015
2617,13.0314312
2618,9.443580056
2619,14.42995205
2620,14.44333687
2621,11.76226864
2622,7.552879907
2623,2.392250675
2624,20.08618221
2625,14.73524551
2626,12.94361763
2627,12.3704689
2628,12.28687877
2629,17.36195183
2630,26.88074493
2631,14.3815485
2632,13.519345
2633,16.07574272
2634,14.33244381
2635,11.56675224
2636,10.8001379
2637,11.36284008
2638,10.67374182
2639,14.4798132
2640,9.251265907
2641,10.43407555
2642,11.59009666
2643,11.47827902
2644,10.92808323
2645,8.773448181
2646,7.211346245
2647,4.441606927
2648,8.091909504
2649,9.719959451
2650,8.392107486
2651,9.174381447
2652,13.42290363
2653,12.04811955
2654,12.57079735
2655,12.92916107
2656,9.247652817
2657,7.713451576
2658,8.152031326
2659,7.910908127
2660,7.184609175
2661,10.89185829
2662,15.08912907
2663,14.5898962
2664,11.38433847
2665,-5.709585571
2666,-8.732603931
2667,6.775406075
2668,13.68545894
2669,10.05776758
2670,13.39318285
2671,11.128722
2672,12.14517441
2673,10.47458878
2674,10.45874481
2675,12.74058094
2676,13.5324852
2677,13.9188427
2678,13.2139965
2679,12.50877876
2680,6.133936976
2681,10.91134653
2682,13.46681967
2683,10.10770569
2684,7.811177969
2685,9.367639732
2686,9.236965847
2687,9.944850922
2688,11.95926151
2689,13.6637228
2690,11.96487121
2691,10.49494619
2692,9.514947319
2693,9.84148302
2694,15.28634396
2695,7.020032787
2696,7.730965043
2697,12.13512936
2698,11.26151905
2699,8.769713401
2700,6.843849373
2701,9.706287002
2702,14.16361732
2703,8.843075371
2704,12.53891373
2705,11.11094131
2706,12.64717026
2707,10.99259815
2708,10.44427795
2709,9.792190456
2710,10.1185709
2711,10.97534304
2712,-107.7958477
2713,-553.7404526
2714,-10.21841869
2715,5.170480037
2716,9.525478363
2717,7.635418511
2718,5.856907654
2719,8.609904385
2720,10.00631905
2721,7.56670351
2722,22.24910927
2723,77.08958893
2724,15.12657414
2725,11.95578461
2726,7.478501891
2727,9.972388173
2728,10.53276958
2729,12.37713146
2730,11.88516922
2731,7.342830228
2732,10.35183849
2733,10.15112524
2734,2.00655489
2735,8.332935333
2736,12.24227886
2737,16.29758415
2738,11.3640543
2739,7.281546784
2740,6.824660397
2741,10.13303947
2742,13.99679089
2743,6.094717646
2744,7.541551018
2745,6.813732576
2746,9.657860183
2747,8.231720256
2748,10.23059721
2749,10.07241592
2750,8.969258784
2751,9.41153698
2752,11.78213139
2753,11.31897812
2754,8.263829755
2755,25.05920219
2756,6.800000001
2757,6.799999953
2758,9.180538749
2759,13.43086815
2760,9.821833993
2761,12.63544025
2762,12.27932701
2763,8.53929739
2764,7.988385867
2765,7.545736312
2766,8.466178655
2767,12.47246818
2768,8.122365999
2769,5.729257059
2770,4.903062511
2771,8.921011733
2772,10.99998817
2773,9.490509224
2774,6.610681438
2775,8.961728287
2776,11.70134449
2777,9.865966605
2778,9.033722496
2779,6.522526026
2780,7.644610404
2781,4.787981564
2782,10.53082152
2783,8.503385927
2784,9.01049118
2785,10.23336544
2786,9.667326643
2787,5.274832916
2788,2.181040153
2789,4.790645957
2790,8.323398494
2791,8.38800354
2792,8.458229066
2793,7.11942749
2794,5.799999952
2795,5.815675235
2796,6.188719082
2797,5.838047218
2798,5.632315934
2799,12.55171318
2800,15.30685997
2801,14.05976982
2802,10.08354778
2803,8.518108845
2804,7.762542701
2805,6.926238347
2806,7.559895826
2807,6.425821018
2808,7.802282906
2809,6.419866467
2810,7.341401432
2811,1.914542523
2812,8.682240534
2813,13.83997993
2814,5.191037631
2815,12.74229374
2816,8.772953033
2817,6.597559405
2818,5.710409355
2819,7.962003327
2820,8.234441948
2821,7.483379126
2822,8.028879834
2823,7.29917984
2824,10.07430296
2825,8.330463792
2826,5.10170908
2827,5.175729918
2828,9.439894675
2829,3.649655104
2830,11.61553936
2831,10.01335697
2832,7.584085369
2833,6.879201126
2834,7.401748848
2835,4.507491541
2836,3.200000024
2837,8.044486236
2838,8.634936048
2839,7.314214897
2840,7.536846112
2841,8.749821663
2842,12.08935509
2843,13.01504345
2844,9.393223572
2845,2.729577851
2846,2.99574027
2847,10.18746662
2848,7.695897007
2849,6.714116192
2850,5.563926363
2851,13.80445519
2852,10.25621252
2853,9.462936972
2854,6.493888807
2855,5.511092091
2856,9.587319947
2857,13.15676269
2858,12.88316326
2859,10.81591854
2860,9.003965664
2861,10.27355575
2862,9.294501973
2863,9.246253015
2864,7.086582661
2865,2.18102839
2866,5.067302513
2867,8.682761288
2868,6.479254198
2869,8.106421566
2870,7.157822418
2871,5.35938878
2872,12.35155811
2873,9.149307251
2874,12.51143618
2875,11.95308456
2876,11.89734173
2877,14.90703831
2878,13.24799271
2879,8.200338746
2880,8.589183761
2881,14.46245251
2882,10.94171791
2883,11.31376419
2884,9.320982455
2885,7.318410397
2886,9.44745531
2887,8.41734333
2888,12.91088028
2889,9.639623451
2890,6.270127964
2891,4.063873947
2892,9.891388703
2893,8.155796624
2894,6.360256291
2895,9.742211726
2896,6.738512325
2897,7.871411896
2898,7.099350071
2899,5.299446344
2900,7.531288243
2901,8.799791717
2902,8.620893573
2903,9.677346993
2904,9.17127695
2905,4.203185582
2906,4.029677725
2907,7.723378753
2908,9.44809885
2909,13.50746307
2910,14.0223404
2911,7.818822193
2912,7.82632103
2913,9.506356334
2914,5.09556942
2915,3.939091134
2916,4.50635972
2917,7.907515526
2918,11.26380043
2919,10.66632328
2920,13.31954527
2921,6.951927185
2922,15.28507672
2923,26.76877899
2924,3.85994482
2925,7.894301605
2926,9.863331318
2927,9.468837547
2928,5.989073277
2929,10.82788763
2930,8.993011235
2931,8.082590485
2932,10.00587215
2933,7.114887619
2934,7.695908641
2935,5.267665613
2936,7.277857781
2937,7.483040714
2938,7.626319408
2939,10.08178663
2940,9.083054305
2941,7.48272133
2942,8.339468098
2943,4.904716253
2944,7.177805519
2945,6.030864143
2946,8.437042855
2947,9.098630287
2948,2.588896131
2949,6.867010784
2950,5.604220104
2951,5.958016777
2952,9.216006184
2953,10.34631844
2954,11.19836044
2955,12.19421539
2956,10.33611813
2957,13.31151466
2958,7.454880238
2959,4.670440483
2960,6.59572239
2961,10.8919241
2962,8.71908827
2963,6.058294535
2964,5.225970435
2965,5.163385534
2966,3.139373982
2967,5.183266223
2968,10.66476288
2969,10.26401062
2970,5.2
2971,7.939228344
2972,7.762722206
2973,5.417638445
2974,6.38860178
2975,7.233198165
2976,6.072912215
2977,2.204962587
2978,7.239427233
2979,9.265772342
2980,11.01938314
2981,7.072652388
2982,5.588377285
2983,3.066405618
2984,4.707879877
2985,-1.877524877
2986,3.239099121
2987,2.536046624
2988,7.164100169
2989,-0.055536742
2990,4.657481193
2991,11.97664471
2992,1.227115762
2993,14.05088253
2994,8.116279221
2995,0.224612772
2996,2.834114313
2997,4.807549859
2998,5.676057625
2999,3.987788193
3000,2.41605835
