Frequency,Density
0,158.8
1,158.8
2,158.8
3,158.8
4,158.8
5,158.8
6,158.8
7,158.8
8,158.8
9,158.8
10,158.8
11,158.8
12,158.8
13,158.8
14,158.8
15,158.8
16,158.8
17,158.8
18,158.8
19,158.8
20,158.8
21,158.8
22,158.8
23,158.8
24,158.8
25,158.8
26,158.8
27,158.8
28,158.8
29,158.8
30,158.8
31,158.8
32,158.8
33,158.8
34,158.8
35,158.8
36,158.8
37,158.8
38,158.8
39,158.8
40,158.8
41,158.8
42,158.8
43,158.8
44,158.8
45,158.8
46,158.8
47,158.8
48,158.8
49,158.8
50,158.8
51,158.8
52,158.8
53,158.8
54,158.8
55,158.8
56,158.8
57,158.8
58,158.8
59,158.8
60,158.8
61,158.8
62,158.8
63,158.8
64,158.8
65,158.8
66,158.8
67,158.8
68,158.8
69,158.8
70,158.8
71,158.8
72,158.8
73,158.8
74,158.8
75,158.8
76,158.8
77,158.8
78,158.8
79,158.8
80,158.8
81,158.8
82,158.8
83,158.8
84,158.8
85,158.8
86,158.8
87,158.8
88,158.8
89,158.8
90,158.8
91,158.8
92,158.8
93,158.8
94,158.8
95,158.8
96,158.8
97,158.8
98,158.8
99,158.8
100,158.8
101,158.8
102,158.8
103,158.8
104,158.8
105,158.8
106,158.8
107,158.8
108,158.8
109,158.8
110,158.8
111,158.8
112,158.8
113,158.8
114,158.8
115,158.8
116,158.8
117,158.8
118,158.8
119,158.8
120,158.8
121,158.8
122,158.8
123,158.8
124,158.8
125,158.8
126,158.8
127,158.8
128,158.8
129,158.8
130,158.8
131,158.8
132,158.8
133,158.8
134,158.8
135,158.8
136,158.8
137,158.8
138,158.8
139,158.8
140,158.8
141,158.8
142,158.8
143,158.8
144,158.8
145,158.8
146,158.8
147,158.8
148,158.8
149,158.8
150,158.8
151,158.8
152,158.8
153,158.8
154,158.8
155,158.8
156,158.8
157,158.8
158,158.8
159,158.8
160,158.8
161,158.8
162,158.8
163,158.8
164,158.8
165,158.8
166,158.8
167,158.8
168,158.8
169,158.8
170,158.8
171,158.8
172,158.8
173,158.8
174,158.8
175,158.8
176,158.8
177,158.8
178,158.8
179,158.8
180,158.8
181,158.8
182,158.8
183,158.8
184,158.8
185,158.8
186,158.8
187,158.8
188,158.8
189,158.8
190,158.8
191,158.8
192,158.8
193,158.8
194,158.8
195,158.8
196,158.8
197,158.8
198,158.8
199,173.8471191
200,226.5029816
201,279.158844
202,294.4187378
203,293.8763794
204,293.0415771
205,290.0955871
206,287.1495911
207,288.7424744
208,294.1724915
209,299.6025086
210,296.8082215
211,293.7035339
212,292.2206604
213,293.3079285
214,294.3952148
215,294.4738525
216,294.3184387
217,295.0695252
218,298.7239807
219,302.3784302
220,301.1656921
221,297.5090821
222,294.2591858
223,294.8819519
224,295.504718
225,295.3494446
226,294.4926392
227,293.6358337
228,294.8695312
229,296.1944641
230,295.5631714
231,291.8979614
232,288.2327637
233,284.8885498
234,281.6113403
235,278.8286865
236,277.4233429
237,276.0179962
238,274.1180969
239,272.0088318
240,270.0552612
241,269.039093
242,268.0229248
243,268.6502045
244,270.4491028
245,272.1248505
246,269.3075226
247,266.4902069
248,264.741803
249,264.1936645
250,263.6455322
251,264.8931671
252,266.3034821
253,265.8576386
254,262.1729736
255,258.4883148
256,256.332843
257,254.5286468
258,253.4896301
259,254.5884796
260,255.6873322
261,257.1237762
262,258.6944794
263,259.6550415
264,257.6119293
265,255.5687988
266,254.6528748
267,254.4169922
268,254.4394318
269,257.4290558
270,260.4186707
271,260.0637116
272,256.8361786
273,253.6086334
274,252.1074402
275,250.6108612
276,250.6666657
277,252.5581818
278,254.4496979
279,251.6236786
280,248.3904327
281,248.0985016
282,252.5172363
283,256.9359741
284,257.8012695
285,258.0381226
286,257.8248871
287,256.6398987
288,255.4549255
289,256.999176
290,259.2915039
291,261.5841644
292,263.877832
293,266.1715088
294,266.8
295,266.8
296,267.1147949
297,268.6984985
298,270.2822022
299,270.3200592
300,269.6069702
301,269.2595367
302,271.0036621
303,272.7477905
304,272.5060791
305,271.0782257
306,270.0328766
307,272.2552918
308,274.4777069
309,275.7252197
310,276.2811524
311,276.4448761
312,271.1207001
313,265.7965027
314,261.7385529
315,258.7170898
316,255.7890076
317,255.4707703
318,255.1525329
319,254.378244
320,253.1841614
321,251.9966888
322,251.5984253
323,251.2001587
324,250.3260528
325,248.9711578
326,247.6162628
327,249.2545837
328,250.9292572
329,252.2213623
330,253.0990906
331,253.9768158
332,252.0566895
333,250.060672
334,250.8343567
335,254.7488525
336,258.6633515
337,255.0199219
338,251.1031189
339,246.9259888
340,242.4469971
341,237.9680115
342,240.1108154
343,242.5116882
344,244.5421387
345,246.1436676
346,247.7451935
347,249.1928619
348,250.6350891
349,251.2117523
350,250.8108917
351,250.4100403
352,249.2268738
353,248.0236084
354,247.3613312
355,247.2810669
356,247.2007996
357,243.6220703
358,240.0079986
359,238.1196869
360,237.958963
361,237.8219665
362,239.8321472
363,241.842334
364,243.3476288
365,244.3935364
366,245.2937286
367,242.4761535
368,239.6585846
369,239.4250824
370,241.2777252
371,242.9716461
372,242.5686615
373,242.1656738
374,240.5752838
375,238.1559448
376,235.7979492
377,233.9420258
378,232.0861053
379,233.3847626
380,236.5336151
381,238.7791412
382,236.03237
383,233.2855988
384,230.9759155
385,228.8742035
386,227.200003
387,227.2
388,227.2
389,228.8557861
390,231.1218353
391,232.5689087
392,231.6781494
393,230.7873901
394,233.6710632
395,237.5603088
396,240.9553864
397,243.3065216
398,245.6576599
399,246.4158569
400,246.9025818
401,248.0839966
402,250.3567413
403,252.62948
404,251.2975128
405,249.6731781
406,251.468222
407,257.2380585
408,263.0152222
409,274.15513
410,285.2950317
411,299.0390198
412,314.9858032
413,329.6476257
414,330.2174866
415,330.7873535
416,321.7580444
417,307.0142883
418,292.6046448
419,279.8083069
420,267.0119781
421,256.2003723
422,246.1693023
423,238.2586731
424,236.218634
425,234.178598
426,233.9994903
427,234.2444397
428,234.1316772
429,233.3963959
430,232.6611114
431,230.8011627
432,228.8392487
433,228.5693298
434,230.2052185
435,231.7444702
436,229.5347229
437,227.3249695
438,227.3522522
439,228.9900696
440,230.2175781
441,228.9065552
442,227.595517
443,225.0243866
444,221.9088531
445,220.2584686
446,222.801593
447,225.3447083
448,226.0695526
449,226.3978943
450,225.3053497
451,221.9378998
452,218.5704437
453,220.5846161
454,222.8856933
455,224.5937408
456,225.7449616
457,226.3738037
458,221.2725281
459,216.1712555
460,212.7340057
461,210.1818603
462,208.7153961
463,211.0219208
464,213.3284454
465,213.8655731
466,213.9479981
467,213.421637
468,211.8546478
469,210.2876526
470,208.797699
471,207.3123047
472,208.0181702
473,210.7430053
474,213.1025482
475,212.1111176
476,211.1196808
477,210.7439881
478,210.661319
479,209.9805176
480,207.5817291
481,205.1829315
482,204.4522339
483,204.0384003
484,204.9234039
485,207.5734802
486,210.1955841
487,209.6983978
488,209.2012176
489,208.5064331
490,207.6773041
491,206.6202179
492,204.5461731
493,202.4721283
494,202.2564575
495,202.588501
496,203.1618439
497,204.1585632
498,205.1552796
499,203.1361175
500,200.9752838
501,202.3268677
502,206.567926
503,210.2597382
504,210.6757751
505,211.0918121
506,208.6125549
507,205.1157837
508,203.1094849
509,204.0258484
510,204.9422089
511,207.4210388
512,210.0050354
513,209.6308044
514,206.7116577
515,204.3980346
516,205.816742
517,207.2354492
518,202.8845093
519,196.5383026
520,193.7371521
521,197.5805511
522,201.4239471
523,200.6427368
524,199.6395172
525,202.3021789
526,207.8231384
527,212.2854919
528,211.6158935
529,210.946289
530,212.6981293
531,215.1268768
532,216.3691925
533,215.7825989
534,215.1720184
535,211.0634155
536,206.9548248
537,203.9398315
538,201.5906738
539,199.6602967
540,199.0726624
541,198.485022
542,199.8368896
543,201.5168457
544,201.6425934
545,200.0456909
546,198.9424164
547,202.5585968
548,206.1747803
549,206.2956421
550,205.0334412
551,204.1141968
552,203.8616058
553,203.609021
554,200.5129089
555,197.3115448
556,196.5473816
557,197.4746338
558,198.1265381
559,197.7891571
560,197.45177
561,197.3285553
562,197.2441589
563,196.7973816
564,195.9529205
565,195.3831879
566,197.0731079
567,198.763028
568,200.0775848
569,201.2612274
570,200.6646027
571,197.1115692
572,193.6246918
573,195.7408417
574,197.8569977
575,197.1161255
576,194.8293274
577,193.7360352
578,195.6004486
579,197.4648682
580,195.7910431
581,193.8407257
582,192.0345642
583,190.3376373
584,188.9640472
585,188.7942566
586,188.6244629
587,189.6179199
588,190.8071808
589,189.6522492
590,186.1673553
591,183.3136719
592,184.0791016
593,184.8445282
594,188.1194061
595,192.0339111
596,192.5646423
597,188.9032623
598,185.8333313
599,188.2188965
600,190.6044556
601,189.1530517
602,186.4250763
603,185.6276642
604,187.6748535
605,189.6814117
606,191.0470093
607,192.4126129
608,190.108316
609,186.3506805
610,185.0558319
611,187.8757233
612,190.6318909
613,191.5724091
614,192.5129303
615,192.2650482
616,191.4950714
617,191.5806885
618,193.2071442
619,194.792923
620,194.4503052
621,194.1076874
622,192.8834503
623,191.2550659
624,188.9017151
625,185.2142426
626,181.5965912
627,181.4249817
628,181.2533661
629,182.7380859
630,184.9703613
631,187.3266693
632,189.9039032
633,192.4378845
634,193.6413025
635,194.8447205
636,196.9579071
637,199.452182
638,200.804068
639,200.2877014
640,199.7569885
641,198.9819824
642,198.2069824
643,194.1477997
644,188.8918945
645,185.87099
646,186.0434204
647,186.0652222
648,184.5987274
649,183.1322327
650,184.6025452
651,186.9330658
652,187.2540283
653,185.1812256
654,183.8011536
655,186.6529419
656,189.5047272
657,190.1429047
658,190.3158417
659,189.7337586
660,188.4359527
661,187.8017487
662,189.7928955
663,191.7840393
664,190.3009888
665,188.395285
666,188.8625824
667,191.0294372
668,191.4544433
669,187.2916168
670,183.1287903
671,184.7659332
672,186.5882477
673,189.0457672
674,191.8242737
675,193.0356018
676,191.4717682
677,189.84646
678,187.2385254
679,184.6305847
680,184.6595093
681,185.5293366
682,186
683,186
684,186.518631
685,189.7408081
686,192.9629883
687,193.92724
688,194.5371979
689,196.4375885
690,199.3148285
691,199.9350006
692,194.6133087
693,189.2916168
694,187.8273651
695,186.4306824
696,182.9794678
697,178.6122528
698,175.8244019
699,175.3874207
700,175.2876282
701,177.8236115
702,180.3596039
703,180.293869
704,179.6813721
705,179.1160095
706,178.5906982
707,178.0204132
708,177.3195831
709,176.6187561
710,178.8180481
711,181.0970886
712,180.5868744
713,178.832724
714,178.0526489
715,178.6669647
716,179.4091248
717,180.9897308
718,182.5703369
719,180.8474792
720,178.563031
721,177.5491455
722,177.4612305
723,176.7591766
724,174.6479523
725,172.6553955
726,174.5038178
727,176.3522339
728,174.7978851
729,172.155719
730,172.0013916
731,174.4688721
732,176.4575012
733,176.7220306
734,176.986557
735,177.251239
736,177.515921
737,176.5759338
738,175.0751526
739,175.1574127
740,177.4540833
741,179.3055115
742,178.6868073
743,178.0681061
744,178.1574066
745,178.3342804
746,177.6770325
747,176.5266571
748,175.4738617
749,174.5884338
750,174.149411
751,177.338858
752,180.5283112
753,177.7518646
754,173.9399811
755,171.7656067
756,170.7011963
757,169.9697144
758,169.8809631
759,170.4004211
760,177.2384949
761,184.0765747
762,182.1553253
763,178.5121155
764,176.0118317
765,174.3225067
766,173.1402985
767,172.9623718
768,172.768869
769,172.4128021
770,172.0567291
771,170.4275421
772,168.557077
773,167.6408508
774,167.3734802
775,168.3273163
776,171.5376404
777,174.1001892
778,171.3341034
779,168.5680115
780,168.509613
781,168.8667358
782,166.8720276
783,163.4773132
784,162.9609985
785,166.9834351
786,170.4269439
787,170.6058227
788,170.7847046
789,172.4368408
790,174.2267151
791,172.2436584
792,168.4826904
793,168.3991272
794,172.8791199
795,176.3808075
796,176.2911499
797,176.2015015
798,170.2902588
799,164.2799377
800,164.9650482
801,167.8373474
802,169.7664551
803,170.8442108
804,171.6805389
805,171.9501373
806,172.0354462
807,169.7874603
808,167.5394745
809,167.2763855
810,167.3663574
811,169.0909424
812,171.7917297
813,172.124646
814,168.9718597
815,166.698938
816,168.3213349
817,169.9437317
818,170.174118
819,170.3544891
820,169.4553925
821,168.1920319
822,168.175766
823,169.2592926
824,169.1996185
825,166.6698913
826,164.7621185
827,168.2877533
828,171.8133911
829,167.2067841
830,161.5986023
831,162.8740661
832,167.3994873
833,167.5462708
834,162.7464783
835,158.8450806
836,157.4858429
837,156.4203094
838,160.5004425
839,164.5805817
840,165.2769531
841,165.3676727
842,164.4650879
843,163.0126495
844,163.600357
845,166.7794495
846,169.0265167
847,168.2994354
848,167.5273804
849,165.6176636
850,163.7079437
851,165.4606537
852,167.9174652
853,168.6249725
854,168.3518372
855,167.1480499
856,164.7794159
857,163.4081604
858,165.0489563
859,166.6099762
860,166.7923981
861,166.9748169
862,168.3372894
863,169.8887756
864,169.236673
865,167.5016388
866,167.7850159
867,170.2520569
868,172.1865448
869,172.8265289
870,173.1908356
871,171.1782654
872,169.1656891
873,168.6640045
874,168.2978638
875,167.3275848
876,166.1369232
877,164.2414307
878,161.7670502
879,160.7379974
880,162.2051697
881,162.5995392
882,158.2871612
883,154.0284424
884,158.894223
885,163.7599945
886,159.8118011
887,154.0245239
888,152.537854
889,153.3651032
890,155.7192871
891,159.7660004
892,161.4692993
893,157.6962494
894,154.4814514
895,155.1260101
896,155.7705749
897,158.3499268
898,161.0218353
899,158.4936402
900,154.5294922
901,156.2292572
902,161.4871826
903,163.947168
904,162.9318726
905,161.5039337
906,159.0103729
907,156.6845611
908,155.6680633
909,154.6515656
910,153.4589508
911,152.2569214
912,153.5276154
913,155.4705078
914,154.928067
915,152.891449
916,153.7344605
917,157.9027497
918,160.630426
919,160.0743256
920,159.1090485
921,155.770459
922,152.4318603
923,154.6977051
924,157.0175537
925,161.8198914
926,167.1122803
927,164.9400696
928,159.2729218
929,156.0597351
930,155.0371857
931,154.7505463
932,155.6806915
933,156.9695954
934,159.4824829
935,161.2787048
936,154.5736939
937,147.8686783
938,147.4
939,147.3999985
940,147.3269303
941,147.2336944
942,147.2
943,147.1999985
944,147.3385635
945,147.6186066
946,148.6554474
947,151.083902
948,152.5464874
949,150.3969604
950,148.2606155
951,146.2968369
952,144.3330582
953,145.9445801
954,147.8159546
955,150.3579132
956,153.0730224
957,154.1850891
958,154.4661285
959,152.5874848
960,148.7443191
961,144.900264
962,141.0548065
963,139.0461716
964,142.3308273
965,145.2
966,145.2
967,145.1999969
968,146.510994
969,147.8264206
970,143.8379532
971,139.0432083
972,139.1935867
973,141.0750015
974,142.204985
975,142.8638687
976,144.1688415
977,146.1466736
978,146.6750641
979,144.6960587
980,144.1434601
981,148.0095306
982,151.0517929
983,148.2212738
984,145.4024658
985,146.1577164
986,146.91297
987,148.1700836
988,149.4925629
989,151.323468
990,153.3083618
991,151.7200485
992,148.2207733
993,148.5812195
994,152.271843
995,152.2753937
996,147.2569549
997,143.7115631
998,143.42733
999,143.3708054
1000,144.2240082
1001,144.8025726
1002,142.620877
1003,140.439177
1004,141.704921
1005,143.0337021
1006,142.9507507
1007,142.6658401
1008,140.2618958
1009,137.2210693
1010,135.884224
1011,135.4088165
1012,136.8005356
1013,139.6546997
1014,140.6761429
1015,139.5337967
1016,138.7659363
1017,138.6706802
1018,138.3295715
1019,137.2811798
1020,137.1605301
1021,141.9287918
1022,146.1978821
1023,142.9535324
1024,139.7091858
1025,139.876796
1026,140.1632324
1027,138.3680084
1028,136.2662262
1029,135.2792862
1030,134.610141
1031,133.8095016
1032,132.9486557
1033,132.5430573
1034,132.4473511
1035,132.6903046
1036,133.2648804
1037,134.5184738
1038,136.7223297
1039,137.6629364
1040,136.0330276
1041,135.127037
1042,136.470108
1043,137.5085815
1044,136.9326355
1045,136.414447
1046,136.606543
1047,136.7986389
1048,136.6091537
1049,136.4169434
1050,139.2936218
1051,142.4669769
1052,138.0364288
1053,132.0708252
1054,134.734758
1055,140.2225266
1056,139.5249985
1057,135.8643127
1058,135.0940063
1059,136.2507004
1060,137.1038788
1061,137.6825668
1062,136.1700913
1063,132.1168442
1064,131.1739197
1065,135.3261368
1066,137.4563248
1067,135.0408096
1068,133.798053
1069,136.3116852
1070,138.1544754
1071,136.7034409
1072,134.9274322
1073,130.2813614
1074,125.8995743
1075,128.7082459
1076,131.5169159
1077,133.0106262
1078,134.4642548
1079,133.6329834
1080,132.5663544
1081,134.2835022
1082,136.5150421
1083,138.1397583
1084,139.5959778
1085,140.5615082
1086,141.33862
1087,136.5041229
1088,128.8255752
1089,123.1479904
1090,118.7715332
1091,120.0619538
1092,125.9980164
1093,131.0213883
1094,135.1109436
1095,135.9415848
1096,132.6290222
1097,128.4091278
1098,122.7549255
1099,120.7038132
1100,125.7761124
1101,128.7032303
1102,126.2631744
1103,124.7232452
1104,126.0904907
1105,127.0710571
1106,126.3870255
1107,126.1189072
1108,128.3677673
1109,130.2115173
1110,128.2548264
1111,126.4764465
1112,127.9448394
1113,129.4088257
1114,130.3883392
1115,131.3678497
1116,129.8833191
1117,128.3151734
1118,125.65578
1119,122.9098831
1120,123.8187271
1121,125.1924927
1122,124.7331726
1123,123.9476959
1124,128.0277924
1125,133.2346543
1126,131.3479813
1127,127.4159317
1128,125.1599152
1129,123.4878037
1130,123.6970688
1131,124.6812546
1132,122.9359298
1133,119.8831543
1134,119.8807571
1135,121.5558579
1136,122.3820419
1137,122.6778229
1138,120.7734024
1139,117.3205643
1140,116.7390915
1141,118.4171814
1142,121.7820267
1143,126.6217529
1144,127.5926041
1145,124.8254074
1146,122.0094528
1147,119.1417145
1148,118.2405273
1149,119.6257736
1150,120.1379761
1151,119.5439453
1152,118.8246506
1153,117.9330734
1154,119.1138672
1155,123.3761521
1156,124.1318298
1157,119.2719192
1158,116.3095337
1159,116.6072556
1160,117.9904785
1161,121.3666748
1162,122.5237137
1163,119.344223
1164,118.5272186
1165,122.6033646
1166,124.3695419
1167,121.0867966
1168,118.6188095
1169,118.0215897
1170,117.5707138
1171,117.4711182
1172,118.1979111
1173,120.9882492
1174,122.2765945
1175,119.6840286
1176,118.0726761
1177,119.0704132
1178,119.4512039
1179,118.1533768
1180,118.048381
1181,121.2449341
1182,122.968512
1183,120.5696716
1184,118.6950745
1185,118.2950302
1186,118.4202972
1187,120.0214264
1188,120.4600876
1189,117.6564483
1190,116.4544464
1191,119.6605148
1192,121.8916138
1193,121.4906143
1194,120.8134369
1195,119.409111
1196,118.2870148
1197,117.8855408
1198,116.932988
1199,114.6231354
1200,113.3883743
1201,114.6947159
1202,117.0199844
1203,121.6451813
1204,123.8085052
1205,120.6896683
1206,117.404129
1207,113.7801026
1208,112.2643494
1209,114.7825317
1210,117.4093979
1211,120.2314407
1212,121.2847107
1213,119.3686157
1214,116.9796982
1215,113.8515778
1216,112.8240662
1217,114.8434098
1218,115.3525513
1219,113.837143
1220,114.8097855
1221,118.8532776
1222,119.861261
1223,117.433725
1224,114.6570724
1225,111.5196335
1226,110.3655288
1227,111.0744003
1228,113.4818833
1229,117.3323471
1230,114.9766357
1231,107.879454
1232,105.8440475
1233,107.264328
1234,110.8979706
1235,115.8719132
1236,114.9487503
1237,110.8859772
1238,110.5029938
1239,111.8241837
1240,111.254068
1241,109.9320953
1242,114.8570862
1243,121.8778839
1244,119.0941254
1245,113.5963196
1246,112.0161285
1247,111.3030243
1248,109.3686783
1249,107.2281006
1250,110.9183594
1251,115.3040573
1252,117.0275085
1253,118.558313
1254,116.1166641
1255,113.5420502
1256,109.4550507
1257,105.6870346
1258,107.2205719
1259,108.3943985
1260,106.3484665
1261,105.2697006
1262,109.8757873
1263,113.3646927
1264,112.135672
1265,111.4935226
1266,112.7232742
1267,113.3645096
1268,112.5441864
1269,111.6891647
1270,110.7657547
1271,110.6373962
1272,111.7666809
1273,113.0316055
1274,114.4697296
1275,113.6316681
1276,110.4453537
1277,109.0561935
1278,109.1590378
1279,110.8099533
1280,113.4855286
1281,111.0790268
1282,106.0336029
1283,107.32892
1284,111.1409973
1285,108.8055893
1286,104.6819733
1287,105.0331055
1288,106.2709274
1289,108.9886169
1290,111.8785797
1291,111.6042587
1292,111.1712555
1293,109.8278885
1294,108.6444397
1295,109.1614273
1296,109.5843079
1297,109.4808502
1298,109.1963913
1299,108.264711
1300,106.6205185
1301,103.2023163
1302,102.9539459
1303,108.4470505
1304,111.3349213
1305,110.7126892
1306,107.457605
1307,101.5429001
1308,101.0124481
1309,104.5426147
1310,106.9370667
1311,108.7032013
1312,107.9299103
1313,106.1627289
1314,104.6427017
1315,103.1865067
1316,102.0017975
1317,100.8569656
1318,103.5707642
1319,106.3690475
1320,105.3270554
1321,104.1124802
1322,101.5059418
1323,99.05939637
1324,97.28589782
1325,97.2340744
1326,101.7226456
1327,105.1623871
1328,106.7291
1329,107.1822647
1330,106.2416779
1331,104.9679916
1332,103.3994171
1333,100.343338
1334,96.36724702
1335,96.679216
1336,98.77313843
1337,100.3676361
1338,101.8342514
1339,101.9070251
1340,101.8022049
1341,105.0856568
1342,108.8429565
1343,117.7633072
1344,124.2568787
1345,118.5864639
1346,116.5447571
1347,124.7402283
1348,127.4768127
1349,120.4329285
1350,113.5309967
1351,106.7985092
1352,103.5664886
1353,103.1454559
1354,103.827211
1355,105.0910538
1356,105.4
1357,105.3999985
1358,104.1338226
1359,102.6575851
1360,101.4846832
1361,100.1997665
1362,97.13821107
1363,95.32228241
1364,99.54762571
1365,102.5413162
1366,102.3299255
1367,102.1592407
1368,102.0534821
1369,101.1630691
1370,99.46991576
1371,98.99197082
1372,99.30962678
1373,98.33872526
1374,96.85545503
1375,95.81022034
1376,94.85612183
1377,93.60198669
1378,92.5655304
1379,95.53736267
1380,97.9818039
1381,97.87560426
1382,98.44290925
1383,100.6744339
1384,101.611499
1385,100.6545624
1386,98.52443086
1387,95.33274383
1388,95.09273834
1389,96.47662353
1390,94.92260285
1391,92.47273409
1392,92.38942871
1393,92.6155304
1394,93.89524383
1395,95.087529
1396,95.72776489
1397,95.66768188
1398,93.63906249
1399,93.60582581
1400,96.7039795
1401,98.80806579
1402,99.98392487
1403,99.3633133
1404,97.75891573
1405,97.56616365
1406,97.78021089
1407,96.43939666
1408,95.00855103
1409,95.22285156
1410,95.28847352
1411,94.64518585
1412,94.66250306
1413,96.16439667
1414,96.38093872
1415,94.98549347
1416,95.02340698
1417,96.09746247
1418,94.77885284
1419,92.52199707
1420,98.56117095
1421,105.9809616
1422,97.41432341
1423,90.10448762
1424,90.85811462
1425,91.61186676
1426,92.36594238
1427,93.21169281
1428,94.18179475
1429,93.86370392
1430,92.56946868
1431,94.97595214
1432,98.8609665
1433,95.12204436
1434,90.22550049
1435,93.03467713
1436,94.56300658
1437,89.26564484
1438,86.366362
1439,88.85435791
1440,91.93939513
1441,95.72772216
1442,95.47848356
1443,92.66262665
1444,90.83988037
1445,89.3227478
1446,96.27571716
1447,103.1329071
1448,99.55256349
1449,96.90039672
1450,97.3346344
1451,97.21980744
1452,96.24218901
1453,95.74047241
1454,95.63178406
1455,93.59928438
1456,90.77169952
1457,90.02194824
1458,89.57333528
1459,88.70227661
1460,88.52776337
1461,91.25144196
1462,92.41457976
1463,90.77940369
1464,90.85628204
1465,92.49243164
1466,92.47301636
1467,91.70902862
1468,89.82119141
1469,87.94429169
1470,93.51711121
1471,97.23018036
1472,93.29409026
1473,90.35912781
1474,89.15571747
1475,88.12867279
1476,87.252948
1477,86.68842468
1478,86.25030365
1479,90.75958557
1480,95.48097991
1481,93.50708771
1482,91.66266175
1483,90.23622437
1484,88.30973053
1485,85.6747467
1486,84.3398056
1487,83.90037994
1488,85.41141357
1489,87.49992065
1490,85.61039429
1491,84.27077179
1492,87.79243164
1493,90.47868957
1494,91.35962829
1495,90.03668976
1496,86.51084595
1497,85.55102844
1498,85.77152405
1499,87.81739654
1500,89.46376496
1501,80.19193573
1502,75.10104065
1503,82.83215027
1504,85.66159515
1505,82.12527618
1506,81.21481628
1507,81.87826843
1508,83.08408966
1509,84.38526154
1510,82.7246582
1511,81.42241058
1512,81.53318176
1513,82.56757507
1514,85.00601806
1515,84.75177307
1516,82.64459762
1517,80.97421265
1518,79.42063599
1519,81.26253357
1520,83.35643463
1521,86.35617523
1522,86.48651276
1523,82.03981476
1524,81.37379456
1525,83.37599487
1526,83.18589325
1527,82.40679626
1528,82.62078858
1529,83.19189911
1530,85.19766693
1531,85.73007355
1532,84.05761108
1533,83.12921143
1534,82.68295593
1535,81.9638504
1536,81.29286194
1537,85.42561952
1538,89.04059448
1539,90.94055634
1540,92.93995971
1541,95.06470338
1542,94.11703797
1543,91.54345551
1544,90.32682343
1545,89.3910141
1546,89.2789856
1547,87.44774475
1548,81.50675201
1549,77.85531158
1550,76.39722214
1551,82.20566254
1552,90.73492889
1553,84.40507355
1554,78.30762329
1555,77.74582062
1556,78.04832535
1557,79.734729
1558,80.12753601
1559,79.67756195
1560,80.99737396
1561,82.54278107
1562,81.41651154
1563,80.07309876
1564,78.15730438
1565,78.27188873
1566,80.41434326
1567,79.60625534
1568,77.68818741
1569,76.84607468
1570,76.67403717
1571,79.27214508
1572,79.5428711
1573,76.4911087
1574,78.08841248
1575,82.27293548
1576,84.58035889
1577,86.19467163
1578,84.26977234
1579,80.99490051
1580,75.10348587
1581,72.92595596
1582,73.4927742
1583,77.09496155
1584,81.06483612
1585,78.22738648
1586,74.70860138
1587,69.48460083
1588,68.54927368
1589,71.50371857
1590,73.24284592
1591,74.5897316
1592,72.65568771
1593,71.08737946
1594,70.6320404
1595,70.95857544
1596,72.09759674
1597,73.90680237
1598,75.958255
1599,76.78201599
1600,76.83308716
1601,74.32278519
1602,73.75614014
1603,75.3545517
1604,76.21201706
1605,76.78321533
1606,71.36351852
1607,68.51626434
1608,75.37877884
1609,77.81082153
1610,75.29307861
1611,75.09793091
1612,75.7849968
1613,75.12754211
1614,74.14659576
1615,72.19760742
1616,72.20794372
1617,74.27280045
1618,73.34690628
1619,71.40000076
1620,71.4
1621,71.40000152
1622,71.40000152
1623,72.65681839
1624,75.07152939
1625,74.79113159
1626,73.74082108
1627,72.35935135
1628,71.43519745
1629,71.5503891
1630,71.73123474
1631,71.96175232
1632,69.88377685
1633,68.03798065
1634,72.4230011
1635,68.17131348
1636,49.00434875
1637,52.70357284
1638,69.57124024
1639,72.55769272
1640,73.13834839
1641,69.32127686
1642,69.10246963
1643,73.38474579
1644,72.0288086
1645,68.43883133
1646,70.57779846
1647,73.08488312
1648,76.44722595
1649,75.1279541
1650,69.79142456
1651,70.12320404
1652,71.6636055
1653,72.36049881
1654,71.76982727
1655,68.98060608
1656,69.28185883
1657,71.2587265
1658,69.13116226
1659,66.51653824
1660,63.25666962
1661,62.86040268
1662,65.42324371
1663,66.27098923
1664,66.5448349
1665,65.6117897
1666,64.75891571
1667,64.05871811
1668,66.52406616
1669,70.84450531
1670,69.16274261
1671,67.32777176
1672,66.97705078
1673,66.6262291
1674,66.2753006
1675,65.37262878
1676,64.57062683
1677,66.79579849
1678,68.11352997
1679,67.87916412
1680,68.65412293
1681,69.94390411
1682,66.85785217
1683,65.16853714
1684,68.22071762
1685,67.41107178
1686,63.41740189
1687,65.38338089
1688,68.27041702
1689,70.15201645
1690,70.83507843
1691,70.01139374
1692,66.12407455
1693,61.44737625
1694,62.50765228
1695,63.85448303
1696,65.74053345
1697,63.63855743
1698,59.39243698
1699,62.01672211
1700,64.35352249
1701,64.94395828
1702,65.19999924
1703,65.19999924
1704,64.99341354
1705,64.79999847
1706,64.80000076
1707,65.38160706
1708,66.56527405
1709,66.42019958
1710,65.95981827
1711,65.60429687
1712,64.44169693
1713,62.18874435
1714,63.61575852
1715,65.94203186
1716,61.07465057
1717,58.35000763
1718,59.3003006
1719,61.06470261
1720,63.20137558
1721,63.91493836
1722,63.82841034
1723,62.04345093
1724,61.55229034
1725,61.7904274
1726,63.62956848
1727,63.86080475
1728,59.80772629
1729,61.29447937
1730,66.42345886
1731,68.01645661
1732,67.98157196
1733,63.92130966
1734,61.16749954
1735,59.37514954
1736,61.24966202
1737,63.43925781
1738,65.35335617
1739,65.26542816
1740,63.58960342
1741,61.06313324
1742,59.78026657
1743,63.37555771
1744,63.48812256
1745,60.73010711
1746,58.60439987
1747,57.74307022
1748,61.22467651
1749,62.27381897
1750,61.31280975
1751,60.66956329
1752,60.09479904
1753,59.61372833
1754,59.80125122
1755,60.52328567
1756,61.67616501
1757,62.6280426
1758,62.74852448
1759,62.66190948
1760,62.42080688
1761,59.97528305
1762,58.37026749
1763,59.81859742
1764,61.77344818
1765,64.06799011
1766,60.44180832
1767,58.57276764
1768,61.95818939
1769,62.43397522
1770,61.22418213
1771,57.40381165
1772,56.03084793
1773,59.78562546
1774,59.93404083
1775,58.43830338
1776,59.89347992
1777,60.52551117
1778,59.79749222
1779,59.86541824
1780,60.24943161
1781,60.85682831
1782,61.04137115
1783,60.6767189
1784,58.29517212
1785,56.11801376
1786,58.30850906
1787,57.93379745
1788,55.01141586
1789,56.4843338
1790,57.90807572
1791,56.56707077
1792,55.22561188
1793,53.88381958
1794,53.68557129
1795,54.40307465
1796,57.0898262
1797,59.13121491
1798,60.7400032
1799,58.29462586
1800,56.46703949
1801,55.61065369
1802,56.50762329
1803,57.5055275
1804,55.05582581
1805,54.51674805
1806,55.98743439
1807,59.45205917
1808,61.57347641
1809,57.89242706
1810,56.32700272
1811,56.20422897
1812,55.72554245
1813,53.98950806
1814,49.81027984
1815,47.37677307
1816,46.53628998
1817,55.27377701
1818,58.75634003
1819,56.04735641
1820,52.71987076
1821,50.0260849
1822,50.14936676
1823,53.10756836
1824,58.04169617
1825,55.57175217
1826,53.0274971
1827,50.80452728
1828,51.45953064
1829,52.78327179
1830,50.80497208
1831,50.04347534
1832,50.53834152
1833,51.46692352
1834,52.103479
1835,51.73189316
1836,53.35878677
1837,55.9378891
1838,53.95376129
1839,51.7614357
1840,49.27982178
1841,52.60564499
1842,56.08388443
1843,54.46893768
1844,53.94562607
1845,54.19422455
1846,54.8074173
1847,53.54819412
1848,49.06813888
1849,51.88807678
1850,56.54850998
1851,58.7911705
1852,54.86176682
1853,45.88584671
1854,46.93383026
1855,48.64126358
1856,50.51344528
1857,53.31073608
1858,55.58419724
1859,52.58518372
1860,52.27651825
1861,54.27703476
1862,54.86966477
1863,55.9232933
1864,58.05134048
1865,53.48721542
1866,48.36537476
1867,53.62908249
1868,54.4149231
1869,51.53072281
1870,50.08234711
1871,50.73975449
1872,55.00836334
1873,54.74630432
1874,52.80405121
1875,49.41029205
1876,49.83762359
1877,52.98183975
1878,51.99907456
1879,49.56443176
1880,45.03144455
1881,47.80083771
1882,51.25777664
1883,51.50990524
1884,49.49232788
1885,46.36396637
1886,45.73290482
1887,47.01098786
1888,50.42071991
1889,51.13691406
1890,51.67081528
1891,52.55585785
1892,51.33422623
1893,50.07138519
1894,53.36254196
1895,54.30063324
1896,53.41403275
1897,51.90329208
1898,51.15446167
1899,51.53488007
1900,46.55227966
1901,42.92973786
1902,46.61142349
1903,49.77845383
1904,51.90385208
1905,47.07391434
1906,45.27112274
1907,46.16137009
1908,47.90423355
1909,49.44111023
1910,50.5870575
1911,48.20680542
1912,45.92459259
1913,46.43449783
1914,44.96311569
1915,43.11535797
1916,46.05075913
1917,47.12398453
1918,46.61318054
1919,46.22656403
1920,46.47056503
1921,47.6212204
1922,49.96099243
1923,50.39614639
1924,45.40412674
1925,47.03768692
1926,49.87501678
1927,45.26159897
1928,44.85320053
1929,47.26126328
1930,48.92917175
1931,51.08834686
1932,53.78423844
1933,46.31891174
1934,43.84558182
1935,51.68568115
1936,46.66299362
1937,41.96006088
1938,47.36448517
1939,47.74296188
1940,46.29275665
1941,46.93689423
1942,44.22621536
1943,39.59080048
1944,44.3629982
1945,46.3579483
1946,45.45457153
1947,46.37062988
1948,46.94951248
1949,46.82030792
1950,44.40285644
1951,42.2086792
1952,41.56189956
1953,41.78813095
1954,43.15328216
1955,47.81555176
1956,47.68909912
1957,45.3091774
1958,44.5312233
1959,44.79598846
1960,45.68986587
1961,42.31478729
1962,39.96105347
1963,38.66218719
1964,38.6
1965,39.78215103
1966,42.64299698
1967,42.77224426
1968,46.95777054
1969,59.84663925
1970,54.77441483
1971,46.34062424
1972,40.8662262
1973,43.6014904
1974,47.5778595
1975,44.44597549
1976,43.4
1977,43.4
1978,43.40000076
1979,40.95451012
1980,37.39232864
1981,40.00833588
1982,43.12398605
1983,46.51239166
1984,41.14330978
1985,39.48936997
1986,41.71687546
1987,43.56699066
1988,43.91175995
1989,42.33756714
1990,41.72084503
1991,41.19568863
1992,40.67034531
1993,32.97432327
1994,30.23209
1995,39.04187355
1996,39.95021896
1997,39.67920341
1998,40.60070343
1999,38.73535919
2000,36.834972
2001,36.96676864
2002,39.56418686
2003,41.74229355
2004,39.76303863
2005,39.86128616
2006,41.23629265
2007,44.40679474
2008,42.04137497
2009,38.39046211
2010,40.63885574
2011,37.46086998
2012,33.1953331
2013,38.49184113
2014,40.14572525
2015,39.09242172
2016,33.6571701
2017,34.81517029
2018,39.30943909
2019,38.51310959
2020,38.84466934
2021,39.49201546
2022,36.43585854
2023,37.41730843
2024,40.38688354
2025,35.8638195
2026,35.72169037
2027,38.32038116
2028,37.38807678
2029,35.36636658
2030,32.88849907
2031,33.95523148
2032,34.08883705
2033,33.55513382
2034,33.02114639
2035,32.09569893
2036,31.15388451
2037,32.89136467
2038,32.33299255
2039,31.20139236
2040,39.49748917
2041,38.36762848
2042,32.11862335
2043,35.06582642
2044,37.51933441
2045,39.26792183
2046,38.19496308
2047,36.1888279
2048,34.28511085
2049,36.2992485
2050,33.84603996
2051,29.58023262
2052,28.23591156
2053,30.52681275
2054,33.97793198
2055,34.92005081
2056,33.78023872
2057,31.935989
2058,30.72328377
2059,30.00447159
2060,30.2745018
2061,32.97253761
2062,32.56411171
2063,31.02112923
2064,28.9952507
2065,30.99297829
2066,31.72590408
2067,27.80465164
2068,28.11545639
2069,28.30244903
2070,26.94872169
2071,31.38168488
2072,32.9425808
2073,29.41879883
2074,32.3797142
2075,34.76550446
2076,35.98669281
2077,30.62852669
2078,28.56075058
2079,29.58811531
2080,29.31626663
2081,28.57731476
2082,27.26768112
2083,24.00171623
2084,27.79149589
2085,33.0437252
2086,24.73309555
2087,24.37967911
2088,25.52467003
2089,19.93235207
2090,22.13470344
2091,25.5213871
2092,25.93105621
2093,25.31815453
2094,26.71161118
2095,31.90677185
2096,28.31437607
2097,26.52763176
2098,28.17011108
2099,27.79661865
2100,26.17090759
2101,23.70189934
2102,25.3472374
2103,26.74486275
2104,27.79999962
2105,27.8
2106,27.98912125
2107,27.11440315
2108,22.44179611
2109,25.1397644
2110,27.42352333
2111,24.39656754
2112,23.28220596
2113,23.54534378
2114,25.33607178
2115,24.60255432
2116,25.47398033
2117,28.03461876
2118,31.76028786
2119,31.42100487
2120,28.77205124
2121,27.39057655
2122,26.70255813
2123,25.72686501
2124,23.23733025
2125,22.57184525
2126,20.72015381
2127,16.28919086
2128,18.33109436
2129,20.82566166
2130,23.26051636
2131,24.50888863
2132,24.91581154
2133,24.27122345
2134,21.07724781
2135,22.41728172
2136,24.04339752
2137,22.09698944
2138,21.8
2139,24.42320213
2140,30.8259388
2141,25.98708382
2142,24.49757347
2143,26.36807709
2144,29.99329224
2145,27.47706909
2146,22.51531525
2147,19.58387203
2148,19.67112179
2149,19.3235384
2150,16.94772339
2151,20.07849789
2152,23.85944824
2153,27.62187347
2154,27.90186577
2155,28.18196335
2156,27.62308731
2157,24.11914444
2158,23.95728149
2159,24.29655037
2160,24.01591148
2161,22.27827606
2162,22.56612663
2163,24.38604507
2164,22.13704338
2165,23.763797
2166,26.50564766
2167,26.92782211
2168,23.14781799
2169,21.09086342
2170,22.78150902
2171,22.66057281
2172,22.03691025
2173,20.98496552
2174,19.5736557
2175,21.79562988
2176,24.06480942
2177,23.64092865
2178,23.21682663
2179,23.82967262
2180,25.18795853
2181,22.35719681
2182,20.46267815
2183,19.54148865
2184,20.10829353
2185,23.05223045
2186,23.7261261
2187,20.82779179
2188,22.38919869
2189,23.17293701
2190,23.42851295
2191,23.57062264
2192,23.37440643
2193,21.87952347
2194,18.46496639
2195,17.70176735
2196,17.89229278
2197,18.64899978
2198,18.93403778
2199,23.3840313
2200,25.38081665
2201,20.95764637
2202,23.82888756
2203,24.79756088
2204,24.19999962
2205,24.19999962
2206,22.56095619
2207,21.98466492
2208,24.13106842
2209,29.88168716
2210,28.30997467
2211,22.65073013
2212,24.08413353
2213,21.49273243
2214,19.19999981
2215,19.2
2216,23.89802666
2217,25.4559948
2218,25.47501449
2219,27.77505569
2220,25.03395958
2221,21.88303642
2222,19.92123413
2223,23.37723999
2224,19.75852471
2225,14.60930462
2226,16.19512634
2227,17.90735226
2228,21.73584519
2229,26.80127144
2230,22.75768395
2231,23.14690704
2232,24.4093956
2233,23.83107758
2234,21.88355903
2235,21.65278282
2236,21.99375763
2237,18.66270504
2238,22.64326477
2239,23.13168564
2240,16.71449185
2241,19.47096443
2242,23.28708153
2243,26.23431816
2244,25.65334282
2245,21.77247353
2246,21.50180969
2247,23.65332031
2248,20.16147575
2249,20.31064453
2250,21.35664863
2251,21.96519108
2252,15.26098556
2253,15.12623424
2254,17.35750179
2255,17.21159153
2256,19.08154602
2257,20.7239254
2258,20.9510788
2259,16.27392426
2260,20.27567597
2261,22.23078193
2262,19.31924934
2263,18.29436531
2264,18.10441952
2265,18.4037775
2266,18.99009476
2267,21.73952713
2268,22.98180161
2269,23.95338745
2270,26.89000664
2271,25.22890511
2272,23.25960922
2273,21.69848328
2274,21.11015205
2275,19.80387001
2276,20.40317612
2277,22.8621582
2278,19.32612057
2279,18.61761742
2280,20.6565712
2281,25.2606926
2282,19.7999609
2283,19.78193264
2284,21.83347283
2285,22.5722517
2286,21.17712669
2287,21.05089455
2288,22.24812698
2289,24.76427803
2290,24.46312256
2291,23.04696617
2292,21.03334331
2293,19.25419712
2294,22.30594177
2295,25.03095512
2296,26.30405464
2297,25.70999107
2298,20.63543091
2299,18.1670002
2300,19.85792103
2301,21.940699
2302,22.63205719
2303,20.78747063
2304,16.58613243
2305,16.43710804
2306,24.12660103
2307,27.99955177
2308,22.60771217
2309,16.93511562
2310,20.84715195
2311,22.77469864
2312,16.52469216
2313,18.91723328
2314,20.13460865
2315,20.54342709
2316,20.28695374
2317,17.59074955
2318,19.97756424
2319,23.41407318
2320,25.10417786
2321,27.80498352
2322,25.63375435
2323,23.56099243
2324,24.88627205
2325,22.18085938
2326,23.32564659
2327,24.77040367
2328,23.96374741
2329,19.4470377
2330,20.16291752
2331,21.38190823
2332,20.41046104
2333,20.56127472
2334,18.69341373
2335,17.76778393
2336,19.35199852
2337,23.12876167
2338,25.16286926
2339,25.05525971
2340,22.86278725
2341,20.13888741
2342,18.14249878
2343,18.73118038
2344,20.61834755
2345,15.76761723
2346,17.17038402
2347,19.27324486
2348,22.15803871
2349,29.75020103
2350,31.27461777
2351,26.47277374
2352,19.99469776
2353,20.75520477
2354,19.08131771
2355,19.6410469
2356,20.14021301
2357,17.39798355
2358,14.9588438
2359,12.9390646
2360,11.68471393
2361,11.9339222
2362,19.87459335
2363,16.93876858
2364,16.28010731
2365,22.35806809
2366,26.33514442
2367,22.0288578
2368,20.32786369
2369,21.0896061
2370,16.95255527
2371,16.88049145
2372,19.90188866
2373,21.13053818
2374,14.42536011
2375,21.95032654
2376,19.46032658
2377,15.70706005
2378,16.41516495
2379,16.56899586
2380,19.30372143
2381,18.77112655
2382,15.53967991
2383,17.23468971
2384,16.70429001
2385,16.77349377
2386,17.20000019
2387,17.17576141
2388,15.32248344
2389,14.57807598
2390,15.5794672
2391,18.58438969
2392,23.07072564
2393,25.48514938
2394,23.10594673
2395,18.12767067
2396,16.26811504
2397,16.6481123
2398,17.21791954
2399,18.19651127
2400,19.76373024
2401,21.47216682
2402,17.02795658
2403,17.60307388
2404,21.17519359
2405,15.10777264
2406,14.2089344
2407,17.93250885
2408,20.23677902
2409,17.13604984
2410,18.53937817
2411,20.07038727
2412,19.30422668
2413,18.84729633
2414,25.40721588
2415,21.50454178
2416,18.47166862
2417,18.09515839
2418,19.16779213
2419,9.9319335
2420,13.15736341
2421,14.49281063
2422,14.20684567
2423,16.67196598
2424,11.96520729
2425,18.12331581
2426,19.51813049
2427,12.01426334
2428,5.256542015
2429,11.39795761
2430,12.55291138
2431,13.11615181
2432,16.38215351
2433,11.18434773
2434,14.14685211
2435,15.54267502
2436,15.14753551
2437,15.26607628
2438,7.68866272
2439,14.96082706
2440,19.14654503
2441,15.75811272
2442,10.69800797
2443,15.72002831
2444,15.61194229
2445,14.75889149
2446,15.49056778
2447,15.96601601
2448,13.49696846
2449,17.99925785
2450,19.95918007
2451,14.27991333
2452,16.18596649
2453,14.98919487
2454,16.70145035
2455,16.87198296
2456,12.05516643
2457,14.28387318
2458,16.51364899
2459,14.61526966
2460,11.5999999
2461,11.55531139
2462,11.07666302
2463,15.692449
2464,19.68769569
2465,20.15500126
2466,16.50688553
2467,20.18472671
2468,16.66988716
2469,14.87983036
2470,14.02539139
2471,11.4922162
2472,19.66564751
2473,14.5596304
2474,15.08861294
2475,18.70452633
2476,17.52474365
2477,18.80971279
2478,15.71412525
2479,16.05585308
2480,16.59577808
2481,13.2
2482,13.2
2483,12.9171052
2484,12.49227943
2485,14.9420145
2486,19.99903412
2487,14.83621006
2488,17.50356674
2489,18.81855545
2490,19.42500954
2491,19.51832466
2492,16.12267475
2493,12.56926193
2494,13.60252628
2495,21.6962677
2496,28.12968254
2497,14.13217983
2498,11.2135231
2499,12.52201233
2500,13.87126617
2501,12.93329964
2502,9.780140304
2503,13.84284477
2504,16.36419773
2505,18.84728641
2506,19.41479263
2507,16.57421684
2508,11.85100737
2509,12.2171979
2510,14.51183491
2511,16.6433506
2512,15.85666161
2513,9.790909577
2514,14.36391039
2515,16.4018158
2516,15.93299122
2517,14.73946305
2518,14.67243042
2519,15.16348133
2520,15.95797424
2521,17.58519821
2522,17.1718399
2523,13.57037239
2524,8.768637752
2525,16.9755085
2526,16.09271507
2527,14.6999815
2528,13.56330872
2529,12.14544125
2530,14.11945247
2531,14.04212399
2532,17.06338596
2533,15.24753952
2534,9.046201374
2535,6.216608906
2536,16.11397133
2537,15.28982334
2538,14.37590885
2539,12.50101395
2540,11.15934706
2541,16.09073563
2542,13.77496758
2543,14.78705082
2544,15.60853176
2545,15.93979797
2546,15.27428208
2547,11.0442441
2548,16.35204315
2549,13.67058239
2550,13.88337498
2551,13.25756988
2552,7.631456375
2553,7.797691155
2554,9.768194485
2555,13.46035766
2556,14.81245766
2557,11.4822197
2558,5.74085989
2559,8.741332817
2560,9.290570832
2561,13.83291874
2562,15.51883087
2563,16.53646564
2564,19.00714665
2565,12.65537224
2566,16.24728985
2567,16.86689701
2568,16.09654274
2569,12.74960108
2570,8.451956558
2571,12.4000001
2572,12.4
2573,11.98421383
2574,14.3547947
2575,14.4430193
2576,10.84238186
2577,11.16736393
2578,13.85799751
2579,16.10931053
2580,11.61644859
2581,10.80906029
2582,14.06300984
2583,11.70900164
2584,14.23839455
2585,18.03259735
2586,14.69128093
2587,11.72204819
2588,12.03888016
2589,13.19621391
2590,10.22106934
2591,11.57451839
2592,12.36429253
2593,14.03529415
2594,10.17151299
2595,3.881884253
2596,7.9131917
2597,8.931058502
2598,10.58240662
2599,11.38414364
2600,11.50206833
2601,12.48625946
2602,14.33450699
2603,12.95074367
2604,7.674497986
2605,8.633769798
2606,8.130045891
2607,11.598036
2608,15.24434338
2609,12.20845947
2610,15.58473892
2611,13.19410477
2612,11.51581669
2613,10.88639831
2614,12.49187326
2615,13.18577108
2616,9.080429935
2617,9.594106674
2618,12.30965357
2619,9.422028828
2620,9.683330726
2621,11.08377304
2622,9.537934494
2623,6.41991539
2624,14.15027352
2625,16.24928322
2626,14.17358341
2627,12.74093819
2628,11.96560535
2629,12.16792107
2630,13.05976181
2631,8.077496433
2632,11.69875069
2633,8.037733745
2634,12.66262798
2635,15.37888889
2636,13.13303509
2637,9.937513351
2638,4.59725523
2639,12.90141087
2640,8.051265669
2641,10.81452083
2642,11.95048332
2643,9.590977764
2644,9.984295273
2645,16.34275818
2646,9.052949047
2647,13.6547884
2648,14.4
2649,11.88084888
2650,11.13859501
2651,11.31808681
2652,9.01340599
2653,7.265156366
2654,12.3177062
2655,11.94167767
2656,12.77283096
2657,9.796453666
2658,7.2
2659,9.26727562
2660,14.13626118
2661,14.87035465
2662,4.377177629
2663,12.18710194
2664,10.91018715
2665,9.287788772
2666,8.325717353
2667,8.266349268
2668,11.36211748
2669,14.51860008
2670,13.46531076
2671,11.58772974
2672,13.44752655
2673,10.44680042
2674,8.245067215
2675,9.953626632
2676,11.8441618
2677,11.63479119
2678,8.462984658
2679,10.8192749
2680,10.15565605
2681,7.035461426
2682,7.853088474
2683,9.017316055
2684,8.477917672
2685,11.2498764
2686,8.686484146
2687,14.17259541
2688,11.98765144
2689,11.96165466
2690,8.906125735
2691,7.929245091
2692,11.42543163
2693,14.95018882
2694,14.96420708
2695,15.74958858
2696,6.862937546
2697,6.642241287
2698,10.12311001
2699,9.271018983
2700,7.316443443
2701,8.816807271
2702,11.08362799
2703,8.54615345
2704,9.361821079
2705,8.469338227
2706,4.117357493
2707,10.79944963
2708,16.73133316
2709,15.1668087
2710,11.32061253
2711,10.54109602
2712,-171.366864
2713,-865.5119629
2714,-21.00922546
2715,5.99568615
2716,6.779086971
2717,11.72064037
2718,8.710523605
2719,6.575249672
2720,10.12912064
2721,10.52029896
2722,9.842688466
2723,30.70455627
2724,16.29455185
2725,7.620312976
2726,3.776233304
2727,7.4460289
2728,5.913511515
2729,7.796630763
2730,12.57077198
2731,11.34287739
2732,9.124080658
2733,9.101821994
2734,11.99766922
2735,4.219536614
2736,4.048455739
2737,9.074689482
2738,10.62584324
2739,8.701582432
2740,5.534272361
2741,3.261449409
2742,4.223218513
2743,7.800000096
2744,7.87306118
2745,8.782834626
2746,10.7647789
2747,12.44677448
2748,11.51321326
2749,12.62873249
2750,11.23092403
2751,7.39658451
2752,6.000181341
2753,6.236510325
2754,3.886743021
2755,6.946917701
2756,8.239118004
2757,10.0693017
2758,13.94084625
2759,9.696488572
2760,6.971328735
2761,8.078480053
2762,9.716760158
2763,8.983387661
2764,8.175918865
2765,8.948835753
2766,7.656933785
2767,9.094448662
2768,5.155267799
2769,9.941485978
2770,-0.254063118
2771,6.283522773
2772,8.971421813
2773,6.272114277
2774,5.718324089
2775,6.6
2776,9.034978867
2777,9.037800884
2778,2.969704306
2779,6.794198465
2780,8.495473672
2781,7.545424891
2782,5.878148603
2783,8.27327671
2784,9.572589207
2785,5.223666525
2786,5.598585796
2787,7.313666725
2788,4.343581295
2789,2.831261426
2790,4.723398495
2791,4.976006842
2792,7.557680129
2793,12.47392654
2794,9.122220706
2795,1.917563441
2796,4.715393114
2797,0.456567305
2798,5.533571863
2799,7.526895045
2800,7.375884056
2801,7.071647549
2802,8.385089874
2803,8.271543407
2804,6.481271362
2805,8.301528644
2806,10.79054499
2807,5.748357725
2808,2.83634727
2809,5.207616949
2810,4.25987246
2811,7.447726154
2812,10.26760035
2813,9.503707218
2814,6.218722153
2815,5.288590193
2816,4.767801285
2817,4.732519817
2818,6.494918823
2819,6.17385025
2820,5.196868825
2821,4.701939166
2822,3.342960024
2823,2.860726929
2824,5.517031527
2825,9.765265179
2826,4.993163776
2827,7.110717297
2828,8.151011896
2829,10.59172421
2830,9.264076805
2831,5.407317686
2832,3.295450473
2833,7.330782795
2834,6.89562788
2835,11.60103712
2836,10.00698776
2837,7.636663437
2838,6.842377567
2839,4.767508793
2840,1.810538191
2841,3.449668717
2842,8.444677448
2843,7.445131064
2844,5.367203355
2845,9.494084454
2846,9.799999952
2847,9.623199845
2848,8.058664322
2849,3.706727517
2850,8.278008366
2851,2.145521677
2852,12.6697937
2853,9.640557097
2854,4.926307142
2855,9.252048109
2856,7.143195438
2857,8.998655702
2858,9.860395433
2859,9.13996601
2860,9.29801712
2861,7.258055687
2862,6.368499374
2863,10.28222752
2864,10.44107466
2865,6.404179334
2866,7.192903518
2867,9.426687146
2868,9.683030509
2869,11.58385296
2870,10.46730108
2871,6.206838596
2872,6.983943283
2873,11.77182465
2874,9.298138044
2875,7.525970554
2876,15.19542885
2877,6.904582119
2878,8.705235816
2879,12.19627381
2880,7.918978024
2881,9.123779583
2882,11.22100487
2883,8.901825142
2884,10.50576611
2885,5.587071991
2886,5.415818405
2887,8.76531372
2888,6.377234745
2889,8.226473522
2890,8.190907954
2891,4.867395806
2892,7.927592564
2893,9.345377922
2894,10.52051239
2895,7.231866932
2896,8.631477546
2897,9.221619701
2898,8.043313503
2899,7.007656956
2900,5.903476429
2901,5.900052166
2902,8.792049121
2903,10.60221062
2904,8.550236416
2905,6.871365596
2906,3.891924167
2907,3.174359703
2908,3.405857932
2909,3.234328806
2910,8.035754967
2911,9.50084133
2912,11.47641516
2913,11.95112534
2914,9.001977538
2915,6.765453291
2916,6.246143722
2917,3.341503096
2918,4.365211725
2919,5.813146829
2920,7.876534081
2921,6.000513958
2922,6.06451335
2923,4.967991352
2924,6.246985245
2925,3.636079323
2926,2.053324968
2927,4.640600348
2928,2.336284018
2929,9.724037551
2930,9.996505547
2931,8.396952343
2932,5.31911912
2933,5.367029476
2934,4.22585907
2935,7.696359063
2936,10.11534772
2937,5.150877952
2938,8.635537816
2939,16.33012371
2940,11.53221741
2941,3.803401482
2942,6.40394845
2943,6.992730427
2944,6.411097241
2945,7.458518505
2946,8.223780346
2947,8.006123923
2948,8.335179711
2949,4.847569895
2950,5.734174824
2951,7.041983414
2952,3.939996159
2953,4.058905721
2954,5.068852806
2955,4.352773684
2956,9.41990137
2957,4.094331431
2958,4.526417541
2959,10.53635254
2960,8.155670834
2961,6.016152096
2962,8.159544181
2963,5.573271441
2964,1.337267101
2965,2.264075208
2966,6.484843445
2967,5.104693079
2968,6.755940724
2969,9.015504646
2970,4.058107398
2971,4.953757489
2972,9.861012266
2973,6.42959528
2974,3.050629497
2975,6.781373405
2976,6.063247156
2977,4.499172831
2978,8.929465485
2979,7.331338406
2980,5.262137794
2981,0.215078735
2982,6.878565359
2983,8.025737285
2984,9.437652206
2985,4.01625731
2986,9.605906296
2987,3.260175109
2988,4.304760814
2989,6.792242813
2990,1.918896806
2991,5.088322258
2992,9.589153861
2993,8.539044284
2994,-0.347539258
2995,10.09894066
2996,4.823411488
2997,5.681949282
2998,9.348044585
2999,7.987788009
3000,5.436131287
