Frequency,Density
0,213.6
1,213.6
2,213.6
3,213.6
4,213.6
5,213.6
6,213.6
7,213.6
8,213.6
9,213.6
10,213.6
11,213.6
12,213.6
13,213.6
14,213.6
15,213.6
16,213.6
17,213.6
18,213.6
19,213.6
20,213.6
21,213.6
22,213.6
23,213.6
24,213.6
25,213.6
26,213.6
27,213.6
28,213.6
29,213.6
30,213.6
31,213.6
32,213.6
33,213.6
34,213.6
35,213.6
36,213.6
37,213.6
38,213.6
39,213.6
40,213.6
41,213.6
42,213.6
43,213.6
44,213.6
45,213.6
46,213.6
47,213.6
48,213.6
49,213.6
50,213.6
51,213.6
52,213.6
53,213.6
54,213.6
55,213.6
56,213.6
57,213.6
58,213.6
59,213.6
60,213.6
61,213.6
62,213.6
63,213.6
64,213.6
65,213.6
66,213.6
67,213.6
68,213.6
69,213.6
70,213.6
71,213.6
72,213.6
73,213.6
74,213.6
75,213.6
76,213.6
77,213.6
78,213.6
79,213.6
80,213.6
81,213.6
82,213.6
83,213.6
84,213.6
85,213.6
86,213.6
87,213.6
88,213.6
89,213.6
90,213.6
91,213.6
92,213.6
93,213.6
94,213.6
95,213.6
96,213.6
97,213.6
98,213.6
99,213.6
100,213.6
101,213.6
102,213.6
103,213.6
104,213.6
105,213.6
106,213.6
107,213.6
108,213.6
109,213.6
110,213.6
111,213.6
112,213.6
113,213.6
114,213.6
115,213.6
116,213.6
117,213.6
118,213.6
119,213.6
120,213.6
121,213.6
122,213.6
123,213.6
124,213.6
125,213.6
126,213.6
127,213.6
128,213.6
129,213.6
130,213.6
131,213.6
132,213.6
133,213.6
134,213.6
135,213.6
136,213.6
137,213.6
138,213.6
139,213.6
140,213.6
141,213.6
142,213.6
143,213.6
144,213.6
145,213.6
146,213.6
147,213.6
148,213.6
149,213.6
150,213.6
151,213.6
152,213.6
153,213.6
154,213.6
155,213.6
156,213.6
157,213.6
158,213.6
159,213.6
160,213.6
161,213.6
162,213.6
163,213.6
164,213.6
165,213.6
166,213.6
167,213.6
168,213.6
169,213.6
170,213.6
171,213.6
172,213.6
173,213.6
174,213.6
175,213.6
176,213.6
177,213.6
178,213.6
179,213.6
180,213.6
181,213.6
182,213.6
183,213.6
184,213.6
185,213.6
186,213.6
187,213.6
188,213.6
189,213.6
190,213.6
191,213.6
192,213.6
193,213.6
194,213.6
195,213.6
196,213.6
197,213.6
198,213.6
199,228.8683991
200,282.2986084
201,335.7288269
202,355.7393677
203,361.6278931
204,365.6587036
205,356.2780395
206,346.8973816
207,344.5756531
208,348.2215271
209,351.8674011
210,349.9805542
211,347.8848816
212,346.6901428
213,346.9231262
214,347.1561157
215,346.3169922
216,345.2290588
217,345.7690552
218,351.5228638
219,357.2766846
220,361.0645813
221,363.8653747
222,365.9117126
223,360.7738953
224,355.6360779
225,353.8553467
226,355.1016174
227,356.3478821
228,356.4746765
229,356.5526184
230,354.7351807
231,349.9782166
232,345.2212341
233,342.0113465
234,339.1242737
235,337.1237671
236,337.5922241
237,338.0606689
238,337.2669495
239,335.9388977
240,334.0874511
241,329.0847656
242,324.0820984
243,323.1871826
244,325.2207153
245,327.2167053
246,327.8427673
247,328.4688354
248,327.4352295
249,324.5379517
250,321.6406738
251,321.2563171
252,321.0996155
253,318.829364
254,312.8711914
255,306.913031
256,307.8412659
257,310.3514404
258,311.9310608
259,310.9106995
260,309.890332
261,308.307666
262,306.5013367
263,305.4908935
264,308.3984192
265,311.3059448
266,312.4490417
267,312.5276733
268,312.7008118
269,313.9596009
270,315.218396
271,314.2754578
272,311.4415161
273,308.6075928
274,309.3855591
275,310.17323
276,311.6833313
277,314.0477295
278,316.4121216
279,312.5347778
280,308.1186401
281,307.3411438
282,312.3911194
283,317.4411072
284,317.3278626
285,316.301477
286,315.6250061
287,315.7040039
288,315.7830078
289,318.0334656
290,320.8791077
291,321.9525329
292,317.8397522
293,313.7269653
294,318.5751587
295,326.8055664
296,333.5574036
297,334.3492554
298,335.1411011
299,332.7336609
300,328.7720703
301,325.6713379
302,327.4947388
303,329.3181397
304,332.5824158
305,336.7073303
306,340.4998047
307,341.4522705
308,342.4047241
309,340.0124023
310,335.247284
311,330.5455811
312,326.73125
313,322.9169006
314,317.9645386
315,312.0806458
316,306.421991
317,307.0584595
318,307.694928
319,307.875647
320,307.6368347
321,307.3960266
322,306.918103
323,306.4401917
324,305.2088928
325,303.2164002
326,301.2239075
327,301.5151611
328,301.8341431
329,302.2681396
330,302.8267029
331,303.3852539
332,304.0218567
333,304.6605835
334,306.1979431
335,308.7543518
336,311.3107544
337,307.1570617
338,302.7606384
339,300.4370361
340,300.5170166
341,300.5969971
342,300.0608093
343,299.5006043
344,301.3522156
345,305.9966248
346,310.6410522
347,308.9428467
348,307.0198792
349,306.7153625
350,308.2386047
351,309.7618469
352,308.2358277
353,306.6314636
354,306.0320007
355,306.5135986
356,306.9951843
357,300.4006958
358,293.7347595
359,291.9661804
360,295.1002136
361,298.2219666
362,300.2321472
363,302.2423279
364,301.5571106
365,298.4193909
366,295.4030334
367,295.4835388
368,295.5640381
369,294.6194824
370,292.8473938
371,291.6310181
372,297.7564087
373,303.881781
374,305.4976807
375,303.9654236
376,302.3276611
377,299.8262085
378,297.3247559
379,295.6366333
380,294.4255371
381,292.669696
382,287.9032348
383,283.1367859
384,281.1618225
385,280.5151367
386,280.5100159
387,283.0173889
388,285.5247497
389,285.194696
390,283.8188843
391,283.5352905
392,286.369519
393,289.2037598
394,288.3284485
395,286.4648499
396,286.0335266
397,288.6278809
398,291.2222473
399,293.7485962
400,296.2633667
401,298.6524231
402,300.8440002
403,303.0355652
404,301.4721558
405,299.6041626
406,300.6669373
407,305.1365235
408,309.6109009
409,317.5795837
410,325.5482666
411,332.9905945
412,339.9876465
413,346.1755066
414,343.4890015
415,340.8024963
416,336.6853088
417,331.7164184
418,326.5093139
419,320.1519043
420,313.7944885
421,307.1417175
422,300.3727844
423,296.1362122
424,298.9106628
425,301.6851013
426,301.3355347
427,300.2740967
428,299.0335327
429,297.4812866
430,295.9290161
431,296.6244629
432,297.5236756
433,297.5768677
434,296.6771301
435,295.7917725
436,295.4644043
437,295.13703
438,292.1432434
439,287.2297913
440,283.2508301
441,285.0534912
442,286.8561585
443,285.3961487
444,282.5265747
445,281.950592
446,287.9392273
447,293.9278625
448,292.1696655
449,288.7221069
450,285.4316589
451,282.3927368
452,279.3538147
453,279.6681335
454,280.1612183
455,279.6790283
456,278.2811218
457,276.7044067
458,273.1664337
459,269.6284546
460,269.7972778
461,271.9377869
462,273.1398224
463,271.080423
464,269.0210327
465,269.1901581
466,269.9319733
467,269.7607514
468,268.0288147
469,266.2968811
470,267.8360199
471,269.5689789
472,268.8529053
473,265.8803589
474,263.4192658
475,265.6499908
476,267.8807159
477,268.0398834
478,267.2131958
479,266.2582245
480,264.9347412
481,263.6112793
482,262.0089203
483,260.3536041
484,262.7702087
485,270.7204376
486,278.560968
487,274.1691986
488,269.7774079
489,266.8154358
490,264.825528
491,263.4734467
492,264.9667572
493,266.4600678
494,267.4411438
495,268.2712524
496,268.1969147
497,266.53573
498,264.874527
499,268.4514862
500,272.2744904
501,271.8556335
502,267.9472015
503,264.6597382
504,265.0757721
505,265.4918121
506,266.4624847
507,267.6280731
508,268.9064392
509,270.4059326
510,271.9054321
511,273.015274
512,274.0988861
513,271.1926117
514,264.853894
515,259.3417572
516,258.9244903
517,258.5072235
518,262.9293579
519,269.025058
520,272.5348938
521,271.1980682
522,269.8612396
523,268.4438721
524,267.0226502
525,265.7889618
526,264.7014984
527,263.6998047
528,263.1139008
529,262.5280029
530,266.7198791
531,272.2473785
532,275.1054199
533,273.8484314
534,272.6011444
535,272.7688446
536,272.9365418
537,269.8710785
538,264.8371582
539,261.2794067
540,262.4546783
541,263.6299561
542,263.1533997
543,262.3974152
544,260.2858673
545,256.6718262
546,253.9335388
547,259.5680481
548,265.2025604
549,268.8498779
550,271.7108673
551,271.3977173
552,264.9145691
553,258.431424
554,258.8499206
555,259.5238892
556,259.899527
557,260.0681122
558,260.1816315
559,260.0972839
560,260.0129425
561,260.6430145
562,261.4025818
563,262.2026184
564,263.0470795
565,263.3786682
566,259.4918549
567,255.6050323
568,256.0417419
569,257.9862945
570,258.0871704
571,255.1263122
572,252.1703613
573,249.6309876
574,247.0916046
575,248.3983368
576,251.7861816
577,253.5665039
578,251.3631043
579,249.1597076
580,249.3145966
581,249.6537872
582,249.8000031
583,249.8
584,250.1415314
585,251.7545746
586,253.3676056
587,252.2185303
588,250.604538
589,251.4198639
590,254.649765
591,256.6295563
592,251.4416473
593,246.2537476
594,248.4550323
595,252.5397369
596,252.8603882
597,248.5178223
598,244.7
599,245.7223846
600,246.7447662
601,250.0704285
602,254.162381
603,255.461966
604,252.6470795
605,250.0763214
606,251.3565704
607,252.6368256
608,250.7365326
609,247.576712
610,245.8559631
611,246.5395691
612,247.3739441
613,252.5040558
614,257.6341553
615,257.7140106
616,255.5752014
617,255.8809448
618,260.5891022
619,265.0318787
620,256.8947632
621,248.7576599
622,247.5516113
623,249.5228149
624,249.1394043
625,244.4228699
626,239.9005401
627,244.9630951
628,250.0256439
629,250.3577026
630,248.5547058
631,247.7706695
632,248.8015595
633,249.9190582
634,253.701236
635,257.4834137
636,259.448645
637,260.6527771
638,260.4529846
639,257.9572327
640,255.772052
641,258.8720642
642,261.9720703
643,262.1684906
644,261.3068665
645,259.8415955
646,257.5138336
647,255.0432342
648,251.1613373
649,247.2794372
650,244.9312592
651,243.0323181
652,243.9707764
653,248.2891113
654,251.708252
655,249.6342255
656,247.560199
657,247.8430664
658,248.621283
659,248.7334961
660,248.214383
661,247.6777283
662,247.0717224
663,246.4657288
664,244.623761
665,242.6314392
666,243.4666107
667,246.3268616
668,248.2806732
669,247.8470428
670,247.4134125
671,245.8022491
672,244.1534882
673,244.7536041
674,246.4901703
675,247.0983093
676,245.7082367
677,244.3385864
678,243.2954132
679,242.2522308
680,241.6702484
681,241.2353333
682,241.8387421
683,243.6664642
684,245.5784576
685,247.929779
686,250.2810974
687,252.1817078
688,254.0115875
689,254.5518829
690,254.1159332
691,252.4790924
692,247.6808563
693,242.882605
694,245.5452728
695,248.3386353
696,246.4211151
697,242.4032776
698,239.5434387
699,238.4072906
700,237.915744
701,242.4630279
702,247.010315
703,243.6063354
704,238.5313507
705,236.957312
706,238.358136
707,239.3551025
708,239.179895
709,239.0046906
710,237.0378784
711,235.0218078
712,233.3081848
713,231.7294556
714,231.2331116
715,232.2862244
716,234.0481232
717,240.4583588
718,246.8685913
719,244.2704437
720,240.14086
721,238.6034119
722,238.9550781
723,238.8261841
724,237.5946381
725,236.4158264
726,236.9439484
727,237.4720673
728,235.8648316
729,233.5749573
730,233.7301117
731,236.4619659
732,239.2708344
733,242.357016
734,245.4431915
735,240.3240021
736,234.7655853
737,234.1445495
738,235.8218933
739,236.3949402
740,235.4232697
741,234.4110199
742,233.1736145
743,231.9362122
744,234.0823853
745,236.6471008
746,238.2117401
747,239.185138
748,238.5280701
749,235.074884
750,232.7279449
751,239.3726257
752,246.0173157
753,244.9604706
754,242.5669708
755,240.5955475
756,238.9102264
757,237.6485718
758,237.2048065
759,237.0729156
760,240.181134
761,243.2893494
762,244.616861
763,245.5943085
764,243.7116119
765,239.7995056
766,235.3194611
767,229.7147125
768,224.9735871
769,229.2464081
770,233.5192352
771,233.9004852
772,233.5442017
773,232.3389984
774,230.556543
775,229.7757721
776,230.8458801
777,231.790329
778,231.7010986
779,231.6118713
780,232.6836426
781,233.9335876
782,234.6799957
783,235.1266693
784,235.295935
785,235.027771
786,234.4901459
787,232.4330139
788,230.375882
789,225.2894775
790,219.9198639
791,220.0868225
792,222.8627716
793,227.9984314
794,236.0624176
795,241.4019287
796,236.7399719
797,232.0780151
798,228.8246155
799,225.5951904
800,227.8445984
801,231.8837738
802,234.602478
803,236.1292969
804,236.0724579
805,232.2980865
806,229.0172119
807,231.984555
808,234.9518951
809,232.9556549
810,230.0765289
811,229.7327423
812,230.9030823
813,231.053418
814,229.7022217
815,228.1848083
816,225.9314789
817,223.6781525
818,222.3811768
819,221.1185669
820,224.0386536
821,228.3701782
822,231.2156677
823,232.7506653
824,232.0563171
825,226.5451324
826,221.9249786
827,225.0890106
828,228.2530457
829,227.4725037
830,226.206134
831,226.2918487
832,227.015918
833,226.7621521
834,225.4037201
835,224.8259033
836,226.4569885
837,227.8678131
838,225.4197327
839,222.9716522
840,223.3695038
841,224.2767364
842,223.4897949
843,221.7650269
844,221.080069
845,221.7158875
846,223.3927032
847,228.3913849
848,233.2138306
849,233.5775879
850,233.9413422
851,236.1369751
852,238.6847809
853,233.765863
854,224.6611511
855,220.8137878
856,223.5468262
857,225.7814056
858,226.5106476
859,227.0353577
860,224.0254486
861,221.0155365
862,227.1291199
863,234.7040039
864,234.6896698
865,230.945636
866,225.62052
867,218.5848755
868,215.4388
869,221.7472137
870,227.1813293
871,225.0772735
872,222.9732208
873,222.3800049
874,221.9223297
875,220.994696
876,219.8956207
877,218.6955566
878,217.4125458
879,217.6423675
880,220.4850098
881,222.357193
882,219.9716217
883,217.6343445
884,223.5100037
885,229.3856537
886,224.0917389
887,216.4672272
888,215.7721436
889,218.8053742
890,220.0510376
891,219.315271
892,218.1657013
893,216.049118
894,214.0603668
895,212.9554077
896,211.8504486
897,220.5049164
898,229.6262604
899,227.6989868
900,222.720752
901,222.2163422
902,224.5224487
903,226.0881653
904,226.734259
905,226.4523743
906,223.7741058
907,221.0956635
908,218.4158081
909,215.7359528
910,216.0388641
911,216.5011841
912,214.4904358
913,211.8073944
914,214.2110993
915,219.6729401
916,222.3420715
917,221.7862976
918,221.0043304
919,219.7067627
920,218.4908997
921,217.7489899
922,217.0070801
923,218.9300659
924,220.8787445
925,220.5796631
926,219.8368744
927,218.6508392
928,217.2572754
929,215.2738953
930,212.7639923
931,211.3752716
932,211.8403442
933,214.5205811
934,224.7582672
935,233.3818543
936,222.8587128
937,212.3355621
938,211.2533325
939,210.8806091
940,209.7039307
941,208.3053864
942,207.9191589
943,208.1057404
944,210.5556274
945,215.3163116
946,216.8865173
947,212.5900177
948,209.4957703
949,210.8976349
950,211.8216736
951,206.4914154
952,201.1611603
953,203.6785553
954,206.7663269
955,205.3164978
956,202.6950134
957,201.8
958,201.8000031
959,202.5362854
960,203.9423218
961,204.6902618
962,204.4088898
963,203.8131775
964,202.3116211
965,200.4773743
966,196.3456421
967,192.2139099
968,197.1630554
969,202.1428742
970,198.5563446
971,193.6675843
972,194.2813446
973,196.8212494
974,204.1640442
975,214.5179535
976,217.4009644
977,212.503479
978,206.7073853
979,199.3567902
980,195.686914
981,203.4190613
982,209.8750061
983,207.233194
984,204.5941437
985,202.8004181
986,201.0066956
987,198.6269867
988,196.1709534
989,195.9627258
990,196.4353241
991,198.3253662
992,200.973468
993,201.7427918
994,200.8911102
995,199.5581757
996,197.5697388
997,196.4653168
998,197.3180115
999,198.6073059
1000,201.6409119
1001,203.9021423
1002,198.4004669
1003,192.8987885
1004,192.8932068
1005,192.9881226
1006,197.154187
1007,201.902652
1008,198.1776581
1009,191.9059509
1010,190.3052399
1011,191.0658935
1012,192.2536194
1013,193.7758392
1014,193.4213196
1015,190.8510468
1016,189.6087921
1017,190.7518127
1018,191.9195953
1019,193.158606
1020,194.6867371
1021,197.7384247
1022,200.498941
1023,198.87677
1024,197.2545929
1025,196.7386749
1026,196.2612793
1027,195.8669098
1028,195.4847687
1029,192.9452118
1030,189.7906647
1031,189.5217255
1032,190.5738617
1033,191.2847168
1034,191.7632477
1035,192.4354553
1036,193.2973236
1037,191.6435852
1038,186.4693115
1039,184.6427887
1040,189.6283844
1041,192.5123291
1042,188.8668427
1043,186.1809112
1044,188.5806854
1045,190.6266571
1046,188.3215057
1047,186.0163544
1048,186.5725372
1049,187.1491699
1050,195.1793884
1051,203.9301483
1052,199.9560822
1053,193.4131592
1054,188.2455627
1055,183.5280029
1056,185.2565826
1057,190.0732727
1058,189.8601471
1059,186.2936767
1060,184.8025848
1061,185.1883789
1062,187.3170471
1063,191.5633056
1064,193.358136
1065,191.1371857
1066,189.1835419
1067,187.8308563
1068,187.9501007
1069,192.7840088
1070,196.3253296
1071,193.5199921
1072,190.6652619
1073,187.374295
1074,184.2652405
1075,186.1054047
1076,187.9455688
1077,184.6144989
1078,181.1257965
1079,183.9647857
1080,187.4555603
1081,189.2283691
1082,190.683725
1083,194.1153351
1084,198.0956726
1085,196.4626557
1086,192.674234
1087,189.206839
1088,185.9021454
1089,183.1266602
1090,180.6952972
1091,180.2951721
1092,181.5602326
1093,182.8256653
1094,184.0914826
1095,184.2423706
1096,182.9758026
1097,182.3888672
1098,182.8763001
1099,184.0191406
1100,186.4577454
1101,187.4474915
1102,184.8122315
1103,182.8923553
1104,183.2829956
1105,183.4157959
1106,182.4386108
1107,181.6554626
1108,182.0465698
1109,182.2680664
1110,180.8983765
1111,179.8752075
1112,185.1614258
1113,190.3867615
1114,188.9174927
1115,187.4482239
1116,189.4854279
1117,191.6416352
1118,185.5303131
1119,178.7636474
1120,179.5669372
1121,181.3332062
1122,179.9329285
1123,177.9692413
1124,187.1723602
1125,198.9614868
1126,193.2832459
1127,182.5684174
1128,176.9550995
1129,173.1190765
1130,171.3029297
1131,170.31875
1132,169.9334168
1133,169.8349457
1134,172.8515533
1135,177.5812439
1136,177.5795807
1137,174.6217682
1138,174.8475678
1139,177.3138794
1140,176.1351319
1141,172.0879761
1142,170.5688599
1143,171.2602509
1144,173.4095062
1145,176.9673431
1146,177.4094543
1147,174.5417145
1148,175.3791016
1149,180.5243103
1150,180.9107758
1151,175.2674835
1152,171.5412384
1153,170.451532
1154,171.2348633
1155,174.8032898
1156,175.6274658
1157,172.0569214
1158,169.1062836
1159,167.2207062
1160,168.8711548
1161,177.0137451
1162,180.7182983
1163,175.750354
1164,172.7884552
1165,173.9814697
1166,173.1762482
1167,168.0034271
1168,166.785675
1169,174.649054
1170,178.969873
1171,174.7868591
1172,172.0279755
1173,172.8252106
1174,174.3738129
1175,177.8638031
1176,180.0727875
1177,178.8755066
1178,176.1218567
1179,169.1335632
1180,164.5567505
1181,166.6544861
1182,168.4368072
1183,169.3363739
1184,168.950766
1185,164.9503265
1186,162.2626892
1187,163.2633911
1188,165.1627197
1189,169.5684448
1190,172.7733002
1191,172.6731079
1192,171.4890289
1193,167.3788116
1194,165.6701416
1195,170.2843475
1196,172.2724213
1197,167.5551025
1198,163.9969971
1199,163.2940003
1200,163.4871246
1201,165.798349
1202,166.5047943
1203,163.5889068
1204,161.887854
1205,162.7933228
1206,163.5660919
1207,164.0694305
1208,163.6047943
1209,161.2880676
1210,162.6839996
1211,170.7469757
1212,173.4282471
1213,167.0748779
1214,162.3733429
1215,160.2542969
1216,160.3185028
1217,163.5494568
1218,163.9756103
1219,160.6417145
1220,160.8812561
1221,165.5312683
1222,166.1020996
1223,162.0562042
1224,160.7963532
1225,162.4156738
1226,161.9989807
1227,159.6698212
1228,163.6403473
1229,172.9625244
1230,171.7696259
1231,162.5432892
1232,159.2220245
1233,159.9321625
1234,159.7574341
1235,159.0468689
1236,160.6558716
1237,163.4998169
1238,167.1784485
1239,171.243634
1240,171.3813049
1241,169.9576386
1242,174.2475678
1243,180.454361
1244,172.8692963
1245,161.4664429
1246,160.1506928
1247,161.0675415
1248,162.1592621
1249,163.2805206
1250,162.2153778
1251,160.8894715
1252,160.2289948
1253,159.6166718
1254,159.2026642
1255,158.7811645
1256,157.45289
1257,156.2638245
1258,157.3884216
1259,158.2457977
1260,156.7113495
1261,155.4446472
1262,155.7517181
1263,156.7451385
1264,160.6370361
1265,162.6949707
1266,158.9032379
1267,156.9947784
1268,159.7633667
1269,161.876297
1270,162.6971069
1271,164.0350311
1272,166.1909363
1273,166.3172485
1274,163.851889
1275,162.4482239
1276,162.1398712
1277,162.4495453
1278,163.2723145
1279,162.1758118
1280,159.8089569
1281,157.8478271
1282,156.0973724
1283,157.443866
1284,160.0195892
1285,159.6416748
1286,158.4045929
1287,155.9616028
1288,153.27966
1289,158.4545837
1290,164.5441528
1291,163.1181
1292,161.30271
1293,156.7559326
1294,152.8844177
1295,156.1931336
1296,158.9215393
1297,158.404245
1298,157.7963928
1299,156.8647095
1300,155.5766907
1301,153.401471
1302,150.7833893
1303,147.3631592
1304,146.6370392
1305,149.5407837
1306,151.8259369
1307,153.486203
1308,153.1345856
1309,151.2656738
1310,152.472815
1311,155.3817383
1312,157.6195129
1313,159.5946015
1314,156.2801087
1315,151.5994934
1316,149.2758331
1317,147.2983978
1318,150.5644958
1319,153.8390534
1320,148.4206818
1321,144.0485321
1322,148.1147308
1323,151.4
1324,151.4
1325,151.0269074
1326,149.6698974
1327,151.1245361
1328,157.6002777
1329,157.6260437
1330,149.5788025
1331,146.6320068
1332,148.2005829
1333,147.4423676
1334,145.2450562
1335,146.5229767
1336,149.2450805
1337,151.3012451
1338,153.1868958
1339,154.050824
1340,154.7845673
1341,150.8982818
1342,148.8414276
1343,171.614563
1344,187.019632
1345,165.4930573
1346,151.6347717
1347,159.4099609
1348,159.6925598
1349,146.5509827
1350,141.3660797
1351,145.6790802
1352,146.957843
1353,145.8000091
1354,143.194104
1355,139.8238571
1356,140.1147064
1357,141.5900665
1358,142.5235321
1359,143.3670944
1360,139.851268
1361,136.4690445
1362,137.5247559
1363,138.6347427
1364,140.0079803
1365,139.8556762
1366,135.7335174
1367,135.8085571
1368,142.5771484
1369,144.6922974
1370,142.0467438
1371,142.5997589
1372,145.2468811
1373,143.2710052
1374,139.4568817
1375,138.0102203
1376,137.0561218
1377,136.7004959
1378,136.601001
1379,140.2096543
1380,142.708696
1381,139.8412964
1382,138.4429047
1383,140.6744339
1384,142.5179962
1385,143.7939117
1386,145.7404572
1387,148.2938049
1388,149.0626556
1389,148.8497528
1390,146.4328461
1391,143.3438812
1392,139.0220032
1393,134.6582443
1394,139.4571655
1395,143.5270569
1396,142.9935318
1397,141.8715668
1398,139.0955643
1399,137.2336792
1400,136.8063476
1401,137.650296
1402,139.6813263
1403,137.7737305
1404,133.7092529
1405,135.5416901
1406,139.0734589
1407,137.261908
1408,134.9358673
1409,133.3286087
1410,133.0409134
1411,139.0449158
1412,136.1633392
1413,113.3131256
1414,108.1716156
1415,125.238948
1416,133.9585175
1417,136.6436539
1418,137.1684051
1419,136.8460007
1420,134.6796081
1421,132.2063476
1422,131.4487549
1423,130.3969757
1424,127.4901306
1425,127.4884064
1426,134.921431
1427,137.4159912
1428,133.2122208
1429,134.5292618
1430,140.0297622
1431,142.9108658
1432,144.745459
1433,141.7450317
1434,138.0304062
1435,141.3798096
1436,143.3117584
1437,137.6900727
1438,132.9003601
1439,129.9796661
1440,130.4375763
1441,134.8753342
1442,135.0109085
1443,132.4116547
1444,130.8884781
1445,129.6964447
1446,132.8887131
1447,136.1757172
1448,135.8502335
1449,134.7215256
1450,130.9219376
1451,128.8957047
1452,129.6560745
1453,130.4762207
1454,131.3457306
1455,132.7542572
1456,134.3855576
1457,129.6853134
1458,124.2699951
1459,126.5565262
1460,128.7166565
1461,130.3508667
1462,130.6584702
1463,128.5872452
1464,128.2279419
1465,129.4277832
1466,127.4662171
1467,124.0828385
1468,126.1277786
1469,129.0339523
1470,130.3452026
1471,130.6087937
1472,126.5633697
1473,125.0019851
1474,127.7370025
1475,128.3519241
1476,127.1478012
1477,124.229512
1478,120.6150009
1479,124.274527
1480,128.5669403
1481,128.018634
1482,127.1069671
1483,125.0221741
1484,125.1628357
1485,128.4565674
1486,129.214563
1487,128.2258575
1488,125.7949051
1489,122.9369507
1490,123.7424469
1491,124.1145157
1492,120.4828034
1493,118.6270508
1494,120.6091629
1495,120.608139
1496,118.6248535
1497,119.283728
1498,121.1579437
1499,123.7055954
1500,126.2319168
1501,126.783812
1502,127.9060989
1503,130.7776535
1504,130.092392
1505,124.787915
1506,125.703717
1507,130.3478912
1508,128.670459
1509,125.6147369
1510,127.2753387
1511,127.7260284
1512,123.4058975
1513,120.5800995
1514,120.0259079
1515,122.0993652
1516,125.9810043
1517,123.7355377
1518,119.85159
1519,120.3478043
1520,121.294606
1521,123.9610458
1522,123.9721878
1523,119.7478241
1524,118.9129501
1525,120.4702179
1526,121.238649
1527,121.7951431
1528,123.0143341
1529,124.0653168
1530,124.3996109
1531,123.7514282
1532,121.6329742
1533,120.4615158
1534,119.9036942
1535,120.8905411
1536,122.2326279
1537,123.6846771
1538,124.9036697
1539,125.3507172
1540,126.1441864
1541,127.3743042
1542,128.239032
1543,128.9104049
1544,124.0519943
1545,118.9168228
1546,120.3731842
1547,120.8379532
1548,118.9323532
1549,120.8641876
1550,126.4722214
1551,127.8366928
1552,127.6122376
1553,122.9284866
1554,119.4096863
1555,123.1175766
1556,122.9363678
1557,116.5280319
1558,114
1559,114.0000015
1560,116.2357971
1561,118.6569534
1562,115.8412796
1563,113.3970734
1564,111.9320541
1565,113.0052887
1566,116.6136261
1567,114.8944931
1568,111.1711884
1569,111.2154068
1570,111.6679337
1571,113.1364304
1572,113.9068787
1573,113.6808228
1574,112.4374436
1575,110.627919
1576,114.9498032
1577,119.7811722
1578,121.4796127
1579,121.6745697
1580,118.9554535
1581,116.3006058
1582,113.6932434
1583,114.4876175
1584,116.0270325
1585,116.5945221
1586,116.9027359
1587,116.5620392
1588,114.3144379
1589,110.3373016
1590,107.5750168
1591,105.2157074
1592,108.1736542
1593,110.456311
1594,110.6839783
1595,109.0125595
1596,105.3676941
1597,106.4927811
1598,109.3420197
1599,115.0975433
1600,118.904242
1601,115.8234177
1602,112.6877197
1603,109.4908966
1604,109.259227
1605,110.1731446
1606,108.424823
1607,107.3032532
1608,108.6757538
1609,109.3459473
1610,109.2315048
1611,109.2829895
1612,109.3974991
1613,110.4086868
1614,111.039975
1615,110.352095
1616,107.9281189
1617,103.6836899
1618,105.1642792
1619,108.6012924
1620,109.1755432
1621,109.1503509
1622,107.4265793
1623,108.395456
1624,111.8450424
1625,111.8810059
1626,110.8767136
1627,107.9986527
1628,105.6128311
1629,104.3457337
1630,105.1779648
1631,107.5983994
1632,108.0961929
1633,109.2373215
1634,119.6228973
1635,121.627121
1636,109.157045
1637,105.479747
1638,106.8661301
1639,104.3890534
1640,103.4636566
1641,111.9074768
1642,115.4173843
1643,112.755426
1644,108.1017441
1645,102.658873
1646,109.1333893
1647,113.1761429
1648,110.0456864
1649,107.0391052
1650,104.1388184
1651,103.4109711
1652,103.2848099
1653,104.2139984
1654,105.0146194
1655,105.5957062
1656,104.5181396
1657,102.541275
1658,102.9401993
1659,103.5464569
1660,104.2449997
1661,104.3135437
1662,103.7310806
1663,103.419339
1664,103.344809
1665,105.7940521
1666,106.837468
1667,105.2036758
1668,102.1704269
1669,98.31706239
1670,104.4334458
1671,107.9294647
1672,97.87548372
1673,97.60767516
1674,107.3166748
1675,104.4357819
1676,99.02207795
1677,104.5264481
1678,106.7029648
1679,103.1874558
1680,99.28233643
1681,95.17848815
1682,98.36658326
1683,100.6157303
1684,99.08964081
1685,97.75619811
1686,96.58158874
1687,96.2012802
1688,95.64507599
1689,93.17547912
1690,91.53934173
1691,90.95099487
1692,90.01230164
1693,89.26320343
1694,95.153627
1695,97.28198241
1696,92.33110046
1697,92.67108459
1698,95.85567322
1699,94.53530426
1700,93.461409
1701,93.69758301
1702,97.07900695
1703,102.8686997
1704,99.57155303
1705,96.1014618
1706,97.75761566
1707,95.69196319
1708,89.77363586
1709,95.05659331
1710,101.1954254
1711,92.30744325
1712,90.37753296
1713,97.84785155
1714,96.46961517
1715,92.0175354
1716,88.57475433
1717,87.23126831
1718,89.48821411
1719,91.82744903
1720,94.19449311
1721,91.34024506
1722,89.2475769
1723,88.77158814
1724,90.35134735
1725,93.08990021
1726,96.51609496
1727,99.20103606
1728,99.9162842
1729,98.40088502
1730,95.41891937
1731,89.22829742
1732,85.59815216
1733,90.37492981
1734,89.71549988
1735,85.05539093
1736,86.97329407
1737,88.97254639
1738,88.85291748
1739,87.79867401
1740,86.00314789
1741,87.18087463
1742,88.86815949
1743,91.0253357
1744,90.35665741
1745,87.35881348
1746,86.89437714
1747,87.41495514
1748,90.29628448
1749,95.15171815
1750,101.63853
1751,96.56519011
1752,90.79510041
1753,88.02893982
1754,90.21063995
1755,96.34792175
1756,95.81621856
1757,93.84653931
1758,89.75018768
1759,88.34522857
1760,88.94798889
1761,88.22850037
1762,86.92117615
1763,84.26590271
1764,86.16375427
1765,91.11513367
1766,88.89453735
1767,88.70234375
1768,94.62682953
1769,92.74006195
1770,86.32816467
1771,90.35207977
1772,92.00885773
1773,88.37520294
1774,87.69198151
1775,88.44468842
1776,90.14239197
1777,90.87975922
1778,90.03040772
1779,88.56138
1780,86.77261048
1781,83.97858734
1782,84.51504517
1783,89.37708435
1784,87.23086243
1785,83.71166382
1786,83.10319214
1787,82.55563202
1788,82.06856842
1789,83.36090851
1790,85.29000092
1791,88.45964508
1792,87.19524231
1793,82.68193664
1794,81.02685547
1795,79.85398559
1796,79.36548614
1797,81.30082703
1798,84.36100159
1799,82.77150726
1800,81.03894959
1801,79.08149414
1802,81.55366211
1803,84.73497314
1804,82.53024292
1805,81.81810303
1806,82.67600403
1807,85.84225159
1808,87.47041473
1809,82.43965149
1810,79.67002869
1811,78.44229126
1812,79.2303009
1813,75.19516068
1814,61.55121078
1815,69.13328323
1816,84.02074127
1817,84.26686707
1818,83.77817078
1819,82.42367859
1820,82.81717072
1821,82.64353027
1822,79.06839142
1823,79.19916229
1824,81.91293182
1825,78.17709656
1826,75.29958191
1827,74.43509216
1828,76.98896179
1829,80.63027344
1830,82.73221741
1831,79.8435257
1832,71.80195541
1833,72.6422142
1834,74.93999481
1835,77.78882294
1836,83.43679962
1837,90.16707916
1838,82.7266098
1839,78.81542511
1840,79.80807037
1841,79.99999847
1842,79.56230316
1843,77.3262207
1844,77.78344116
1845,80.14513855
1846,84.45192871
1847,84.72229156
1848,78.00220795
1849,76.96898651
1850,78.12276459
1851,81.48675537
1852,79.98219147
1853,74.49690552
1854,80.45330963
1855,83.0044632
1856,77.76235046
1857,75.75299377
1858,74.94802551
1859,74.57314911
1860,74.93825989
1861,75.93851776
1862,72.82977295
1863,73.45062408
1864,81.8376358
1865,78.98017426
1866,74.2569458
1867,81.52587585
1868,80.2515152
1869,71.97511825
1870,73.15722656
1871,74.51700745
1872,75.39584045
1873,81.19341278
1874,85.52251587
1875,75.96970978
1876,73.54360504
1877,76.18474426
1878,76.07488251
1879,74.82727814
1880,71.93120117
1881,75.82388458
1882,79.13335266
1883,75.35142517
1884,72.62190704
1885,70.73692779
1886,73.13496094
1887,73.50500717
1888,71.61071243
1889,75.44297256
1890,77.28461151
1891,72.98583527
1892,68.68523483
1893,67.1393631
1894,82.07615814
1895,83.46366272
1896,74.34434051
1897,74.44945221
1898,72.64347839
1899,67.82485504
1900,72.57352447
1901,77.18322143
1902,75.53280945
1903,72.59144897
1904,69.19109497
1905,67.1574379
1906,67.47876129
1907,69.89514694
1908,74.74750519
1909,77.60395355
1910,77.09464111
1911,72.64343567
1912,69.84591904
1913,74.94498749
1914,74.70465851
1915,72.09031143
1916,71.06930161
1917,68.52988358
1918,64.69885483
1919,68.70779495
1920,71.09542923
1921,70.83972778
1922,74.68978577
1923,76.56014862
1924,71.44013062
1925,71.84102325
1926,73.29515533
1927,68.80988846
1928,68.30023193
1929,70.22563477
1930,65.47851105
1931,65.5766922
1932,70.96847687
1933,66.67317581
1934,63.81984024
1935,64.97657547
1936,66.44514313
1937,68.73338547
1938,73.23707123
1939,71.09824982
1940,66.74434509
1941,66.35786362
1942,68.41127548
1943,71.72153625
1944,64.756707
1945,62.0209549
1946,63.69865112
1947,67.92518158
1948,69.38829651
1949,66.28737793
1950,66.45376587
1951,68.56882095
1952,73.87241974
1953,69.28099823
1954,65.06544419
1955,75.16702881
1956,74.75047455
1957,69.46376572
1958,68.29683609
1959,64.22406616
1960,58.20847092
1961,58.46809387
1962,59.68620911
1963,61.89428101
1964,57.91657486
1965,58.35537567
1966,65.50749359
1967,63.32530289
1968,82.74483795
1969,147.0589874
1970,109.2413254
1971,61.67961197
1972,56.72658615
1973,58.64660568
1974,62.48514786
1975,63.92059479
1976,63.00858231
1977,61.0070015
1978,59.56987762
1979,62.47101822
1980,67.723069
1981,66.67666626
1982,65.41615372
1983,63.89743424
1984,57.61168137
1985,56.64282074
1986,61.22886047
1987,63.1669899
1988,63.51176071
1989,61.9375679
1990,59.16464996
1991,58.21724472
1992,60.31861953
1993,61.73816071
1994,60.97081756
1995,56.23720245
1996,57.34934387
1997,60.31624374
1998,64.66045914
1999,58.47698822
2000,54.52782211
2001,64.80794983
2002,62.37024765
2003,56.62023849
2004,54.11318283
2005,54.62810288
2006,55.46975708
2007,52.82767181
2008,57.44642029
2009,63.21907654
2010,58.72229004
2011,55.71188355
2012,53.93918304
2013,54.86607208
2014,59.43790359
2015,64.14726257
2016,56.06066665
2017,59.01813965
2018,66.98116913
2019,61.53958054
2020,59.56116714
2021,59.74643707
2022,59.21493073
2023,60.18784332
2024,61.41677856
2025,55.03127518
2026,51.69567261
2027,50.6
2028,50.6
2029,51.45571213
2030,52.92168655
2031,54.38844299
2032,56.47802429
2033,58.45228882
2034,54.31388626
2035,52.20872116
2036,51.55265045
2037,51.01804123
2038,50.24568405
2039,49.63266144
2040,52.04120636
2041,57.0294281
2042,62.29033966
2043,55.72611389
2044,55.67375412
2045,58.72121582
2046,54.83174438
2047,53.99359055
2048,54.74297714
2049,54.34014969
2050,51.92213974
2051,49.26371994
2052,50.87690582
2053,50.40016937
2054,49.14916153
2055,48.87998581
2056,49.55720596
2057,51.66138687
2058,57.45542374
2059,52.57266159
2060,48.09095611
2061,56.45486374
2062,55.0851593
2063,51.26676483
2064,48.70065155
2065,53.74735871
2066,56.46688995
2067,50.51740265
2068,49.37113495
2069,47.90636749
2070,44.38667603
2071,43.75885849
2072,45.33769226
2073,49.5391243
2074,48.2737381
2075,50.29035645
2076,56.53198395
2077,49.34850922
2078,45.16915512
2079,44.14856186
2080,47.54666214
2081,46.6649292
2082,42.69537506
2083,39.70157318
2084,42.47271194
2085,47.08861771
2086,43.95510025
2087,42.90523071
2088,44.3552803
2089,51.17518082
2090,48.43360138
2091,43.14566269
2092,38.91241913
2093,40.58645935
2094,41.79633255
2095,40.15575714
2096,42.47613525
2097,43.3936409
2098,42.02490692
2099,5.561199552
2100,7.23565197
2101,41.90279388
2102,37.10389176
2103,36.19315033
2104,37.67986069
2105,38.22894211
2106,41.14226379
2107,43.43369522
2108,40.13538437
2109,24.01354027
2110,18.3230484
2111,42.26351395
2112,40.01654282
2113,34.8519783
2114,31.13277435
2115,40.17062759
2116,42.67669983
2117,38.80868988
2118,38.9466774
2119,41.28727951
2120,43.26025772
2121,36.35288086
2122,39.15906868
2123,42.65373001
2124,37.67465973
2125,36.00145874
2126,35.60998077
2127,36.1638504
2128,34.90494766
2129,33.04243012
2130,31.02189369
2131,35.59925766
2132,35.12690315
2133,31.49421463
2134,28.43910713
2135,33.14320411
2136,38.63975754
2137,38.77878647
2138,37.73904648
2139,38.08349686
2140,40.72810516
2141,39.30967331
2142,38.07641525
2143,36.8743927
2144,33.6674717
2145,35.48527145
2146,38.2131279
2147,35.70046272
2148,32.96292686
2149,32.23113098
2150,35.02620811
2151,33.36404152
2152,35.09858742
2153,40.10937042
2154,41.50933075
2155,42.09098205
2156,40.64617538
2157,33.63828736
2158,35.20932007
2159,36.1517067
2160,32.2227581
2161,41.6681427
2162,41.93549499
2163,34.12093163
2164,37.49443359
2165,37.65448151
2166,37.09302216
2167,39.06316986
2168,35.08088684
2169,33.72715798
2170,37.9537735
2171,47.48100967
2172,47.25616684
2173,40.60646896
2174,39.33629074
2175,38.1693985
2176,36.04809647
2177,31.80928383
2178,30.88910217
2179,31.42967338
2180,33.03180618
2181,33.45642052
2182,38.8490036
2183,41.89948196
2184,30.2799839
2185,34.22330399
2186,36.68348389
2187,33.22021217
2188,34.35578079
2189,34.71353149
2190,34.22933426
2191,32.38190956
2192,32.33839035
2193,32.8200798
2194,33.38917236
2195,38.84621734
2196,37.91804657
2197,32.71000137
2198,29.85962296
2199,33.69363213
2200,37.66115913
2201,38.37457275
2202,32.34222489
2203,30.00243874
2204,30.6
2205,30.60000038
2206,31.692696
2207,31.97226753
2208,30.25514526
2209,39.76186294
2210,38.51936646
2211,30.72536545
2212,31.44206657
2213,36.1845375
2214,39.91054535
2215,40.19755478
2216,39.63054199
2217,34.84192734
2218,30.37348671
2219,37.9923706
2220,37.52382812
2221,35.89434548
2222,35.2454628
2223,36.541465
2224,42.21389771
2225,45.55812378
2226,35.32236671
2227,38.39644508
2228,45.05426254
2229,51.07628784
2230,35.62400589
2231,37.18137131
2232,42.99060516
2233,43.56892166
2234,37.71378784
2235,35.5711853
2236,36.11005859
2237,34.51694641
2238,39.65583496
2239,41.09785232
2240,35.40000076
2241,35.4
2242,35.49623642
2243,34.27454605
2244,29.62674332
2245,32.63157577
2246,35.01883964
2247,35.81777344
2248,34.65382538
2249,32.23722
2250,29.4111721
2251,26.83991356
2252,33.68986168
2253,33.29388275
2254,32.01493759
2255,37.55953522
2256,32.2209652
2257,30.60654182
2258,31.84289513
2259,28.77351265
2260,32.00540543
2261,34.92600403
2262,35.85378799
2263,39.07485123
2264,37.59835281
2265,33.4131733
2266,27.69657364
2267,40.14414673
2268,37.63703537
2269,31.58753433
2270,42.45302506
2271,37.02968369
2272,33.91346283
2273,34.67917099
2274,36.29708099
2275,35.28425713
2276,37.00589752
2277,41.94661942
2278,39.29459
2279,38.05595627
2280,36.6998436
2281,34.36234932
2282,32.88647575
2283,31.0140522
2284,30.62727775
2285,33.87790756
2286,37.55718308
2287,36.83570709
2288,31.56936645
2289,21.35675468
2290,28.99003906
2291,30.64685288
2292,28.0388607
2293,33.07977524
2294,30.74836197
2295,34.59006042
2296,42.88852081
2297,37.24491692
2298,33.05173645
2299,29.67518234
2300,27.49476662
2301,29.87508545
2302,33.30071907
2303,34.42619514
2304,32.44160347
2305,32.88867607
2306,34.23177719
2307,34.16089974
2308,32.01679039
2309,35.1516468
2310,36.54471512
2311,39.39194031
2312,44.66226501
2313,34.34443054
2314,34.17996483
2315,32.69647789
2316,22.95700836
2317,26.70173721
2318,29.91837578
2319,32.86067162
2320,35.51897278
2321,33.41834564
2322,33.43562393
2323,33.10241241
2324,31.12854614
2325,38.94418335
2326,37.24172592
2327,33.28340797
2328,31.84249878
2329,28.83135834
2330,33.9978035
2331,36.07335892
2332,29.34645767
2333,31.45784836
2334,32.4486084
2335,30.78121185
2336,26.76607857
2337,30.69391174
2338,32.76286964
2339,32.65526009
2340,31.06227607
2341,33.18086471
2342,31.77812347
2343,31.62078705
2344,33.15573349
2345,31.63988037
2346,27.95291901
2347,28.06403313
2348,31.29348259
2349,31.74901199
2350,40.70496216
2351,43.00125046
2352,39.38757171
2353,35.43293457
2354,31.04651833
2355,46.01093445
2356,55.74542618
2357,28.79987412
2358,28.64742775
2359,28.07461052
2360,27.427071
2361,27.5339222
2362,35.47459412
2363,34.39066582
2364,30.14278069
2365,26.92978172
2366,32.13057327
2367,31.8528141
2368,30.31382103
2369,29.50577392
2370,31.80413666
2371,30.59754219
2372,31.68496742
2373,31.38943825
2374,24.22743034
2375,32.36667976
2376,34.26140099
2377,31.15928306
2378,26.12505608
2379,35.50875359
2380,29.28883743
2381,29.42632485
2382,35.76192169
2383,25.59186363
2384,29.88739662
2385,33.60060196
2386,33.53168945
2387,28.11920471
2388,21.9416111
2389,23.41790085
2390,24.95158463
2391,23.58590355
2392,29.61925163
2393,36.56283607
2394,34.30991134
2395,27.19360771
2396,28.7432373
2397,25.36447105
2398,31.6180748
2399,35.17883911
2400,28.04653626
2401,32.70590897
2402,32.0930397
2403,34.11692009
2404,35.29465256
2405,22.07078628
2406,27.31065636
2407,29.60697403
2408,30.92613907
2409,33.49418411
2410,32.40270615
2411,27.49956589
2412,29.95210762
2413,36.1018013
2414,31.72852287
2415,34.7853569
2416,31.26313057
2417,27.85094757
2418,27.50513763
2419,17.79965896
2420,22.56584473
2421,25.23712425
2422,23.32869415
2423,18.71096287
2424,22.79015389
2425,31.83202362
2426,34.24411163
2427,28.48437729
2428,25.96987686
2429,30.93174477
2430,35.19025307
2431,34.27415161
2432,26.88171578
2433,24.20405807
2434,22.59565468
2435,20.71949005
2436,21.31467514
2437,27.63999481
2438,24.0091507
2439,28.23279304
2440,28.73533173
2441,25.18808937
2442,26.76937294
2443,21.05936165
2444,23.25671158
2445,24.5490982
2446,21.69056816
2447,22.16601639
2448,22.49447403
2449,23.76454582
2450,21.31353874
2451,15.39956665
2452,24.92983284
2453,26.28216095
2454,26.50006294
2455,28.60979347
2456,32.12416802
2457,20.98063374
2458,25.00425835
2459,25.96757164
2460,14.88818379
2461,-6.271801997
2462,27.2335865
2463,30.58895111
2464,27.53726082
2465,24.66481552
2466,23.37345695
2467,25.45223694
2468,27.13229447
2469,26.96050835
2470,25.62626038
2471,24.73572884
2472,26.3383625
2473,23.78233833
2474,26.18319321
2475,33.42789612
2476,39.65358887
2477,21.66402359
2478,22.01205177
2479,23.98605881
2480,26.00422173
2481,28.42950859
2482,20.38053818
2483,32.27171212
2484,29.1889698
2485,22.41158829
2486,25.05006027
2487,25.37273674
2488,30.86818848
2489,27.33611526
2490,23.65001946
2491,27.34240799
2492,38.01445084
2493,24.98893242
2494,26.61860084
2495,48.81473694
2496,65.08854981
2497,21.35855446
2498,19.57493095
2499,20.3532074
2500,22.89886322
2501,23.51106606
2502,19.02808418
2503,21.46570664
2504,19.27460289
2505,25.71574325
2506,31.55207024
2507,28.82914848
2508,27.85193252
2509,24.40541191
2510,20.34957161
2511,20.61256447
2512,23.37191429
2513,20.83636532
2514,31.28893776
2515,26.52324562
2516,22.42399369
2517,23.35556946
2518,26.45840759
2519,20.07474022
2520,24.14784546
2521,23.98393555
2522,23.35539551
2523,23.94006767
2524,23.00000038
2525,23
2526,22.72855453
2527,20.69988251
2528,19.70105209
2529,21.77272034
2530,22.75972633
2531,21.3791172
2532,21.85774841
2533,21.78913421
2534,21.00000019
2535,21.32192631
2536,24.45609055
2537,23.91837998
2538,21.8072689
2539,20.78613319
2540,21.90975533
2541,23.61268883
2542,19.64280167
2543,20.94187088
2544,23.5725193
2545,26.73777771
2546,28.03340034
2547,20.77787819
2548,18.12397842
2549,17.99958077
2550,21.57308273
2551,24.47763252
2552,23.46291313
2553,23.79538193
2554,17.89541645
2555,20.38201485
2556,19.78409043
2557,14.97023983
2558,12.22257976
2559,21.22399826
2560,24.17990074
2561,23.62658005
2562,21.05380096
2563,20.15764351
2564,22.6
2565,22.6
2566,25.58414612
2567,23.00553093
2568,20.99802437
2569,21.48346634
2570,22.45453796
2571,19.05912209
2572,22.24549522
2573,20.02809181
2574,21.24834518
2575,23.99502907
2576,24.61856117
2577,23.3778244
2578,26.23662262
2579,25.8656498
2580,20.18606796
2581,26.06303101
2582,34.75066376
2583,19.92619705
2584,16.04779491
2585,31.27802391
2586,23.86784058
2587,19.87653198
2588,20.86412201
2589,16.90063095
2590,17.46584167
2591,21.6953701
2592,20.98926887
2593,19.95837097
2594,17.04584808
2595,14.67909698
2596,19.38865261
2597,21.0850975
2598,19.61759319
2599,23.29753036
2600,24.42482414
2601,22.72476158
2602,20.73802757
2603,16.23216209
2604,16.91296806
2605,18.33672085
2606,15.3523695
2607,16.9300766
2608,20.48367538
2609,18.09972839
2610,22.00654011
2611,23.0310978
2612,16.92177029
2613,16.21762695
2614,18.61512413
2615,20.94627228
2616,22.24717064
2617,14.88447132
2618,18.69512672
2619,22.77797127
2620,24.87333221
2621,21.04379654
2622,14.66758709
2623,15.31811695
2624,24.93811836
2625,20.73066063
2626,19.85726928
2627,20.0295311
2628,10.38267841
2629,10.71372948
2630,38.39575348
2631,19.09594765
2632,23.57940597
2633,23.15943375
2634,20.61745415
2635,19.2
2636,21.80089531
2637,25.30035324
2638,18.32534313
2639,17.28732395
2640,16.24878826
2641,14.94636974
2642,16.28912983
2643,18.15655766
2644,21.08766747
2645,27.33999939
2646,17.27311974
2647,17.54479904
2648,12.63125267
2649,12.83931293
2650,15.70175171
2651,20.99549179
2652,15.30443039
2653,-28.84666977
2654,11.92218018
2655,26.21438179
2656,16.29217644
2657,13.97664299
2658,15.25589886
2659,17.74661732
2660,24.41979637
2661,16.28643055
2662,23.28188171
2663,13.43066921
2664,16.89424744
2665,14.10164471
2666,13.03484574
2667,19.52087746
2668,22.92334137
2669,16.6004364
2670,26.95777855
2671,18.70340004
2672,24.24493065
2673,20.88884773
2674,15.09417019
2675,14.9579752
2676,16.27260208
2677,12.61450214
2678,9.266483783
2679,11.61927471
2680,21.24990235
2681,20.12753105
2682,14.53363972
2683,13.17691192
2684,14.82213745
2685,12.96180115
2686,13.8739315
2687,15.28970184
2688,17.84907703
2689,21.76992684
2690,16.72988987
2691,15.90289707
2692,16.45549469
2693,12.6407259
2694,19.48001099
2695,16.12988453
2696,13.64162254
2697,-26.41896553
2698,-3.799676227
2699,13.97702284
2700,15.64384918
2701,17.41620274
2702,21.1345375
2703,17.25538788
2704,9.331277753
2705,7.724808979
2706,9.741321182
2707,12.06401596
2708,17.92983246
2709,17.16095142
2710,18.07377224
2711,22.63150902
2712,10.52875671
2713,-9.881098968
2714,20.5934267
2715,13.46534157
2716,16.12547817
2717,15.44820214
2718,14.48563614
2719,15.24653549
2720,14.57551899
2721,12.71299782
2722,185.267461
2723,955.7326365
2724,34.03278504
2725,14.93058434
2726,16.95433922
2727,13.36233978
2728,14.71047478
2729,16.90423679
2730,17.71691208
2731,16.62863178
2732,11.37674923
2733,15.85294743
2734,10.6042243
2735,9.152471923
2736,25.37350845
2737,25.32892303
2738,19.80899505
2739,16.763093
2740,13.56990376
2741,16.01912403
2742,22.10712585
2743,8.585913467
2744,12.78995914
2745,15.15536938
2746,10.55597706
2747,19.32365723
2748,14.59416085
2749,13.92988148
2750,14.98462963
2751,17.14444065
2752,18.54512482
2753,13.28519115
2754,15.58548832
2755,51.70607376
2756,20.17652931
2757,19.07841911
2758,11.34826841
2759,19.19408378
2760,18.31398659
2761,14.20217132
2762,15.80391254
2763,17.93099117
2764,16.65892353
2765,16.50852737
2766,16.72384434
2767,16.37801952
2768,16.18208446
2769,15.62982864
2770,14.03189049
2771,10.78849163
2772,16.7142046
2773,15.32642021
2774,13.89465923
2775,13.73190842
2776,15.72197494
2777,17.29536762
2778,10.5285821
2779,7.660069466
2780,10.82650509
2781,4.454684639
2782,12.23530626
2783,7.47678404
2784,11.17665157
2785,14.4143549
2786,10.40339413
2787,10.14100056
2788,11.70473995
2789,10.07811317
2790,10.06824188
2791,12.08397617
2792,9.004702185
2793,8.119427491
2794,6.521679926
2795,4.223512673
2796,4.783078718
2797,12.76296025
2798,15.27683983
2799,12.81931477
2800,12.56548805
2801,11.77318001
2802,10.50745506
2803,10.82069569
2804,9.264131929
2805,13.11522827
2806,18.8886219
2807,9.225821115
2808,10.76136971
2809,10.15728254
2810,11.8649683
2811,5.543178081
2812,14.00280056
2813,14.93777561
2814,14.49769306
2815,14.24429512
2816,10.88647652
2817,11.45527706
2818,8.889096737
2819,9.232891846
2820,11.99060669
2821,13.55983391
2822,11.0675066
2823,8.063541341
2824,13.8028883
2825,10.85221882
2826,7.73647356
2827,15.75854883
2828,8.953534699
2829,8.226009749
2830,12.39861584
2831,10.25214896
2832,20.05684204
2833,21.15840302
2834,18.44256763
2835,12.25839443
2836,9.86920643
2837,7.13553257
2838,7.184392261
2839,9.722337912
2840,13.76418534
2841,15.70015278
2842,16.34217873
2843,18.59518013
2844,13.04028454
2845,12.91718197
2846,15.59529572
2847,8.976800154
2848,10.4580533
2849,14.63311252
2850,18.02082481
2851,9.013734818
2852,13.29254494
2853,11.63076782
2854,6.955359459
2855,8.80750885
2856,11.41611681
2857,20.10137157
2858,18.81186295
2859,12.64377651
2860,12.01855574
2861,-4.096193981
2862,-2.476795864
2863,10.64625282
2864,14.21353492
2865,15.93472633
2866,12.91064491
2867,8.850675011
2868,6.833938789
2869,5.299813271
2870,9.709478283
2871,10.67606516
2872,12.96775074
2873,12.70796776
2874,7.832446575
2875,5.722314644
2876,22.22052231
2877,11.8721777
2878,9.911082267
2879,13.59678192
2880,9.902753831
2881,21.14668159
2882,13.16479683
2883,12.7568821
2884,10.89423399
2885,7.06866169
2886,11.62123795
2887,15.17398529
2888,16.56732483
2889,10.10572052
2890,8.520780086
2891,11.73260403
2892,8.672407531
2893,7.647395325
2894,9.973931026
2895,16.63923893
2896,15.21993942
2897,12.25860653
2898,10.93757429
2899,15.49068241
2900,15.84008274
2901,8.901302337
2902,9.971155356
2903,12.02946682
2904,14.58758755
2905,15.07773667
2906,10.82967787
2907,12.8256403
2908,12.12610493
2909,15.10319824
2910,12.38770161
2911,7.312776375
2912,9.706037521
2913,7.240663147
2914,12.5113143
2915,15.90273552
2916,10.08227348
2917,11.27984686
2918,14.44929466
2919,13.63988209
2920,14.1080965
2921,9.597944451
2922,7.881528568
2923,9.905334663
2924,8.724393367
2925,5.215825462
2926,4.823875976
2927,11.15822935
2928,14.33651467
2929,16.9461668
2930,9.948817824
2931,7.319695139
2932,7.714715101
2933,10.99360943
2934,10.80065537
2935,3.750749266
2936,6.796083259
2937,12.42533894
2938,10.04408808
2939,14.82977619
2940,6.243289423
2941,5.689524126
2942,11.0947298
2943,7.036347342
2944,10.53558617
2945,8.067530727
2946,4.915396357
2947,4.282997402
2948,9.018523789
2949,11.30589275
2950,8.142614841
2951,9.90590706
2952,12.10400142
2953,12.23895512
2954,13.40846958
2955,16.62505951
2956,15.68341541
2957,16.37440243
2958,10.69979534
2959,8.574845504
2960,2.97602067
2961,6.1167696
2962,8.609781933
2963,9.689860534
2964,5.130861688
2965,8.318169403
2966,8.709060954
2967,7.464896774
2968,2.447016931
2969,3.93598938
2970,8.608300972
2971,16.01187382
2972,16.24409485
2973,8.185350896
2974,9.0278327
2975,10.13360367
2976,13.78126316
2977,14.52810154
2978,17.52946548
2979,11.12886162
2980,8.316485022
2981,6.151473618
2982,5.294188643
2983,9.348525238
2984,9.346060084
2985,4.310039496
2986,5.702109408
2987,4.996027232
2988,9.58681097
2989,0.882968047
2990,6.774804306
2991,15.14562302
2992,-2.156614876
2993,19.69881325
2994,15.74126549
2995,11.14083138
2996,9.032108664
2997,14.4522995
2998,18.05602589
2999,15.82963257
3000,7.550182343
