Frequency,Density
0,246.2
1,246.2
2,246.2
3,246.2
4,246.2
5,246.2
6,246.2
7,246.2
8,246.2
9,246.2
10,246.2
11,246.2
12,246.2
13,246.2
14,246.2
15,246.2
16,246.2
17,246.2
18,246.2
19,246.2
20,246.2
21,246.2
22,246.2
23,246.2
24,246.2
25,246.2
26,246.2
27,246.2
28,246.2
29,246.2
30,246.2
31,246.2
32,246.2
33,246.2
34,246.2
35,246.2
36,246.2
37,246.2
38,246.2
39,246.2
40,246.2
41,246.2
42,246.2
43,246.2
44,246.2
45,246.2
46,246.2
47,246.2
48,246.2
49,246.2
50,246.2
51,246.2
52,246.2
53,246.2
54,246.2
55,246.2
56,246.2
57,246.2
58,246.2
59,246.2
60,246.2
61,246.2
62,246.2
63,246.2
64,246.2
65,246.2
66,246.2
67,246.2
68,246.2
69,246.2
70,246.2
71,246.2
72,246.2
73,246.2
74,246.2
75,246.2
76,246.2
77,246.2
78,246.2
79,246.2
80,246.2
81,246.2
82,246.2
83,246.2
84,246.2
85,246.2
86,246.2
87,246.2
88,246.2
89,246.2
90,246.2
91,246.2
92,246.2
93,246.2
94,246.2
95,246.2
96,246.2
97,246.2
98,246.2
99,246.2
100,246.2
101,246.2
102,246.2
103,246.2
104,246.2
105,246.2
106,246.2
107,246.2
108,246.2
109,246.2
110,246.2
111,246.2
112,246.2
113,246.2
114,246.2
115,246.2
116,246.2
117,246.2
118,246.2
119,246.2
120,246.2
121,246.2
122,246.2
123,246.2
124,246.2
125,246.2
126,246.2
127,246.2
128,246.2
129,246.2
130,246.2
131,246.2
132,246.2
133,246.2
134,246.2
135,246.2
136,246.2
137,246.2
138,246.2
139,246.2
140,246.2
141,246.2
142,246.2
143,246.2
144,246.2
145,246.2
146,246.2
147,246.2
148,246.2
149,246.2
150,246.2
151,246.2
152,246.2
153,246.2
154,246.2
155,246.2
156,246.2
157,246.2
158,246.2
159,246.2
160,246.2
161,246.2
162,246.2
163,246.2
164,246.2
165,246.2
166,246.2
167,246.2
168,246.2
169,246.2
170,246.2
171,246.2
172,246.2
173,246.2
174,246.2
175,246.2
176,246.2
177,246.2
178,246.2
179,246.2
180,246.2
181,246.2
182,246.2
183,246.2
184,246.2
185,246.2
186,246.2
187,246.2
188,246.2
189,246.2
190,246.2
191,246.2
192,246.2
193,246.2
194,246.2
195,246.2
196,246.2
197,246.2
198,246.2
199,262.442041
200,319.2793884
201,376.1167542
202,394.63396
203,396.958374
204,398.2548645
205,392.130304
206,386.0057312
207,383.5362793
208,384.1568542
209,384.7774292
210,385.1739746
211,385.5620605
212,387.2121887
213,390.8623535
214,394.5125183
215,391.100293
216,386.0492249
217,384.0685608
218,391.9217468
219,399.7749267
220,402.8143494
221,403.4367554
222,404.0221924
223,404.2557312
224,404.48927
225,404.6409546
226,404.7188538
227,404.7967407
228,404.2772644
229,403.7316834
230,399.7315124
231,390.3735229
232,381.0155579
233,380.0455811
234,380.8258728
235,382.4726807
236,386.5325745
237,390.5924621
238,386.7505432
239,379.5634216
240,373.2441223
241,372.1497925
242,371.0554566
243,371.284906
244,372.4581055
245,373.5812134
246,372.8768799
247,372.1725586
248,369.5868652
249,364.8885681
250,360.1902832
251,362.5300171
252,365.5073486
253,366.0290771
254,362.2660156
255,358.5029602
256,358.6930481
257,359.7912537
258,359.1311767
259,353.5584229
260,347.985675
261,349.6589478
262,354.2139954
263,357.9601929
264,357.7244507
265,357.4887024
266,355.4383484
267,352.2932251
268,349.5638184
269,351.6093506
270,353.6548828
271,353.3718933
272,351.0890015
273,348.8061096
274,349.4284546
275,350.0585816
276,351.3749939
277,353.5029541
278,355.6309143
279,351.5895935
280,347.0157348
281,347.5363342
282,356.2159973
283,364.8956665
284,366.4683472
285,366.7841614
286,364.7493225
287,357.6394226
288,350.5295227
289,354.7077576
290,361.9799316
291,367.6820129
292,368.7893005
293,369.8965882
294,370.7170776
295,371.4293274
296,372.1888733
297,373.1390991
298,374.089325
299,373.2801331
300,371.616272
301,370.7662659
302,374.571637
303,378.377002
304,380.3959412
305,381.3478455
306,382.4328735
307,384.6552979
308,386.8776978
309,383.061084
310,374.960376
311,367.2674866
312,365.2808594
313,363.29422
314,359.3831543
315,353.8968262
316,348.6027527
317,348.6823059
318,348.7618591
319,350.6237976
320,354.1264648
321,357.5761597
322,354.708667
323,351.841156
324,349.2899658
325,347.058374
326,344.8267822
327,346.4545837
328,348.1292664
329,348.7318604
330,348.1733094
331,347.6147461
332,349.1546509
333,350.7514587
334,352.049231
335,353.0078857
336,353.9665405
337,350.7599365
338,347.4026733
339,346.2666504
340,347.7063171
341,349.14599
342,347.7364868
343,346.2159363
344,346.2163635
345,347.9780334
346,349.7397095
347,351.8892944
348,354.0526306
349,354.3716858
350,352.6079285
351,350.8441833
352,347.6716553
353,344.4629394
354,344.30802
355,347.4383667
356,350.5687073
357,347.4991272
358,344.3669373
359,341.3944641
360,338.5818665
361,335.7841797
362,334.336853
363,332.8895264
364,334.9381409
365,340.1676941
366,345.0633606
367,341.4407715
368,337.8181762
369,337.3587891
370,339.4530762
371,341.5247681
372,343.2979065
373,345.0710388
374,345.6575317
375,345.4155945
376,345.2087891
377,345.2894775
378,345.370166
379,344.4839539
380,343.0306396
381,340.9830444
382,335.6510742
383,330.3191101
384,327.668866
385,326.2946716
386,325.0519287
387,324.3239868
388,323.5960449
389,324.9375183
390,327.0416992
391,329.020166
392,330.6397339
393,332.2592896
394,332.1521423
395,331.5849609
396,332.5023804
397,336.556073
398,340.6097534
399,344.873407
400,349.1728516
401,350.6002869
402,347.5158508
403,344.4314148
404,345.5522217
405,347.0141419
406,348.9650024
407,351.4842163
408,354.0174438
409,366.7836121
410,379.5497803
411,388.5735168
412,394.4315186
413,399.5006775
414,395.9186707
415,392.3366699
416,388.9065185
417,385.5667663
418,380.9821899
419,370.386499
420,359.7908142
421,350.8881165
422,342.6512207
423,336.859845
424,337.8390564
425,338.8182739
426,340.4629272
427,342.2592224
428,342.475769
429,339.9431335
430,337.4105041
431,336.6003845
432,335.9464111
433,335.792334
434,336.2013062
435,336.6102844
436,337.0194946
437,337.4287048
438,335.4098206
439,331.6428345
440,328.6622314
441,330.5468323
442,332.4314392
443,328.1334839
444,321.1645386
445,318.6126465
446,328.7030823
447,338.7935303
448,336.2871033
449,331.0336853
450,327.0421509
451,325.0709595
452,323.0997681
453,318.7087952
454,314.1888062
455,315.3503906
456,321.8465576
457,327.119458
458,318.9738769
459,310.8282898
460,309.2360535
461,311.1295838
462,312.9313293
463,314.414093
464,315.8968506
465,313.5770691
466,310.2800842
467,308.6261658
468,309.7807861
469,310.9354126
470,309.8314148
471,308.5935913
472,306.8826538
473,304.7358215
474,303.1167175
475,306.3388733
476,309.5610352
477,308.639563
478,305.7461792
479,303.4931885
480,303.0796082
481,302.6660156
482,303.7128479
483,305.0371155
484,307.2393555
485,310.6347656
486,313.9587646
487,309.3183838
488,304.6780212
489,301.0725159
490,298.1705627
491,296.7418579
492,301.8854919
493,307.0291199
494,305.6354187
495,302.3149903
496,301.7378418
497,305.9738892
498,310.2099426
499,310.1618652
500,309.9125366
501,309.4349976
502,308.7697388
503,308.1163635
504,307.5339111
505,306.9514648
506,304.0893372
507,300.426062
508,299.1816711
509,302.6805115
510,306.1793457
511,309.289624
512,312.3737549
513,310.0787659
514,303.1562256
515,297.8290527
516,302.3355347
517,306.8420166
518,306.5109009
519,304.5068298
520,302.996521
521,302.4116577
522,301.8267944
523,304.9908814
524,308.3349426
525,308.671936
526,306.6643127
527,305.0858826
528,305.5880798
529,306.0902832
530,308.8181152
531,312.1681091
532,312.617334
533,308.5949707
534,304.5902893
535,303.1648621
536,301.7394287
537,301.4085937
538,301.7441895
539,302.2594543
540,303.3507752
541,304.4421021
542,305.3184448
543,306.158429
544,304.8858582
545,301.2718323
546,298.6689148
547,305.7330811
548,312.7972351
549,314.1970947
550,313.3556335
551,310.483313
552,303.6633728
553,296.8434387
554,296.6000061
555,296.6
556,296.4507202
557,296.1978211
558,296.0367309
559,296.205426
560,296.3741211
561,298.8291565
562,301.6986267
563,299.8582642
564,292.8492371
565,287.1587219
566,292.31297
567,297.4672363
568,303.1252197
569,308.9588928
570,309.4522705
571,301.0772766
572,292.7634521
573,289.6315491
574,286.4996521
575,287.4884216
576,290.7068726
577,291.9035645
578,288.0899902
579,284.2764099
580,284.6291992
581,285.3075745
582,284.3449402
583,282.1389221
584,281.2268677
585,285.1321228
586,289.0373718
587,291.7812683
588,294.3296692
589,293.0849365
590,288.070105
591,283.8505249
592,284.1907165
593,284.5309021
594,289.2791137
595,295.1508667
596,297.0688965
597,294.0887085
598,290.7666748
599,284.2915832
600,277.8164764
601,280.4218353
602,286.0482849
603,288.1240235
604,284.9679382
605,282.1017609
606,283.8087586
607,285.5157684
608,285.3882538
609,284.5342438
610,284.255957
611,284.9395691
612,285.6405884
613,286.8376099
614,288.0346314
615,287.0328858
616,285.0651855
617,286.5200683
618,294.138739
619,301.4212586
620,292.7702271
621,284.1191925
622,284.3382813
623,288.6235107
624,289.1355591
625,282.7039124
626,276.4749786
627,280.2504395
628,284.0259094
629,285.1408386
630,285.0549927
631,284.6911072
632,283.8320313
633,283.1975372
634,289.4725037
635,295.7474854
636,299.8428467
637,303.0251953
638,303.3998718
639,299.1829163
640,295.2238953
641,295.6544617
642,296.0850098
643,296.7683594
644,297.5438171
645,296.722113
646,293.6184387
647,290.2212585
648,283.923938
649,277.6266388
650,277.201413
651,278.4961517
652,280.5007141
653,283.3508118
654,285.6419647
655,284.5185455
656,283.395105
657,288.2016357
658,294.2544739
659,293.6466797
660,286.725061
661,281.5493469
662,283.280774
663,285.012207
664,282.8059387
665,280.1206299
666,280.6161041
667,283.3896759
668,284.4692322
669,281.0869354
670,277.7046387
671,278.2727325
672,278.9669464
673,278.6808838
674,277.8994202
675,277.5567688
676,277.9911774
677,278.2822876
678,276.2828674
679,274.2834503
680,274.3935608
681,275.1764038
682,276.7183197
683,279.1552795
684,281.606488
685,284.1319763
686,286.6574768
687,292.2723572
688,298.3719788
689,298.4195618
690,293.8857239
691,289.1109863
692,283.7020569
693,278.2931152
694,281.6315918
695,285.123291
696,282.2129028
697,276.4481689
698,271.9112763
699,269.202002
700,267.0281189
701,269.0394135
702,271.0507202
703,271.6169128
704,271.8794128
705,271.6213409
706,270.920932
707,271.5673187
708,276.122702
709,280.6780884
710,276.7051392
711,272.4976837
712,271.0180328
713,270.7549103
714,270.7082733
715,270.9715546
716,271.5950165
717,274.5806061
718,277.5661926
719,278.0751007
720,278.1629639
721,275.7081574
722,271.400293
723,267.5989685
724,264.9599365
725,262.5134399
726,266.298291
727,270.0831482
728,268.3305115
729,264.8076263
730,263.6865021
731,265.0964966
732,267.1775055
733,271.6745117
734,276.171518
735,272.4639374
736,268.3171844
737,268.8674225
738,271.6041412
739,272.9790558
740,272.449057
741,271.7165314
742,269.8604248
743,268.0043213
744,268.5870331
745,269.4714111
746,268.7433594
747,267.0620361
748,266.3913635
749,267.4538818
750,269.2347076
751,276.8539429
752,284.4731934
753,278.1217285
754,269.3455475
755,264.1611481
756,261.4114227
757,261.5685913
758,267.3375671
759,272.6467865
760,273.1796234
761,273.7124603
762,277.2902405
763,281.4666016
764,278.5712158
765,270.658078
766,265.2209015
767,264.6871155
768,264.347879
769,266.0392059
770,267.7305298
771,267.7753632
772,267.5081573
773,267.1878021
774,266.8313019
775,266.5060577
776,266.2385254
777,265.9322937
778,265.3076996
779,264.6830994
780,265.2192261
781,265.9334808
782,266.4239929
783,266.7813324
784,267.5203339
785,268.8611481
786,269.0569733
787,262.7961365
788,256.5353027
789,261.4015747
790,267.3081482
791,264.574237
792,257.7686828
793,257.3185486
794,264.7553375
795,269.2756378
796,263.0895782
797,256.9035156
798,257.5938446
799,258.4012024
800,262.1858643
801,266.9431122
802,271.2298065
803,275.0917481
804,275.3301575
805,267.0624786
806,259.525058
807,261.2335297
808,262.9419983
809,261.2903534
810,259.041037
811,257.072702
812,255.2721802
813,255.438916
814,258.5016235
815,260.9169617
816,260.4662964
817,260.0156311
818,260.6094177
819,261.2407166
820,258.4312317
821,254.4606659
822,254.4712402
823,257.9927002
824,258.5419739
825,252.6694031
826,248.2263702
827,256.2720581
828,264.317746
829,259.4819702
830,253.0596863
831,253.3362884
832,256.7756103
833,257.4093506
834,254.8736115
835,253.402237
836,254.9427093
837,256.4000031
838,256.4
839,256.399997
840,257.5542541
841,258.9151032
842,261.1529541
843,263.8762756
844,264.8398529
845,263.5682159
846,262.6433685
847,262.8251404
848,263
849,263
850,263
851,264.3737671
852,266.0116455
853,262.7494751
854,256.7403564
855,252.9144836
856,251.8212708
857,251.9070221
858,255.5532288
859,258.7355805
860,253.9014771
861,249.0673798
862,255.7157623
863,264.2032745
864,261.9181091
865,254.3387207
866,250.6633331
867,251.2115723
868,253.1190094
869,258.3303101
870,262.5246246
871,257.950592
872,253.3765595
873,252.8319977
874,252.6489349
875,252.2644501
876,251.8065033
877,250.8955566
878,249.6125458
879,248.4637543
880,247.5467743
881,246.4934387
882,244.8418915
883,243.253128
884,252.3420319
885,261.4309387
886,256.919754
887,249.5708221
888,248.912381
889,251.8536957
890,251.4370911
891,247.29841
892,245.3652344
893,248.5861267
894,250.9578339
895,247.4587921
896,243.9597473
897,249.5153503
898,255.5041138
899,251.16521
900,243.9744232
901,246.0722168
902,254.0052337
903,259.1821655
904,260.935852
905,260.2664795
906,253.3399353
907,246.8326965
908,243.5983887
909,240.3640747
910,242.6576416
911,245.2466278
912,240.5624634
913,233.9011169
914,234.9267273
915,240.5737183
916,247.8558075
917,257.0260437
918,260.6868408
919,251.7892059
920,243.6272217
921,239.7322022
922,235.8371704
923,241.3144928
924,246.8821228
925,248.8080414
926,250.0150818
927,246.286969
928,240.2481964
929,238.6769897
930,241.0939362
931,242.004071
932,240.4228211
933,241.7737335
934,253.1282593
935,262.3474426
936,246.236789
937,230.1261322
938,234.2866974
939,239.9707062
940,240.1039306
941,238.7053864
942,238.0212616
943,237.7413849
944,236.4914673
945,234.2511475
946,232.4709808
947,231.5369598
948,231.2535126
949,233.4030426
950,235.0216705
951,229.6914154
952,224.3611572
953,229.4954193
954,235.3902649
955,231.6144745
956,225.3416351
957,225.6678558
958,229.4150604
959,231.0036591
960,230.628714
961,230.692633
962,231.4429626
963,230.9604156
964,226.9249847
965,223.2218323
966,221.8132874
967,220.4047424
968,223.9584198
969,227.5288513
970,226.4494324
971,224.6631592
972,222.8760925
973,221.0887482
974,227.8632873
975,240.005603
976,243.8471008
977,239.0437988
978,235.2405457
979,233.1672973
980,231.6690369
981,231.9519196
982,232.0723206
983,231.0344696
984,230.0006165
985,230.1894287
986,230.378244
987,221.2064758
988,210.8155792
989,214.4213165
990,222.2663788
991,221.6725037
992,216.5654511
993,216.9432312
994,222.0533173
995,224.1581757
996,222.1697388
997,220.3578094
998,218.9366516
999,219.4890717
1000,227.9262878
1001,235.1364807
1002,230.0142273
1003,224.8919769
1004,223.5882873
1005,222.3544189
1006,228.0989502
1007,234.8417694
1008,230.9200622
1009,223.7931274
1010,222.2210144
1011,223.4570862
1012,223.8932983
1013,223.7030213
1014,221.0243713
1015,215.407843
1016,212.2428558
1017,213.4811279
1018,214.6950134
1019,215.8387176
1020,217.34758
1021,220.7807281
1022,223.9464966
1023,223.0876984
1024,222.2289001
1025,223.3994537
1026,224.6406738
1027,224.2170929
1028,223.5483429
1029,217.9697083
1030,210.9914703
1031,210.4402771
1032,212.8315094
1033,214.1416565
1034,214.7158996
1035,217.5643555
1036,222.6397919
1037,223.0043121
1038,216.7760223
1039,213.7689056
1040,217.3163482
1041,218.832016
1042,214.0353241
1043,210.1980743
1044,211.4459564
1045,212.7011139
1046,214.0457855
1047,215.3904571
1048,210.5334137
1049,205.6320557
1050,217.4759766
1051,230.9386933
1052,224.233548
1053,213.4569702
1054,207.1730164
1055,202.3591888
1056,205.3592133
1057,212.1025818
1058,214.8578339
1059,214.9542236
1060,214.8480621
1061,214.5587158
1062,214.3128631
1063,214.1198517
1064,212.3528748
1065,208.0075287
1066,205.3867126
1067,206.6427795
1068,209.4171539
1069,217.0547333
1070,222.5488617
1071,217.5186096
1072,213.0295349
1073,213.3199158
1074,213.4729584
1075,209.8894775
1076,206.3059997
1077,204.413205
1078,202.5719483
1079,207.410907
1080,212.9379669
1081,211.2613647
1082,208.2536407
1083,210.6393524
1084,214.5226074
1085,213.2136017
1086,209.9108704
1087,207.7679291
1088,206.2127777
1089,204.3034637
1090,202.163858
1091,202.4299164
1092,204.668103
1093,204.30802
1094,201.2895416
1095,200.5436798
1096,202.6871033
1097,203.0178833
1098,200.4832398
1099,200.241684
1100,204.5336334
1101,205.8441498
1102,199.6952057
1103,196.3622467
1104,202.1242035
1105,206.173706
1106,202.8512787
1107,199.7088226
1108,197.6555176
1109,196.3277496
1110,201.8064911
1111,207
1112,206.9999969
1113,206.9911774
1114,206.0116638
1115,205.0321503
1116,211.9198395
1117,219.0745178
1118,209.9683045
1119,199.5731384
1120,201.7079742
1121,205.4367645
1122,205.4165253
1123,204.7292359
1124,214.8902832
1125,227.5635956
1126,218.8786285
1127,204.0351501
1128,196.9903687
1129,192.6625488
1130,195.3035858
1131,200.8149994
1132,200.4693512
1133,197.3180969
1134,197.8529236
1135,200.4148438
1136,200.1863922
1137,198.2145111
1138,197.5158081
1139,197.7131134
1140,198.7943298
1141,200.5711334
1142,199.8718628
1143,197.0075348
1144,198.8169006
1145,205.1419373
1146,205.5230041
1147,199.5897583
1148,197.6810547
1149,200.4515533
1150,198.8120483
1151,191.584671
1152,188.6928742
1153,191.763858
1154,193.8790009
1155,194.5728607
1156,195.2668823
1157,195.9611542
1158,196.0348877
1159,195.0424744
1160,195.5904754
1161,198.9666748
1162,198.9128937
1163,192.1564758
1164,188.6682495
1165,191.9490509
1166,194.5434875
1167,195.637735
1168,196.3395996
1169,196.1405334
1170,195.4142242
1171,193.4223175
1172,193.1398773
1173,197.1260712
1174,199.9721741
1175,199.8724609
1176,198.736557
1177,194.8453979
1178,191.5707123
1179,189.9733856
1180,188.9855804
1181,189.6848297
1182,190.9630432
1183,193.8616394
1184,194.1900726
1185,187.2893127
1186,182.4889557
1187,183.5897308
1188,184.7435333
1189,186.0452209
1190,186.4926727
1191,184.5890717
1192,182.7122589
1193,180.9077728
1194,182.1126678
1195,191.2407806
1196,195.6815277
1197,188.1538849
1198,182.7419983
1199,182.5411438
1200,183.0871216
1201,185.398349
1202,185.7034943
1203,181.4804871
1204,178.0882599
1205,176.47854
1206,176.4297791
1207,179.5504638
1208,181.6345734
1209,181.7353058
1210,184.6479523
1211,192.610141
1212,195.9811859
1213,191.644754
1214,187.5435089
1215,183.8099488
1216,182.01203
1217,183.0217072
1218,183.4273498
1219,183.0232361
1220,182.8
1221,182.8
1222,180.6648651
1223,176.1132294
1224,175.3429291
1225,178.480368
1226,180.835495
1227,182.455777
1228,186.6515442
1229,193.0352081
1230,190.8570068
1231,182.137616
1232,180.1675171
1233,182.8051788
1234,182.0929596
1235,179.3522095
1236,175.8813141
1237,172.0216797
1238,177.5377319
1239,187.3958222
1240,187.9443176
1241,184.7919189
1242,191.0094452
1243,200.3705109
1244,192.2732239
1245,179.3431946
1246,177.7506928
1247,178.6675354
1248,180.7185303
1249,182.9610382
1250,180.2840119
1251,177.0202362
1252,178.0371765
1253,179.3638733
1254,179.5986664
1255,179.8217285
1256,181.3543579
1257,182.5272919
1258,177.7222076
1259,173.8214844
1260,178.0156463
1261,181.2577087
1262,178.9034881
1263,177.588266
1264,180.6608154
1265,182.0949738
1266,178.303241
1267,175.8354889
1268,176.6558106
1269,176.9927795
1270,176.3771698
1271,176.3578705
1272,177.2818298
1273,178.6120666
1274,180.4610779
1275,179.9834411
1276,177.1054779
1277,177.7105774
1278,181.2073242
1279,180.7423615
1280,177.6551605
1281,174.2278748
1282,170.6240021
1283,171.5913727
1284,174.3731567
1285,174.2013977
1286,173.1704956
1287,174.7218414
1288,176.7848785
1289,181.807428
1290,187.1745056
1291,184.6298096
1292,181.5987854
1293,172.1952209
1294,164.7821198
1295,178.5339569
1296,189.1172485
1297,181.978595
1298,176.1285248
1299,174.8862793
1300,173.5547791
1301,172.0010498
1302,171.000003
1303,170.999997
1304,171.1325378
1305,171.4436554
1306,169.8965058
1307,166.4722077
1308,168.2554291
1309,173.9659973
1310,174.7291626
1311,172.755246
1312,173.0965332
1313,174.3439575
1314,168.4001831
1315,160.5991516
1316,160.5982025
1317,161.7430359
1318,161.9979126
1319,162.1752411
1320,161.3416412
1321,161.6465759
1322,171.1343628
1323,177.3574432
1324,169.8461578
1325,163.739917
1326,161.3390533
1327,161.9370727
1328,167.8905792
1329,168.6471741
1330,162.8991425
1331,158.7023865
1332,155.878952
1333,156.4162262
1334,159.032074
1335,160.4656463
1336,161.4079132
1337,162.1838226
1338,162.9171265
1339,160.582666
1340,157.8573242
1341,160.3669159
1342,164.6834839
1343,190.8148682
1344,209.3340057
1345,189.6975708
1346,176.8223145
1347,183.0214508
1348,182.8951141
1349,171.4356598
1350,165.9672516
1351,167.6503754
1352,165.3059632
1353,159.7273071
1354,158.4204071
1355,159.3682892
1356,158.8833984
1357,157.9349579
1358,158.7948547
1359,159.9547516
1360,157.6679718
1361,155.3792847
1362,155.0625733
1363,154.727771
1364,154.3052368
1365,153.6185577
1366,152.2445038
1367,153.3971771
1368,158.5793793
1369,157.8522797
1370,151.0796661
1371,150.255722
1372,153.3263794
1373,157.30802
1374,161.651886
1375,156.7837891
1376,149.9990936
1377,152.2955292
1378,154.9054077
1379,153.2072235
1380,151.4360748
1381,149.3120727
1382,150.2185608
1383,158.6133484
1384,161.6143372
1385,156.7233276
1386,155.1819336
1387,156.6713867
1388,156.7192963
1389,155.9741241
1390,150.0045502
1391,142.4419189
1392,144.4414276
1393,147.6297699
1394,150.0825501
1395,152.5355255
1396,154.9897675
1397,155.8194153
1398,152.082486
1399,150.8810852
1400,153.6587402
1401,152.9546875
1402,148.9995209
1403,149.4660339
1404,152.353952
1405,154.4123871
1406,156.2317871
1407,153.4844238
1408,150.3957245
1409,150.2885773
1410,150.3858734
1411,151.458017
1412,151.9026764
1413,150.9371735
1414,148.542807
1415,144.356485
1416,146.2157562
1417,152.4452789
1418,150.7261109
1419,145.8899933
1420,143.4483734
1421,141.4052429
1422,144.5123077
1423,147.3641968
1424,148.548468
1425,148.7341339
1426,146.3641815
1427,145.9148758
1428,148.0706543
1429,148.8772827
1430,148.6615753
1431,151.9157227
1432,156.5561554
1433,151.4340546
1434,144.84021
1435,149.2700653
1436,152.0776001
1437,146.2396942
1438,143.2662415
1439,146.7278015
1440,149.2460632
1441,150.6531555
1442,150.6040924
1443,149.6293701
1444,145.0081177
1445,139.2646881
1446,144.6798187
1447,150.3167206
1448,146.5193878
1449,144.6290711
1450,149.0800171
1451,151.5465362
1452,150.8947906
1453,147.8022064
1454,142.6938355
1455,145.6631348
1456,151.9708222
1457,145.8060211
1458,138.0333297
1459,139.1221588
1460,140.3799896
1461,142.34104
1462,144.068338
1463,145.3764801
1464,144.8012024
1465,142.5105957
1466,140.6707489
1467,139.0336319
1468,139.3617294
1469,140.0735611
1470,142.9146057
1471,144.2804901
1472,139.5790497
1473,136.6400772
1474,136.7494797
1475,137.7426544
1476,139.494104
1477,138.1305557
1478,135.5018173
1479,134.7149383
1480,134.2462845
1481,135.0139114
1482,135.7816437
1483,136.5497254
1484,137.1817123
1485,137.6208756
1486,138.2553375
1487,139.0243347
1488,138.5215072
1489,137.6421387
1490,136.5528381
1491,135.9677887
1492,138.7190872
1493,139.0672119
1494,134.222049
1495,132.4061386
1496,133.6181488
1497,134.7551376
1498,135.8576157
1499,137.9213303
1500,138.5891937
1501,114.1954483
1502,101.5031219
1503,124.6964554
1504,134.6270401
1505,127.3333847
1506,128.6790298
1507,135.2029846
1508,134.4125061
1509,132.0363556
1510,136.1325089
1511,139.3775909
1512,139.2668182
1513,138.1004822
1514,135.3295273
1515,138.9301239
1516,146.91521
1517,140.0195023
1518,129.1444534
1519,129.8764847
1520,130.7236526
1521,131.3902634
1522,131.7999985
1523,131.8
1524,132.8433716
1525,134.6231049
1526,134.6490814
1527,134.2038864
1528,132.5440903
1529,131.8967102
1530,135.4625214
1531,137.1087204
1532,135.8822495
1533,134.5199356
1534,133.0696091
1535,131.1641891
1536,129.2803131
1537,132.8545898
1538,135.8850922
1539,137.1144776
1540,137.8494705
1541,137.9612991
1542,138.658548
1543,139.6656037
1544,136.2102722
1545,132.4359451
1546,132.8840546
1547,132.0759109
1548,128.264708
1549,128.4622147
1550,132.4999985
1551,135.5596832
1552,138.2531372
1553,131.923584
1554,126.9390167
1555,131.4334259
1556,132.2118073
1557,127.0401672
1558,124.3188431
1559,123.1939041
1560,128.9621246
1561,135.5539597
1562,130.7109955
1563,127.0760223
1564,126.6252472
1565,126.9077377
1566,127.9225815
1567,125.0025848
1568,120.6023132
1569,122.6617798
1570,124.2290161
1571,122.1957123
1572,121.7915237
1573,123.7130051
1574,124.1093628
1575,123.6569824
1576,122.3141876
1577,121.1932495
1578,123.0049194
1579,124.4313584
1580,125.1111359
1581,124.2917526
1582,122.3645706
1583,122.8277527
1584,123.8919113
1585,125.8213776
1586,127.0378922
1587,126.4700653
1588,125.9616501
1589,125.5071197
1590,122.8797882
1591,119.6012085
1592,119.828743
1593,119.0990326
1594,115.4563248
1595,115.3315857
1596,118.8625458
1597,121.4742249
1598,123.7536133
1599,124.3585831
1600,124.8
1601,124.8
1602,122.5315796
1603,117.7363464
1604,119.3665146
1605,123.4791504
1606,122.1576675
1607,120.5703903
1608,118.6260117
1609,118.140538
1610,119.284964
1611,117.2763183
1612,114.070018
1613,115.0086868
1614,115.4532776
1615,113.9628753
1616,114.2079422
1617,116.2727982
1618,115.8597641
1619,114.5932785
1620,111.6071762
1621,110.3892273
1622,114.1815292
1623,115.4613648
1624,114.4264862
1625,114.5594971
1626,115.2120529
1627,120.1623199
1628,121.4881622
1629,114.5767273
1630,113.4372864
1631,116.6645325
1632,116.5266556
1633,116.6298569
1634,124.9383194
1635,127.6171692
1636,120.5738876
1637,115.8006363
1638,112.3346771
1639,112.1044388
1640,112.4205505
1641,113.6929077
1642,114.4514176
1643,114.5671554
1644,114.2682343
1645,113.8050094
1646,114.1438629
1647,115.1628296
1648,118.0614014
1649,117.5269256
1650,114.0465805
1651,114.1561157
1652,114.7455765
1653,111.9580063
1654,110.1999985
1655,110.2
1656,110.7278244
1657,111.5418289
1658,112.8964783
1659,113.3897644
1660,110.4791687
1661,109.5156189
1662,110.5640534
1663,115.8584793
1664,121.6345276
1665,115.4531036
1666,114.0519272
1667,121.7541016
1668,119.8144775
1669,112.2245163
1670,112.4577927
1671,112.2610382
1672,107.7016724
1673,108.2961883
1674,114.1449844
1675,109.6084121
1676,102.871843
1677,103.808757
1678,105.6538025
1679,109.052124
1680,106.7835083
1681,101.6243851
1682,106.7865356
1683,110.7635269
1684,109.8243942
1685,109.8506622
1686,110.6728897
1687,109.0115051
1688,106.5577561
1689,102.0889603
1690,98.76589355
1691,96.88318633
1692,100.5135346
1693,105.6999848
1694,103.4616226
1695,103.3089676
1696,107.0810669
1697,107.632933
1698,106.4534546
1699,102.6819275
1700,99.95352327
1701,100.5439591
1702,104.7481903
1703,111.7194549
1704,108.4682602
1705,104.3846695
1706,103.2017029
1707,103.2979279
1708,104.7183273
1709,103.4808014
1710,101.719635
1711,101.0085968
1712,101.3061188
1713,102.9661896
1714,104.4516998
1715,105.5734894
1716,101.2996948
1717,98.77500306
1718,99.25015107
1719,98.91176607
1720,98.20046082
1721,98.43831481
1722,99.28590697
1723,101.427858
1724,101.9715637
1725,101.6143616
1726,98.28390503
1727,96.30258788
1728,98.09070893
1729,99.59161224
1730,100.9036759
1731,101.3317596
1732,101.2106003
1733,99.65814667
1734,99.4130005
1735,100.1299377
1736,100.9551392
1737,101.7921753
1738,102.6295944
1739,100.7303253
1740,96.66046601
1741,95.56267395
1742,94.97399139
1743,94.85414886
1744,93.41959075
1745,90.90140228
1746,95.35305787
1747,98.83130494
1748,95.2296463
1749,96.7570816
1750,102.5231384
1751,101.0782516
1752,99.17369995
1753,99.0534317
1754,96.45874022
1755,91.8858612
1756,94.52088013
1757,96.1904541
1758,91.85314178
1759,91.79518128
1760,94.92953186
1761,93.98764343
1762,94.01823577
1763,98.00114595
1764,98.15426788
1765,95.73895873
1766,93.55007935
1767,94.3276947
1768,102.4285248
1769,101.8762817
1770,96.3112381
1771,98.45398713
1772,99.28531647
1773,97.10512084
1774,95.7440262
1775,94.77446442
1776,93.8043457
1777,94.20646363
1778,96.8758606
1779,95.38817749
1780,92.94602661
1781,97.19779969
1782,98.01371461
1783,94.3671875
1784,90.04672241
1785,86.67702179
1786,89.96276398
1787,91.72218323
1788,91.96571503
1789,94.9311859
1790,96.64461364
1791,92.25587311
1792,89.27361756
1793,87.32191772
1794,89.94629058
1795,92.1095108
1796,92.47588654
1797,91.87278899
1798,90.74000244
1799,88.29462433
1800,87.41835328
1801,89.00878602
1802,87.18475342
1803,84.85030212
1804,86.93254852
1805,89.67241211
1806,93.10401306
1807,94.12452546
1808,93.8561264
1809,90.54318543
1810,89.272995
1811,89.39576873
1812,88.09524078
1813,87.78079071
1814,89.50164948
1815,91.22322693
1816,92.64444732
1817,90.79849701
1818,93.64403686
1819,102.0172607
1820,96.61112365
1821,90.51302185
1822,91.99238892
1823,89.47436372
1824,84.17017823
1825,85.55305633
1826,86.6
1827,86.6
1828,85.97023468
1829,85.05099945
1830,83.69091644
1831,83.06086884
1832,83.18458557
1833,85.58404236
1834,86.8278305
1835,83.85514221
1836,88.63597107
1837,97.13990325
1838,88.8313797
1839,84.67506714
1840,86.28811798
1841,83.59554291
1842,80.91611328
1843,82.53106232
1844,81.08842773
1845,77.48373718
1846,83.96012115
1847,85.95170746
1848,79.8538559
1849,82.00358429
1850,85.78702087
1851,84.41650696
1852,83.25130615
1853,82.25398102
1854,83.49785767
1855,83.97249298
1856,82.72436829
1857,82.67728882
1858,84.00485687
1859,91.25247193
1860,91.23588103
1861,84.98426819
1862,80.37302856
1863,92.37641601
1864,136.4395172
1865,160.6284409
1866,168.4934036
1867,120.9947082
1868,90.9165329
1869,75.11613312
1870,73.92085419
1871,76.09077911
1872,82.99588318
1873,87.87889709
1874,90.60540161
1875,86.08038941
1876,82.80340729
1877,80.4138031
1878,82.6520813
1879,82.67431336
1880,79.40048828
1881,79.1086441
1882,80.12220764
1883,83.27381134
1884,81.64381256
1885,77.65765381
1886,78.66735229
1887,79.02099915
1888,78.6421402
1889,80.28457184
1890,80.51673737
1891,76.97657166
1892,77.09933014
1893,79.1614685
1894,84.47795258
1895,82.94774628
1896,76.10825501
1897,79.74176941
1898,80.76430054
1899,77.72095947
1900,77.93612671
1901,78.69618072
1902,79.07704468
1903,80.66233521
1904,82.06468353
1905,76.85343323
1906,74.06348267
1907,73.42759247
1908,83.6253952
1909,87.9944458
1910,82.26471405
1911,74.45769501
1912,70.28691635
1913,78.82785034
1914,76.60319367
1915,69.99999924
1916,70.00000076
1917,73.3121872
1918,79.44183197
1919,75.99011688
1920,73.3294342
1921,72.17877808
1922,80.31981964
1923,85.31221619
1924,77.88818664
1925,74.6033371
1926,73.44165954
1927,74.97946625
1928,77.66507263
1929,80.90574799
1930,78.33973541
1931,76.57055054
1932,75.67192078
1933,72.64573441
1934,70.78659515
1935,71.30070038
1936,75.96552887
1937,81.59244385
1938,87.12554474
1939,80.09052124
1940,69.5298584
1941,70.43165131
1942,71.10500336
1943,71.50202027
1944,69.0514328
1945,68.43150177
1946,69.72204132
1947,74.04651031
1948,75.33585815
1949,71.58891907
1950,69.47454529
1951,69.84534683
1952,75.40765839
1953,71.46319733
1954,66.70032272
1955,71.10357666
1956,72.34336395
1957,72.30274048
1958,74.8959198
1959,72.94555511
1960,67.78729324
1961,67.39786072
1962,68.92515564
1963,72.43209381
1964,66.4129921
1965,64.26575851
1966,68.29695206
1967,65.2697937
1968,84.91707306
1969,150.9236939
1970,111.4565842
1971,63.0872757
1972,61.91419144
1973,65.22855835
1974,68.99262009
1975,67.94865875
1976,66.7303627
1977,66.31935654
1978,71.675914
1979,72.61669769
1980,70.60767212
1981,67.99166565
1982,66.72874069
1983,66.54444123
1984,63.13965988
1985,65.88564301
1986,75.05771942
1987,64.79805603
1988,59.5750061
1989,61.80511322
1990,63.79682999
1991,67.09419022
1992,72.47896271
1993,68.19209061
1994,63.35913315
1995,60.3348793
1996,60.12488937
1997,62.27465134
1998,68.46186447
1999,66.18687897
2000,63.25463638
2001,64.96799011
2002,66.18898087
2003,65.90150604
2004,61.15129395
2005,61.87832794
2006,64.75675583
2007,67.53094559
2008,67.9461319
2009,66.06783447
2010,58.39684754
2011,58.42608719
2012,61.93918381
2013,62.86607285
2014,65.06467819
2015,67.15129013
2016,63.70454559
2017,62.31755982
2018,62.5471489
2019,65.59974976
2020,66.96116791
2021,66.74471893
2022,62.22692185
2023,61.5878418
2024,63.4486023
2025,63.98072739
2026,59.34796371
2027,52.32320862
2028,58.44978028
2029,61.77792129
2030,62.72343903
2031,59.3899025
2032,58.38895416
2033,59.02243194
2034,59.28942566
2035,57.52186356
2036,54.48162766
2037,53.14510422
2038,53.31269226
2039,54.28366852
2040,53.07939758
2041,57.35472641
2042,63.40068131
2043,54.15718079
2044,56.1247139
2045,63.50470657
2046,59.48111419
2047,56.64322281
2048,55.02808838
2049,56.63939819
2050,56.58672943
2051,55.5362793
2052,53.92309494
2053,53.94536285
2054,54.72709427
2055,55.40003662
2056,54.65349121
2057,53.62933502
2058,53.76408005
2059,53.50335312
2060,54.48155441
2061,59.60782013
2062,57.4851593
2063,54.51577377
2064,54.92094956
2065,57.82806549
2066,57.16853027
2067,47.8386528
2068,47.31545639
2069,47.55220413
2070,46.33384934
2071,52.95195465
2072,55.26992569
2073,50.11978302
2074,50.56313095
2075,54.89569779
2076,63.30832672
2077,54.93992767
2078,49.81868668
2079,48.02971268
2080,48.70933228
2081,45.03038178
2082,39.18770447
2083,42.99799805
2084,48.44483261
2085,52.39925842
2086,43.81614761
2087,45.27505341
2088,50.79537888
2089,55.16011581
2090,52.45737305
2091,47.09826355
2092,40.68011932
2093,41.98645859
2094,44.50427933
2095,46.41828384
2096,44.74289856
2097,43.66063537
2098,43.797509
2099,44.3378418
2100,45.95763779
2101,48.28960876
2102,46.50716019
2103,44.2275116
2104,41.64062805
2105,39.1697586
2106,40.38577728
2107,42.50421219
2108,42.09192352
2109,42.74795303
2110,44.73155975
2111,48.85922699
2112,44.9736023
2113,40.33731003
2114,36.34260978
2115,46.96551971
2116,49.00271912
2117,43.13889389
2118,48.52041473
2119,45.17829971
2120,37.91397362
2121,38.60471115
2122,42.27015533
2123,45.27645111
2124,43.34014587
2125,39.1213707
2126,37.98483734
2127,42.69273529
2128,44.29505234
2129,42.68486023
2130,38.07896805
2131,35.58222237
2132,36.28377495
2133,38.80691223
2134,40.05672913
2135,41.81099777
2136,43.00121384
2137,42.30606766
2138,42.67153549
2139,35.87173309
2140,18.47299366
2141,30.73551712
2142,37.84716949
2143,39.57168655
2144,39.29282379
2145,39.38614655
2146,39.95864487
2147,41.49416199
2148,40.01034164
2149,37.36264191
2150,34.00855026
2151,38.78331604
2152,41.04492188
2153,40.53124466
2154,42.21119766
2155,45.16552353
2156,47.59600601
2157,45.77395477
2158,41.16466065
2159,37.95517502
2160,38.3761322
2161,43.16785126
2162,43.92369461
2163,40.86627884
2164,39.46065216
2165,38.6217926
2166,38.48172684
2167,39.60752564
2168,35.01395569
2169,33.96044845
2170,39.73682404
2171,48.30502395
2172,49.42587586
2173,44.22378006
2174,35.19139786
2175,34.565028
2176,36.24506302
2177,36.38635712
2178,36.14455108
2179,36.96795197
2180,38.54554977
2181,35.14863625
2182,36.4370369
2183,37.78511352
2184,32.11706505
2185,35.0029747
2186,40.08708648
2187,45.70651703
2188,40.45451202
2189,40.12937012
2190,41.25948944
2191,35.57510567
2192,36.09195175
2193,36.40964203
2194,33.84872437
2195,35.47575913
2196,36.93843994
2197,37.46100159
2198,34.32558479
2199,35.79201546
2200,36.8687561
2201,34.8711956
2202,36.17676697
2203,35.19024277
2204,32.37972908
2205,29.80700302
2206,31.93173981
2207,34.98466415
2208,37.13106918
2209,40.1101326
2210,39.35498734
2211,36.8011673
2212,39.09461517
2213,35.35091629
2214,33.65817337
2215,37.96332779
2216,41.13201828
2217,39.64795685
2218,35.79218063
2219,34.78591309
2220,36.8279541
2221,38.52226181
2222,38.8909256
2223,41.48292999
2224,43.88968506
2225,43.92557144
2226,37.43811951
2227,39.48909302
2228,44.76495438
2229,50.41741867
2230,40.45286408
2231,39.86879578
2232,41.95234909
2233,41.80776978
2234,35.91378784
2235,35.56633873
2236,38.97364197
2237,38.82881393
2238,41.23771362
2239,42.45074844
2240,41.33859406
2241,44.67537842
2242,43.49033508
2243,39.26034164
2244,33.16010132
2245,33.78785362
2246,34.63206444
2247,35.13666992
2248,36.00963135
2249,35.63084717
2250,36.03217926
2251,37.92853622
2252,35.88812637
2253,34.0402359
2254,33.30997963
2255,35.06090584
2256,42.9949768
2257,41.33034286
2258,33.59793167
2259,35.79034805
2260,38.10270233
2261,39.07399521
2262,38.81528778
2263,44.08612137
2264,24.50726967
2265,12.07747862
2266,31.86570663
2267,36.66975327
2268,34.76396866
2269,32.92384834
2270,42.76152267
2271,41.56609268
2272,37.18699722
2273,33.11365089
2274,38.40863113
2275,41.6726471
2276,42.13091354
2277,39.70438843
2278,36.61035538
2279,37.5409378
2280,39.78763657
2281,41.76234894
2282,40.28647537
2283,37.1271019
2284,35.28719406
2285,38.09455528
2286,30.23190956
2287,30.9678711
2288,32.59749031
2289,20.16474495
2290,26.38206482
2291,27.44685287
2292,23.89166412
2293,24.33645058
2294,28.21454811
2295,34.55477448
2296,39.744944
2297,29.49734841
2298,30.74826317
2299,32.45136337
2300,32.20530434
2301,35.47824249
2302,38.52057495
2303,35.7854187
2304,27.05763092
2305,31.97542953
2306,33.53593903
2307,26.22067909
2308,10.79626522
2309,36.77078552
2310,40.85853729
2311,39.21676102
2312,40.86488953
2313,34.43493576
2314,36.1284172
2315,38.69084473
2316,37.17390747
2317,31.78149795
2318,29.77632484
2319,30.40484734
2320,33.10417786
2321,35.80498314
2322,37.23562317
2323,36.28531952
2324,32.70959244
2325,40.07432709
2326,37.70682373
2327,33.91479683
2328,34.28662567
2329,35.94275322
2330,34.87328644
2331,32.64436302
2332,30.50461273
2333,32.01274986
2334,35.54025955
2335,35.22416687
2336,29.79135819
2337,36.13631897
2338,38.41400833
2339,36.57066803
2340,31.53772354
2341,29.41913452
2342,32.64375305
2343,30.77102661
2344,24.8900238
2345,34.13673019
2346,32.28058891
2347,31.35263062
2348,34.04643059
2349,40.12015991
2350,44.7127861
2351,40.42994843
2352,32.71151657
2353,33.92832756
2354,26.98204765
2355,29.16418724
2356,33.54914894
2357,30.19823646
2358,28.0639885
2359,25.40351868
2360,25.2140068
2361,29.54910317
2362,34.74108009
2363,33.33789711
2364,30.09709435
2365,29.33859558
2366,41.72872009
2367,35.00490341
2368,31.61123467
2369,33.08960647
2370,28.95255547
2371,32.80737152
2372,37.40828018
2373,37.35470734
2374,26.81811485
2375,32.19309044
2376,33.69227982
2377,32.55599518
2378,30.2
2379,30.19999962
2380,29.70841408
2381,30.78343925
2382,31.70304107
2383,25.2311863
2384,20.98230782
2385,24.81565666
2386,30.90466843
2387,30.60403976
2388,30.91291962
2389,30.33422737
2390,29.53789673
2391,29.16121101
2392,30.39882087
2393,43.43306198
2394,39.92659836
2395,26.93826675
2396,32.20700684
2397,25.67831268
2398,30.92255516
2399,34.22093163
2400,26.5144577
2401,33.96945534
2402,36.02790031
2403,35.18461609
2404,32.52319565
2405,28.78939896
2406,29.63436508
2407,36.72665901
2408,42.58510666
2409,40.64765091
2410,30.82435341
2411,27.85665092
2412,28.69577332
2413,32.0550827
2414,37.05311661
2415,40.08199005
2416,39.70375214
2417,34.67031403
2418,26.52530937
2419,27.46454887
2420,26.52767944
2421,26.54431343
2422,26.58300018
2423,24.64694557
2424,26.37275734
2425,31.28848381
2426,32.97233581
2427,31.18007545
2428,34.00888862
2429,29.80136108
2430,29.44708862
2431,30.29354363
2432,29.54383202
2433,29.07130432
2434,23.51353798
2435,22.90369492
2436,25.3508213
2437,25.34609184
2438,28.66121025
2439,28.90899544
2440,28.19626236
2441,28.02689858
2442,29.76630974
2443,27.93817139
2444,28.42089424
2445,25.68286285
2446,20.63776054
2447,27.13555298
2448,24.36078263
2449,25.31735573
2450,28.62041054
2451,31.18013
2452,28.32105103
2453,25.3194706
2454,27.00176544
2455,30.74578514
2456,32.76306
2457,30.69354553
2458,26.9827694
2459,26.360252
2460,25.34918365
2461,20.58095093
2462,26.8033802
2463,29.14069977
2464,27.26845589
2465,23.97185249
2466,23.36039963
2467,30.07645683
2468,30.13416481
2469,27.92101669
2470,25.62626076
2471,24.30139694
2472,20.77560329
2473,23.42018471
2474,28.97235222
2475,34.99652748
2476,38.09290009
2477,26.68880119
2478,27.73822861
2479,25.58132362
2480,23.40422173
2481,26.70295105
2482,25.89805374
2483,34.28684273
2484,32.67132301
2485,25.31305619
2486,20.60072441
2487,24.47284241
2488,29.08587723
2489,25.90105934
2490,24.33755341
2491,30.28795776
2492,38.69623375
2493,28.86372757
2494,30.82962265
2495,48.94773331
2496,61.89907989
2497,26.52841225
2498,23.4476078
2499,21.13425598
2500,23.45519409
2501,26.08052063
2502,22.39999962
2503,22.4
2504,23.94329834
2505,25.73250961
2506,27.58816605
2507,28.82982139
2508,26.7125206
2509,19.50222549
2510,18.69056587
2511,21.28879509
2512,23.45133247
2513,22.40454636
2514,27.30418968
2515,23.52627144
2516,21.97600632
2517,24.43449554
2518,27.62055855
2519,23.69214783
2520,25.67392311
2521,23.86046982
2522,21.60328865
2523,20.74006844
2524,20.22024689
2525,29.57607994
2526,25.3639267
2527,26.00021019
2528,25.53834763
2529,18.40753708
2530,24.16506882
2531,22.82124138
2532,20.80703888
2533,21.71986389
2534,22.8982708
2535,19.43720894
2536,21.74659309
2537,24.35098686
2538,22.06272011
2539,21.06730614
2540,25.56645889
2541,33.64682732
2542,34.63929977
2543,25.22934876
2544,22.56398735
2545,27.42505035
2546,31.770541
2547,22.3958519
2548,21.898246
2549,19.00293655
2550,22.75883293
2551,24.99638595
2552,19.1460207
2553,20.97460251
2554,21.32803269
2555,21.1391716
2556,23.51902466
2557,23.34564934
2558,18.40191059
2559,25.06962891
2560,22.25657501
2561,21.33924026
2562,17.21029282
2563,18.20939598
2564,28.79191856
2565,26.61894302
2566,25.77107048
2567,22.27242775
2568,18.99209786
2569,18.9630558
2570,21.21903992
2571,17.77736587
2572,27.33648491
2573,20.54567871
2574,24.57083397
2575,27.23479614
2576,20.36952858
2577,21.20920448
2578,24.57249794
2579,21.76885948
2580,18.87214909
2581,24.28680039
2582,31.04930458
2583,23.32619743
2584,19.44779434
2585,34.362146
2586,25.6005703
2587,19.6338562
2588,18.81241722
2589,16.24868698
2590,28.45267334
2591,31.83629684
2592,20.97307777
2593,17.7457016
2594,18.36146221
2595,16.26602574
2596,13.53574572
2597,20.15187931
2598,18.70111236
2599,20.37681312
2600,19.151717
2601,16.73578205
2602,16.6207241
2603,15.1045269
2604,17.31714592
2605,20.12491684
2606,20.88111649
2607,23.03299751
2608,22.98785172
2609,17.40395813
2610,22.83322029
2611,-3.292998124
2612,9.950505639
2613,18.02241516
2614,19.89971771
2615,20.5093914
2616,18.2
2617,18.20000019
2618,23.28059998
2619,20.96277771
2620,17.01889286
2621,18.09960632
2622,16.6381731
2623,5.097090651
2624,27.25745125
2625,19.03209477
2626,18.17092113
2627,19.5476553
2628,19.35745239
2629,22.60752602
2630,30.37184868
2631,13.19558601
2632,22.33494225
2633,20.62695236
2634,18.87248497
2635,16.52136765
2636,16.93420544
2637,21.88142014
2638,21.35022831
2639,20.65821571
2640,21.86828194
2641,18.24888668
2642,15.15048332
2643,16.86148663
2644,22.03371849
2645,23.74137879
2646,15.06303425
2647,15.17239952
2648,13.00790558
2649,15.07902966
2650,16.53070259
2651,20.34172669
2652,27.50111351
2653,22.27920265
2654,18.79468575
2655,22.87909527
2656,18.37994347
2657,14.41167851
2658,14.78414059
2659,15.86032963
2660,14.62197151
2661,18.32160759
2662,20.07047005
2663,15.50139694
2664,12.2067915
2665,14.45412846
2666,17.17485657
2667,19.97178345
2668,23.23743553
2669,14.28533764
2670,28.32919159
2671,23.59843674
2672,14.1122469
2673,14.55319958
2674,15.83340759
2675,14.88551045
2676,15.09849872
2677,10.1449192
2678,13.14051456
2679,9.743893051
2680,16.06283111
2681,16.51508732
2682,14.37787971
2683,13.4788456
2684,13.09994526
2685,13.3209301
2686,20.95048142
2687,16.17225532
2688,18.08580513
2689,18.59999981
2690,13.65918827
2691,13.33322029
2692,13.83418961
2693,11.88750839
2694,21.49895401
2695,19.46978588
2696,14.84872742
2697,20.66185341
2698,19.9845932
2699,15.62297726
2700,12.06577416
2701,15.9597332
2702,23.62544174
2703,18.4892334
2704,12.12980842
2705,15.16424961
2706,9.305470275
2707,15.59944973
2708,18.47786141
2709,15.87559452
2710,16.83561039
2711,18.40685196
2712,42.62745972
2713,168.5549103
2714,21.91868935
2715,16.53897228
2716,13.87157631
2717,13.87376862
2718,7.223790741
2719,7.079213334
2720,13.09536037
2721,12.25735607
2722,334.3971558
2723,1811.311792
2724,57.97462006
2725,13.28919449
2726,15.6
2727,13.57907753
2728,10.4111475
2729,13.39663105
2730,17.17744999
2731,15.54284897
2732,16.17224197
2733,14.44544506
2734,7.205826568
2735,13.71387634
2736,32.8809906
2737,26.73375473
2738,13.6202383
2739,8.730755615
2740,11.04106731
2741,16.93303948
2742,21.25549736
2743,12.95915852
2744,5.950693893
2745,10.31760483
2746,14.68678989
2747,22.59462471
2748,14.96356335
2749,12.57815857
2750,16.52287254
2751,19.83119545
2752,17.18104382
2753,11.2
2754,20.39472656
2755,54.88753357
2756,16.42347107
2757,17.52158089
2758,14.5393074
2759,19.5164505
2760,15.87575798
2761,10.88227978
2762,11.16368866
2763,10.47987442
2764,8.822375585
2765,13.0480648
2766,15.67652168
2767,12.07246818
2768,7.919436837
2769,11.60114317
2770,15.11045342
2771,11.47898846
2772,14.11424084
2773,12.54481487
2774,12.14198876
2775,11.65672665
2776,13.32780437
2777,16.61680031
2778,12.33200912
2779,9.450853585
2780,10.47456837
2781,9.436383532
2782,10.54790096
2783,13.77992745
2784,15.33468723
2785,11.31891403
2786,8.467609594
2787,10.41677809
2788,12.30473976
2789,11.94687176
2790,9.63816433
2791,8.429362679
2792,10.87703762
2793,7.926073646
2794,10.33577242
2795,9.674598885
2796,6.690247297
2797,15.8297945
2798,13.27863617
2799,9.81931467
2800,10.83783607
2801,12.11341019
2802,12.28457584
2803,10.96895618
2804,10.6984108
2805,14.88746128
2806,17.79667454
2807,15.21670475
2808,18.05004539
2809,10.61523399
2810,8.505732393
2811,12.2349989
2812,14.3029068
2813,8.484468841
2814,16.5066555
2815,16.79865589
2816,10.63735046
2817,10.78535633
2818,9.699753094
2819,6.44473877
2820,11.29980507
2821,14.57146873
2822,7.886279964
2823,5.820633697
2824,9.294322777
2825,8.704304505
2826,15.13647347
2827,22.91497078
2828,14.14191857
2829,13.21418743
2830,15.49015389
2831,7.834031225
2832,17.73866234
2833,22.64758797
2834,21.59475365
2835,16.92351131
2836,13.63047772
2837,8.197738172
2838,7.988112926
2839,10.2000001
2840,8.347384167
2841,7.033248329
2842,11.68330784
2843,13.63529625
2844,5.679857767
2845,9.975208854
2846,20.14812469
2847,13.94106693
2848,13.51671753
2849,12.50554142
2850,7.954252912
2851,5.654570675
2852,8.595029926
2853,9.158042143
2854,5.439150238
2855,7.244539452
2856,12.91783542
2857,17.49325104
2858,15.38909454
2859,7.399661446
2860,8.357650089
2861,17.90873585
2862,15.22479114
2863,11.76937924
2864,10.58203182
2865,7.549518776
2866,11.52636394
2867,13.18411121
2868,9.935851003
2869,10.56770573
2870,10.30521478
2871,7.979484177
2872,11.47750721
2873,16.19434204
2874,8.593350792
2875,9.651941394
2876,25.30568962
2877,11.84648066
2878,12.69354286
2879,15.79339447
2880,8.210915566
2881,15.75356541
2882,12.15799017
2883,10.55091267
2884,17.8498127
2885,14.45970764
2886,12.62101803
2887,11.29214029
2888,11.76732521
2889,5.008197021
2890,8.654552556
2891,14.21190014
2892,15.59999981
2893,13.50520954
2894,14.68076859
2895,18.08406677
2896,14.18279381
2897,13.12233524
2898,11.34266367
2899,13.96937237
2900,14.45398865
2901,11.19958325
2902,11.90348225
2903,11.05451221
2904,16.13687782
2905,14.80501595
2906,5.694549847
2907,9.893515015
2908,11.8
2909,11.27313414
2910,11.27150993
2911,10.62739191
2912,8.358679485
2913,8.600395108
2914,7.422628689
2915,16.15455551
2916,12.43748207
2917,20.14308281
2918,18.12760124
2919,14.90635243
2920,17.68798294
2921,10.89665966
2922,14.93493958
2923,32.07411385
2924,7.108731795
2925,5.608857203
2926,8.048891639
2927,6.542355633
2928,7.073259545
2929,12.93076668
2930,13.54881783
2931,12.6060955
2932,16.41908455
2933,6.039361
2934,6.004419136
2935,5.62869339
2936,8.061790657
2937,9.435474539
2938,6.070407676
2939,15.20297775
2940,12.13339214
2941,5.051565075
2942,12.5065752
2943,8.846560478
2944,5.453316784
2945,7.132469082
2946,10.06432915
2947,11.22562427
2948,11.81481371
2949,10.10589294
2950,7.481009578
2951,10.04873438
2952,8.351981354
2953,6.195721626
2954,11.4420763
2955,14.62650566
2956,15.03943501
2957,14.73162155
2958,5.917679763
2959,7.424907302
2960,6.278807497
2961,12.52919235
2962,10.41794853
2963,7.761136913
2964,7.184821414
2965,7.264075184
2966,10.04250412
2967,6.880611515
2968,6.841203498
2969,6.626505088
2970,8.704537774
2971,18.37119274
2972,16.68477001
2973,12.75874481
2974,16.20251827
2975,14.45182476
2976,3.754895973
2977,2.068589997
2978,8.400419522
2979,11.13360844
2980,8.504892255
2981,6.487868595
2982,5.317433929
2983,4.240668201
2984,1.02189281
2985,4.566514969
2986,7.434880209
2987,12.9598835
2988,4.403667498
2989,5.392242813
2990,4.659054852
2991,7.700730991
2992,6.602958059
2993,19.08521004
2994,22.13250427
2995,19.79054642
2996,6.929765797
2997,7.585999012
2998,15.37182713
2999,18.22963238
3000,9.362226105
