Frequency,Density
0,132.4
1,132.4
2,132.4
3,132.4
4,132.4
5,132.4
6,132.4
7,132.4
8,132.4
9,132.4
10,132.4
11,132.4
12,132.4
13,132.4
14,132.4
15,132.4
16,132.4
17,132.4
18,132.4
19,132.4
20,132.4
21,132.4
22,132.4
23,132.4
24,132.4
25,132.4
26,132.4
27,132.4
28,132.4
29,132.4
30,132.4
31,132.4
32,132.4
33,132.4
34,132.4
35,132.4
36,132.4
37,132.4
38,132.4
39,132.4
40,132.4
41,132.4
42,132.4
43,132.4
44,132.4
45,132.4
46,132.4
47,132.4
48,132.4
49,132.4
50,132.4
51,132.4
52,132.4
53,132.4
54,132.4
55,132.4
56,132.4
57,132.4
58,132.4
59,132.4
60,132.4
61,132.4
62,132.4
63,132.4
64,132.4
65,132.4
66,132.4
67,132.4
68,132.4
69,132.4
70,132.4
71,132.4
72,132.4
73,132.4
74,132.4
75,132.4
76,132.4
77,132.4
78,132.4
79,132.4
80,132.4
81,132.4
82,132.4
83,132.4
84,132.4
85,132.4
86,132.4
87,132.4
88,132.4
89,132.4
90,132.4
91,132.4
92,132.4
93,132.4
94,132.4
95,132.4
96,132.4
97,132.4
98,132.4
99,132.4
100,132.4
101,132.4
102,132.4
103,132.4
104,132.4
105,132.4
106,132.4
107,132.4
108,132.4
109,132.4
110,132.4
111,132.4
112,132.4
113,132.4
114,132.4
115,132.4
116,132.4
117,132.4
118,132.4
119,132.4
120,132.4
121,132.4
122,132.4
123,132.4
124,132.4
125,132.4
126,132.4
127,132.4
128,132.4
129,132.4
130,132.4
131,132.4
132,132.4
133,132.4
134,132.4
135,132.4
136,132.4
137,132.4
138,132.4
139,132.4
140,132.4
141,132.4
142,132.4
143,132.4
144,132.4
145,132.4
146,132.4
147,132.4
148,132.4
149,132.4
150,132.4
151,132.4
152,132.4
153,132.4
154,132.4
155,132.4
156,132.4
157,132.4
158,132.4
159,132.4
160,132.4
161,132.4
162,132.4
163,132.4
164,132.4
165,132.4
166,132.4
167,132.4
168,132.4
169,132.4
170,132.4
171,132.4
172,132.4
173,132.4
174,132.4
175,132.4
176,132.4
177,132.4
178,132.4
179,132.4
180,132.4
181,132.4
182,132.4
183,132.4
184,132.4
185,132.4
186,132.4
187,132.4
188,132.4
189,132.4
190,132.4
191,132.4
192,132.4
193,132.4
194,132.4
195,132.4
196,132.4
197,132.4
198,132.4
199,149.1509857
200,207.7693482
201,266.3877106
202,278.081134
203,269.9456696
204,263.3753601
205,268.1044586
206,272.833551
207,276.3030914
208,278.7078156
209,281.1125366
210,281.2747894
211,281.3524109
212,283.8037293
213,290.0167725
214,296.2298035
215,294.2463684
216,290.3609436
217,284.9209198
218,274.5018372
219,264.0827667
220,263.5522553
221,267.9868561
222,271.9926025
223,271.9147553
224,271.836911
225,273.1516693
226,275.7220856
227,278.2925171
228,275.7115906
229,272.9058441
230,273.4010986
231,279.0158752
232,284.6306702
233,282.3720917
234,278.470639
235,274.6717224
236,271.1583496
237,267.644986
238,267.1488556
239,267.9300598
240,268.4441315
241,267.3497925
242,266.2554627
243,263.4712951
244,259.4824432
245,255.6
246,255.6
247,255.6
248,255.0098266
249,253.7569519
250,252.5040711
251,249.9573547
252,247.2934265
253,246.3711456
254,248.4878662
255,250.6045837
256,247.8743164
257,244.030603
258,241.2620636
259,241.4975342
260,241.7329956
261,245.3960785
262,250.4223511
263,253.1405823
264,244.4965942
265,235.8526123
266,236.8175537
267,243.5795563
268,249.2392242
269,242.2372162
270,235.2352142
271,235.0067322
272,240.5958893
273,246.1850464
274,241.0152954
275,235.816687
276,233
277,233.000003
278,233
279,237.0652222
280,241.4813629
281,241.9252258
282,236.0072754
283,230.0893219
284,233.2923615
285,238.1084595
286,241.8501312
287,243.2721191
288,244.6940918
289,243.0767334
290,240.6263244
291,239.0618652
292,240.0900635
293,241.1182617
294,244.330127
295,248.3661926
296,252.3397766
297,256.0614746
298,259.7831787
299,262.3864899
300,264.446524
301,265.9404633
302,264.1963379
303,262.4522064
304,260.4591278
305,258.3173493
306,256.3750488
307,256.1369263
308,255.898822
309,255.2889404
310,254.415332
311,253.4197937
312,250.7179688
313,248.0161407
314,246.7125549
315,246.5535309
316,246.3505249
317,244.9184723
318,243.4864044
319,243.7119049
320,245.4632233
321,247.1615906
322,242.5417358
323,237.9218689
324,236.8289642
325,239.2996552
326,241.7703461
327,238.4908417
328,235.1414734
329,234.5108582
330,236.8248749
331,239.1388946
332,241.4542358
333,243.7696197
334,246.9092194
335,250.9834961
336,255.0577789
337,250.9570526
338,246.5606384
339,243.0148468
340,240.455423
341,237.8960052
342,237.3378357
343,236.8576599
344,233.5943237
345,227.1081452
346,220.6219757
347,226.9774201
348,233.787915
349,235.2915741
350,230.8020172
351,226.3124603
352,228.5462585
353,230.9527954
354,229.8026306
355,224.8261902
356,219.8497498
357,223.0598938
358,226.35271
359,229.0842773
360,231.2539917
361,233.3543121
362,229.1731354
363,224.9919556
364,224.5586334
365,227.5354584
366,230.3332031
367,228.5621551
368,226.7911072
369,227.1142212
370,229.1279633
371,230.7504608
372,227.20419
373,223.6579224
374,225.1444153
375,230.1443817
376,233.9938415
377,228.4260803
378,222.8583221
379,221.2580231
380,221.9846802
381,222.5381104
382,222.1341736
383,221.7302338
384,220.8331848
385,219.7014984
386,218.1419098
387,214.906604
388,211.6712921
389,210.3860504
390,209.8195373
391,209.3789917
392,209.2980133
393,209.217038
394,213.1028046
395,218.0453919
396,222.5721436
397,226.220462
398,229.8687805
399,230.0534515
400,229.6478424
401,231.6731384
402,237.517334
403,243.3615326
404,243.1990082
405,242.5492706
406,242.8012909
407,244.101532
408,245.4091095
409,252.0767975
410,258.7444702
411,266.2517395
412,274.4692139
413,282.6190674
414,290.0272949
415,297.4355286
416,293.2557678
417,282.177594
418,270.8605774
419,258.3902558
420,245.9199555
421,238.6538513
422,233.434433
423,227.6079102
424,220.1005707
425,212.5932312
426,208.6731201
427,205.5704285
428,205.1801361
429,209.5101196
430,213.8401093
431,218.5472015
432,223.2884705
433,225.3384003
434,224.3568726
435,223.0915131
436,210.8151184
437,198.5387207
438,196.6852722
439,202.3357453
440,206.1510773
441,198.6126648
442,191.0742462
443,194.1817871
444,201.8886291
445,205.9007233
446,199.3378357
447,192.7749451
448,194.4303376
449,197.8778961
450,201.0420349
451,203.7524231
452,206.4628113
453,209.2527466
454,212.0469177
455,211.6187805
456,208.1651153
457,204.9450073
458,204.2867767
459,203.6285492
460,202.2176788
461,200.406485
462,198.4109802
463,195.7749481
464,193.1389221
465,191.6164032
466,190.3800354
467,190.634967
468,193.4390533
469,196.2431396
470,199.7499451
471,203.2983887
472,202.7223328
473,198.3460877
474,194.2538208
475,192.7666687
476,191.2795258
477,193.9927002
478,198.7047882
479,201.3882691
480,198.2450165
481,195.10177
482,195.921521
483,197.4940704
484,194.2223511
485,184.3673859
486,174.6868957
487,184.4648224
488,194.242749
489,198.0519257
490,197.8031921
491,196.9315796
492,193.2812622
493,189.6309509
494,188.1588562
495,187.3287476
496,186.1969269
497,184.5357239
498,182.8745331
499,185.7370636
500,188.8120941
501,189.9262482
502,189.427301
503,189.4779175
504,192.8062042
505,196.134491
506,195.0286133
507,192.3644074
508,190.4030518
509,189.8199158
510,189.2367767
511,189.5904938
512,190.0072601
513,191.1415161
514,192.8930023
515,194.1786651
516,192.5930511
517,191.0074371
518,189.1729431
519,187.2523834
520,186.3488251
521,187.3514496
522,188.3540771
523,187.5225067
524,186.60289
525,189.0671631
526,194.1698731
527,199.4019073
528,205.2609314
529,211.1199615
530,204.8074738
531,195.0924896
532,188.9362244
533,188.2658295
534,187.6205627
535,190.6391205
536,193.6576813
537,194.6957001
538,194.5279053
539,194.3600891
540,194.1921875
541,194.024292
542,192.9941772
543,191.8182098
544,192.3959107
545,194.9173309
546,196.7301666
547,191.7684357
548,186.8066986
549,187.69104
550,190.8886169
551,192.628186
552,191.5336273
553,190.4390686
554,193.0808929
555,195.861029
556,192.7702606
557,185.6050751
558,180.6795105
559,183.8003204
560,186.9211273
561,183.1846893
562,178.2053161
563,175.8818329
564,176.4729584
565,177.2564606
566,179.6223511
567,181.9882416
568,176.7703491
569,168.9075745
570,166.9569458
571,174.8243774
572,182.6227203
573,184.569577
574,186.5164368
575,186.1008331
576,184.4069092
577,182.5908722
578,180.4722168
579,178.3535614
580,178.5146027
581,178.8537842
582,179.9654327
583,181.6623657
584,182.730368
585,181.4569153
586,180.1834625
587,175.6374725
588,170.5406494
589,168.8951874
590,170.6801361
591,172.3263062
592,173.1767792
593,174.0272522
594,173.3862427
595,172.3650635
596,170.2407044
597,166.7496216
598,164.508316
599,173.7949738
600,183.0816345
601,179.7708862
602,172.2689606
603,169.4208343
604,173.4299194
605,177.2050873
606,177.2904388
607,177.3757873
608,176.5435516
609,175.3479462
610,174.4080292
611,173.8953217
612,173.3507141
613,171.8971832
614,170.4436584
615,166.7902618
616,162.1704285
617,158.7109985
618,157.3413483
619,156.053093
620,158.6227051
621,161.1923157
622,165.5847137
623,170.8126831
624,175.075589
625,177.5624847
626,179.9454682
627,177.1996796
628,174.4538818
629,174.0732575
630,174.7601135
631,176.4046722
632,179.755072
633,182.9269379
634,180.6060577
635,178.2851776
636,173.9629486
637,168.8023804
638,169.9758667
639,181.5079559
640,191.8838348
641,182.5838043
642,173.2837738
643,169.5369843
644,167.8137329
645,166.2320526
646,164.8526428
647,164.2421723
648,171.2295929
649,178.2170197
650,179.5997162
651,179.3407654
652,178.1357819
653,175.8038819
654,174.2740875
655,177.6443848
656,181.014682
657,172.7399536
658,162.0177857
659,159.1096496
660,163.6087097
661,168.5100556
662,175.0029175
663,181.4957885
664,180.3465332
665,178.2675873
666,176.5919464
667,175.2051605
668,173.0544434
669,168.8916137
670,164.7287933
671,166.1136597
672,167.6756439
673,168.430719
674,168.7780334
675,169.8465973
676,172.1923462
677,174.1696899
678,170.257785
679,166.3458771
680,166.5871155
681,168.1528046
682,171.396405
683,176.6184631
684,181.3924774
685,183.8308838
686,186.2692871
687,188.0310669
688,189.6866821
689,187.9684326
690,183.6961639
691,180.5039337
692,180.1549713
693,179.8060089
694,175.5963013
695,171.3189697
696,168.7313782
697,166.8971466
698,167.345282
699,171.1907074
700,174.6793457
701,175.3789276
702,176.0785095
703,173.0909058
704,169.3284149
705,167.8366608
706,168.2744202
707,168.1510315
708,166.3989624
709,164.6468903
710,166.3914978
711,168.2322601
712,168.4360657
713,167.9098144
714,168.7549622
715,171.563263
716,172.1875702
717,158.4889923
718,144.7904022
719,148.8828521
720,155.9997894
721,160.9833099
722,164.4120117
723,167.681134
724,170.5840698
725,173.207428
726,166.7819763
727,160.3565247
728,161.2025391
729,164.3731324
730,165.4851196
731,164.4276245
732,163.5424988
733,163.2779694
734,163.013443
735,163.8374573
736,164.7197449
737,164.6988037
738,164.2573975
739,163.1162353
740,160.996231
741,159.5104675
742,161.5433441
743,163.5762207
744,162.7768616
745,161.6271606
746,160.9775482
747,160.623584
748,159.9760254
749,158.8249634
750,157.0817658
751,150.5256775
752,143.9695846
753,150.3271881
754,158.9260803
755,161.5541412
756,160.1349243
757,158.5337097
758,156.5811279
759,154.8701782
760,155.6694336
761,156.468689
762,148.0600678
763,137.8412964
764,142.9095902
765,158.824765
766,169.6686493
767,170.4693268
768,170.3282959
769,160.3583771
770,150.3884598
771,152.5439453
772,156.9974365
773,160.0201538
774,162.0699768
775,163.6818329
776,164.4844116
777,164.4939911
778,157.9803039
779,151.4666138
780,152.5350769
781,154.7671112
782,156.5519898
783,158.0706756
784,158.3062195
785,156.5184723
786,155.0134735
787,155.1029144
788,155.1923523
789,156.3457886
790,157.5987
791,160.9215362
792,165.2197754
793,163.361853
794,153.86427
795,147.7819412
796,154.2369629
797,160.69198
798,162.9169189
799,165.0698731
800,162.4877472
801,158.3588074
802,154.9838592
803,152.2894775
804,152.5476898
805,159.7369812
806,165.787851
807,157.425351
808,149.0628479
809,151.1609741
810,155.1197723
811,158.1218506
812,160.5525543
813,160.943277
814,158.3309692
815,157.0636078
816,161.7505249
817,166.4374481
818,163.1176514
819,159.5101868
820,161.2314056
821,164.750769
822,164.8646179
823,161.9752228
824,159.3139618
825,157.1456268
826,154.9307312
827,152.3091065
828,149.6874756
829,152.2992859
830,155.5556519
831,155.2474091
832,153.2562256
833,153.4331726
834,156.0594757
835,157.1245331
836,153.7717468
837,150.604895
838,150.6955643
839,150.7862366
840,166.5748169
841,185.1731232
842,175.6143646
843,150.4690521
844,141.6013336
845,153.4093872
846,161.7494324
847,159.0228821
848,156.2132752
849,151.3025635
850,146.3918518
851,142.5471802
852,138.9074539
853,141.392186
854,147.3102509
855,150.2358643
856,149.4159546
857,149.1854859
858,150.7351227
859,152.3895813
860,155.855542
861,159.3215027
862,149.1016815
863,136.6898285
864,138.049263
865,146.1765503
866,153.3405853
867,159.4625122
868,163.0804718
869,160.6119599
870,158.4
871,158.4
872,158.4
873,159.9959869
874,161.7351471
875,158.576123
876,153.6302978
877,151.6515869
878,152.1098053
879,152.030127
880,151.0214478
881,150.2681275
882,150.6351349
883,150.9495545
884,142.3196869
885,133.6898163
886,138.0522385
887,145.1255814
888,146.1059525
889,143.808049
890,143.7341263
891,146.1253677
892,147.4414825
893,146.2451569
894,145.386171
895,146.8594574
896,148.3327408
897,139.2554413
898,129.6734192
899,134.6796127
900,143.7141892
901,144.8205445
902,140.946283
903,133.654158
904,122.1167679
905,116.893634
906,127.9761032
907,138.4086762
908,143.7683853
909,149.1280975
910,148.3467285
911,147.2371613
912,148.3821289
913,150.1399811
914,147.3888977
915,141.9270599
916,134.4862594
917,124.7602539
918,120.571843
919,129.0060577
920,137.1137115
921,143.3272034
922,149.5407044
923,146.6589386
924,143.689534
925,133.2746261
926,121.3899613
927,122.5356461
928,129.7821686
929,132.2668152
930,130.5005859
931,130.7671249
932,134.394693
933,134.921611
934,124.8700638
935,116.4326264
936,127.1420181
937,137.8514175
938,135.3933151
939,131.9456391
940,132.3691467
941,133.8609222
942,136.0682053
943,138.680362
944,136.9053513
945,130.65112
946,128.4754059
947,133.7993286
948,136.5605865
949,129.7381775
950,124.0438232
951,133.1146087
952,142.1853958
953,137.9151825
954,132.6753204
955,135.2461288
956,139.8337311
957,137.3280411
958,131.1451523
959,128.150914
960,128.0571778
961,129.0973694
962,131.9111145
963,135.112114
964,139.4290863
965,143.104979
966,142.3537506
967,141.6025269
968,135.3259491
969,129.0307083
970,128.689653
971,129.2537399
972,129.9574386
973,130.7100037
974,125.9087631
975,117.6256347
976,112.6618362
977,111.1549149
978,114.0663162
979,124.6210174
980,131.2423401
981,125.6789673
982,121.2178497
983,124.6144684
984,128.015715
985,132.8304489
986,137.6451889
987,135.4419418
988,132.3246735
989,131.6725464
990,131.7670639
991,133.5253662
992,136.1734665
993,132.9295532
994,124.6019974
995,120.2810409
996,121.4172958
997,123.3791763
998,127.1689301
999,128.7386703
1000,121.4390549
1001,115.33219
1002,121.213295
1003,127.0943985
1004,129.9030502
1005,132.6555252
1006,121.8667755
1007,109.140889
1008,114.4564362
1009,125.1943528
1010,130.505185
1011,133.0724029
1012,132.7595169
1013,130.1907699
1014,129.0182724
1015,129.4942535
1016,129.9022003
1017,130.1879547
1018,131.5800446
1019,136.1548614
1020,137.5815186
1021,122.4184387
1022,108.6993515
1023,116.714798
1024,124.730246
1025,123.0624268
1026,121.0573731
1027,116.4698349
1028,111.5019898
1029,117.020491
1030,125.5282074
1031,128.1999985
1032,128.2
1033,127.2889069
1034,125.7576126
1035,124.1290878
1036,122.4053543
1037,122.6379425
1038,125.6083572
1039,125.8308426
1040,120.4617355
1041,117.1007904
1042,119.9788071
1043,122.4152374
1044,122.5112274
1045,122.6722244
1046,123.6327042
1047,124.5931839
1048,125.1725387
1049,125.7491699
1050,110.1042908
1051,92.89124603
1052,101.4482391
1053,115.2076172
1054,121.2114258
1055,124.677385
1056,124.3671051
1057,122.24776
1058,119.8963211
1059,117.3901474
1060,116.6051712
1061,117.3767563
1062,117.2771683
1063,116.1190979
1064,116.0588501
1065,117.7969879
1066,119.1784836
1067,119.7582062
1068,118.7968781
1069,112.8995117
1070,108.8511398
1071,113.8813919
1072,118.409845
1073,118.5066376
1074,118.4832581
1075,115.1903305
1076,111.897406
1077,115.6557114
1078,119.6289551
1079,117.8901443
1080,115.5629593
1081,114.1354126
1082,112.8741059
1083,106.5212952
1084,98.75478821
1085,100.9516693
1086,106.9742935
1087,110.612616
1088,113.04254
1089,115.8858719
1090,118.9980209
1091,121.6299179
1092,123.8681076
1093,121.4866348
1094,114.378598
1095,112.93078
1096,118.6790497
1097,121.6333954
1098,120.1711014
1099,115.6940796
1100,105.2568451
1101,101.1723511
1102,112.9822204
1103,120.1990662
1104,112.5815613
1105,106.6947266
1106,108.2582214
1107,110.1823502
1108,114.2889633
1109,117.9905777
1110,117.8927414
1111,117.1884232
1112,105.4412796
1113,93.8423706
1114,98.54402313
1115,103.2456741
1116,97.33329162
1117,91.06069642
1118,100.1408279
1119,110.4379303
1120,105.6804596
1121,99.00789336
1122,98.66682739
1123,99.45230409
1124,92.66004181
1125,84.11292343
1126,90.51675263
1127,101.2315796
1128,107.6473083
1129,112.5652924
1130,114.4182419
1131,115.0087525
1132,116.2653244
1133,117.8409515
1134,115.7934662
1135,111.7535202
1136,110.9888473
1137,112.2705673
1138,111.2366242
1139,108.5730102
1140,107.897168
1141,108.7855667
1142,108.936528
1143,108.4426788
1144,104.8323074
1145,98.21078491
1146,98.63599396
1147,106.546991
1148,108.7411591
1149,104.2885757
1150,103.9398575
1151,108.7911087
1152,111.6417053
1153,111.7407715
1154,110.4049942
1155,106.9356888
1156,105.6768951
1157,107.9580795
1158,110.7144104
1159,114.287085
1160,113.7288437
1161,105.5862488
1162,101.6126266
1163,105.7857056
1164,109.0208267
1165,110.3132614
1166,110.3568985
1167,107.6710129
1168,105.890596
1169,106.1892044
1170,106.4292877
1171,106.5288834
1172,99.90323029
1173,76.48433609
1174,63.85694809
1175,79.11321182
1176,90.88169251
1177,93.37602843
1178,97.23912201
1179,104.826416
1180,109.4190582
1181,105.7230453
1182,101.6844009
1183,96.68681794
1184,95.51815949
1185,105.11922
1186,112.0686569
1187,111.5683044
1188,109.7466049
1189,104.2394455
1190,100.8141327
1191,103.1184952
1192,105.4774216
1193,107.9836517
1194,107.5082229
1195,99.18258666
1196,94.86653442
1197,100.7882751
1198,105.3190063
1199,106.4237198
1200,107.1103745
1201,106.8089126
1202,106.1986984
1203,104.8915787
1204,104.4477722
1205,105.8562775
1206,104.7404465
1207,98.49906617
1208,95.22977753
1209,97.64723205
1210,95.48684998
1211,85.10576477
1212,81.76233216
1213,90.23349305
1214,97.44695588
1215,102.6941284
1216,103.4514114
1217,97.6962845
1218,96.12653046
1219,100.1676209
1220,98.87091981
1221,90.9861084
1222,89.12492676
1223,94.08114928
1224,97.49589386
1225,99.31763153
1226,100.2522171
1227,100.3534851
1228,93.98999329
1229,82.13461304
1230,82.17289505
1231,91.29784242
1232,95.48231355
1233,96.29390106
1234,99.8244171
1235,105.0013748
1236,104.6790024
1237,101.4287827
1238,91.99519349
1239,79.69799423
1240,79.47437897
1241,84.05043793
1242,79.48577423
1243,71.8544754
1244,80.80520935
1245,94.34609833
1246,96.46635743
1247,96.05886992
1248,98.70337829
1249,101.8632812
1250,98.46389008
1251,94.28217772
1252,95.52267456
1253,97.15553438
1254,96.90199891
1255,96.6680893
1256,101.4703186
1257,105.9651871
1258,105.3517715
1259,104.2140335
1260,98.3831253
1261,93.98040772
1262,97.97234955
1263,100.63134
1264,97.66120911
1265,95.64460144
1266,96.66939545
1267,98.37139588
1268,101.7552246
1269,103.930925
1270,103.7257233
1271,101.8901794
1272,97.4757019
1273,93.19541321
1274,89.08648376
1275,89.27660828
1276,93.90190429
1277,90.94258728
1278,81.68648987
1279,83.44907532
1280,92.50486297
1281,97.56547393
1282,100.5515411
1283,98.67108154
1284,94.85900269
1285,93.36111908
1286,92.53639526
1287,89.5589569
1288,86.15494995
1289,84.1358902
1290,82.27805481
1291,83.28829041
1292,84.52824707
1293,90.52172852
1294,94.86231841
1295,81.6274643
1296,72.65965576
1297,87.55771637
1298,98.09147035
1299,93.01897584
1300,89.90458221
1301,91.66547547
1302,89.29764252
1303,79.4515152
1304,76.62752609
1305,83.26465149
1306,89.69725647
1307,95.92326355
1308,97.1202606
1309,94.52454987
1310,91.92784423
1311,89.33058776
1312,82.92195587
1313,75.02160645
1314,81.83174744
1315,92.44115295
1316,95.70565949
1317,97.89124755
1318,94.14072569
1319,90.23095245
1320,91.27294464
1321,91.99298553
1322,90.1162796
1323,88.11914825
1324,85.61538544
1325,84.46008606
1326,86.86095123
1327,84.23833313
1328,72.64466095
1329,72.3731987
1330,86.27297516
1331,93.52107391
1332,94.88050689
1333,95.85254212
1334,96.58497925
1335,94.87702027
1336,92.15492095
1337,91.68340302
1338,91.78816223
1339,86.03558044
1340,79.53670349
1341,78.78394012
1342,76.67959518
1343,55.58559189
1344,43.23955498
1345,74.74186325
1346,94.06794129
1347,79.04291382
1348,75.04892883
1349,90.81881715
1350,96.04327696
1351,88.67962036
1352,85.80864563
1353,86.54545136
1354,86.73106689
1355,86.62574463
1356,86.44075623
1357,86.22999116
1358,84.93382263
1359,83.45758362
1360,87.25291138
1361,90.82048035
1362,88.07563782
1363,85.52914581
1364,83.94463959
1365,83.12276001
1366,84.2854187
1367,82.55447998
1368,76.20892487
1369,76.19080048
1370,82.64594574
1371,80.14476318
1372,71.77984924
1373,71.29513321
1374,73.94383087
1375,79.22643127
1376,85.0570282
1377,85.00066223
1378,84.66502991
1379,85.83253479
1380,87.4368744
1381,91.15387725
1382,88.65673218
1383,70.80452499
1384,63.69649429
1385,72.30892563
1386,74.50102005
1387,70.88377762
1388,70.56140976
1389,72.05174866
1390,78.68520355
1391,86.88693237
1392,86.94757233
1393,85.94434814
1394,81.35871277
1395,77.50211639
1396,78.24906006
1397,78.8
1398,78.8
1399,78.384198
1400,77.31586914
1401,78.51363831
1402,81.82742615
1403,82.51621247
1404,81.7674942
1405,71.54714279
1406,58.59731064
1407,67.9932724
1408,79.18289795
1409,78.75429535
1410,77.17320557
1411,70.09706345
1412,67.80984192
1413,76.28480072
1414,82.09526672
1415,84.56412353
1416,81.29849243
1417,73.88751297
1418,74.50191422
1419,78.26334076
1420,81.19696197
1421,83.99282532
1422,83.57071533
1423,82.8417572
1424,80.25789032
1425,78.24866486
1426,77.71004104
1427,75.52450409
1428,71.10515671
1429,68.89320984
1430,68.35394287
1431,66.65780411
1432,64.49946442
1433,67.91996155
1434,72.13330689
1435,64.78622818
1436,60.01776199
1437,68.99084549
1438,75.4665596
1439,76.33195038
1440,77.1478775
1441,77.90554352
1442,74.95560608
1443,69.64879608
1444,74.44919968
1445,82.35995789
1446,78.21641693
1447,73.5861557
1448,76.08154678
1449,77.19682617
1450,73.72291488
1451,72.90955735
1452,76.27690811
1453,79.40724182
1454,82.34183808
1455,80.04502563
1456,75.58614197
1457,75.37805176
1458,75.99998321
1459,82.53293304
1460,87.42001038
1461,85.45895996
1462,83.30235748
1463,80.79508514
1464,78.28703308
1465,75.77827149
1466,79.36642914
1467,85.69662475
1468,84.82119141
1469,82.6047821
1470,75.06508484
1471,69.9622757
1472,74.8823883
1473,78.28055572
1474,79.0463623
1475,80.34265442
1476,82.09410553
1477,81.27581024
1478,79.4137886
1479,77.16273727
1480,75.0066124
1481,75.11627197
1482,74.11013794
1483,69.50164795
1484,66.39114914
1485,65.40302963
1486,63.63398209
1487,61.32700119
1488,63.34433746
1489,66.64197998
1490,69.94148712
1491,72.68230896
1492,71.80189362
1493,72.27992172
1494,75.69355621
1495,75.80199967
1496,72.60670395
1497,73.03475647
1498,75.12946854
1499,70.30847625
1500,64.62763977
1501,61.64740677
1502,59.80736542
1503,61.46403275
1504,65.23643112
1505,71.75652084
1506,68.53084183
1507,59.46364517
1508,64.66590042
1509,72.98820953
1510,71.65972748
1511,71.13783035
1512,73.79636917
1513,72.93708267
1514,66.73013992
1515,59.92975082
1516,52.7209877
1517,59.86805725
1518,70.85407181
1519,72.64341125
1520,73.36113129
1521,69.91698456
1522,68.913768
1523,71.80412064
1524,70.84804458
1525,67.17734299
1526,63.68038101
1527,60.23010101
1528,63.07024002
1529,64.83392258
1530,61.93670197
1531,57.74360657
1532,51.6112381
1533,55.29273376
1534,65.33347015
1535,70.19898605
1536,73.71968689
1537,70.14541016
1538,67.76284332
1539,69.3275177
1540,71.93150177
1541,75.84550476
1542,67.98030395
1543,53.88153534
1544,62.67216492
1545,73.04744568
1546,61.17250595
1547,55.47797623
1548,64.55760727
1549,66.42223205
1550,61.37500076
1551,57.38708878
1552,53.79581986
1553,58.16534195
1554,60.75891876
1555,51.99481507
1556,51.39759979
1557,63.87698899
1558,67.91449432
1559,66.45207977
1560,60.70366516
1561,54.69753723
1562,60.554142
1563,65.26491394
1564,66.95532074
1565,65.37414169
1566,60.52543716
1567,59.19999924
1568,59.20000076
1569,60.49244537
1570,61.4763382
1571,60.79857025
1572,59.28255158
1573,56.56987457
1574,56.83521652
1575,58.75783462
1576,55.24146652
1577,50.79609223
1578,45.13462677
1579,44.33053055
1580,52.94105835
1581,58.229776
1582,61.06386566
1583,60.49632874
1584,58.87560501
1585,52.06572723
1586,47.32968674
1587,47.78394775
1588,52.11153259
1589,59.95217666
1590,61.97380753
1591,62.17341843
1592,57.16766052
1593,55.624263
1594,64.61719666
1595,67.63598785
1596,64.44673233
1597,59.83299408
1598,54.70436554
1599,56.27574692
1600,57.90922546
1601,59.27848206
1602,58.75776977
1603,56.13180847
1604,54.9879837
1605,54.41678467
1606,57.83940582
1607,61.10542221
1608,63.39292526
1609,65.19458999
1610,66.45346222
1611,64.64229736
1612,61.66501618
1613,63.05699387
1614,64.4133667
1615,65.33053741
1616,66.35996704
1617,67.50711212
1618,66.77428894
1619,65.3811348
1620,56.99706955
1621,52.59859619
1622,59.49369049
1623,62.32121124
1624,61.40132294
1625,62.27849121
1626,63.21534424
1627,54.23579102
1628,49.2319046
1629,53.26357651
1630,53.68765259
1631,51.38247681
1632,53.78956528
1633,55.23249283
1634,39.53872795
1635,33.41073418
1636,43.80246201
1637,48.84630585
1638,50.81035004
1639,56.63964538
1640,61.96040039
1641,62.88575134
1642,60.10924225
1643,52.70205917
1644,52.67354126
1645,55.56868439
1646,54.33917007
1647,51.78279953
1648,45.63782807
1649,41.30154114
1650,38.51726532
1651,48.11306305
1652,59.45300522
1653,60.03374786
1654,60.57169571
1655,61.03656616
1656,59.08870163
1657,55.83268661
1658,51.38644485
1659,48.77637482
1660,53.4333313
1661,56.88853073
1662,59.10189285
1663,58.96769028
1664,57.86900711
1665,52.27073669
1666,46.5507843
1667,40.59910431
1668,47.16118774
1669,61.0566536
1670,51.15592117
1671,43.18901444
1672,50.90486298
1673,53.81529617
1674,51.82670441
1675,52.31930008
1676,52.83423767
1677,45.45603561
1678,43.00495987
1679,48.98132171
1680,54.18354797
1681,58.99091492
1682,52.6912674
1683,48.10250473
1684,50.09816131
1685,50.29181671
1686,48.9997467
1687,52.17826767
1688,54.48452301
1689,46.72293472
1690,46.98758392
1691,57.34248657
1692,55.53637619
1693,49.62102203
1694,45.61553269
1695,42.959095
1696,42.84121704
1697,39.1180748
1698,33.4565815
1699,44.69222565
1700,52.21829758
1701,46.90437241
1702,43.73006058
1703,42.19401855
1704,44.89221725
1705,46.71714554
1706,41.86698227
1707,42.19171448
1708,47.87331085
1709,52.4181984
1710,56.14642258
1711,55.67239609
1712,51.51634979
1713,42.38596191
1714,39.47414932
1715,38.80629196
1716,38.92500763
1717,42.28131943
1718,51.19032288
1719,48.71079559
1720,41.01422119
1721,48.38769913
1722,52.86651612
1723,51.20055389
1724,49.3055275
1725,47.28137741
1726,41.13954964
1727,36.90155144
1728,37.97442513
1729,41.35055008
1730,46.24097214
1731,46.04706421
1732,44.3718956
1733,39.47569657
1734,37.95066681
1735,38.90658608
1736,46.65926285
1737,51.16843109
1738,42.31573028
1739,40.20239029
1740,43.43433609
1741,45.71198273
1742,47.79013443
1743,49.58777847
1744,50.86013641
1745,51.69953308
1746,46.94131775
1747,43.34307251
1748,46.82467498
1749,44.45364609
1750,37.24607658
1751,43.18959503
1752,47.20120316
1753,38.06083984
1754,34.33437614
1755,34.93607063
1756,40.16559296
1757,44.60000115
1758,44.6
1759,46.25709228
1760,49.15033722
1761,42.7871376
1762,39.80673981
1763,49.22088928
1764,48.01221848
1765,39.67940598
1766,46.14696274
1767,46.67512665
1768,30.23165512
1769,32.62628746
1770,45.93399582
1771,33.03197479
1772,29.43955154
1773,46.03324814
1774,47.38215637
1775,41.64149552
1776,43.21793747
1777,44.33724594
1778,44.70125427
1779,44.88847351
1780,44.61442795
1781,39.87673645
1782,38.73341026
1783,42.2583847
1784,42.42379379
1785,41.9590065
1786,43.05425415
1787,41.64506226
1788,37.74855347
1789,43.89985657
1790,48.51384125
1791,41.68691254
1792,40.98236466
1793,44.7637825
1794,41.10942154
1795,40.79174118
1796,49.46261902
1797,47.47113724
1798,40.24199638
1799,41.95376282
1800,42.80973816
1801,42.32037353
1802,40.72316894
1803,39.76562805
1804,46.13485336
1805,45.27869949
1806,36.82225036
1807,24.68985939
1808,18.24385223
1809,33.58155403
1810,39.43501434
1811,38.82114563
1812,39.63030205
1813,39.95108986
1814,39.2135788
1815,40.04848022
1816,41.48296203
1817,42.46746826
1818,38.53413391
1819,28.80641747
1820,27.2
1821,28.2173233
1822,33.02526817
1823,36.23571663
1824,38.3327198
1825,40.7893158
1826,40.6833271
1827,35.74339218
1828,35.83946381
1829,37.73545532
1830,38.97189255
1831,39.72173767
1832,39.96917038
1833,40.86692428
1834,40.50609551
1835,36.29478493
1836,30.96264992
1837,25.56102791
1838,37.09375496
1839,41.0997345
1840,34.64753532
1841,37.90668488
1842,41.03827362
1843,34.0815773
1844,33.02031937
1845,36.12781372
1846,30.85471763
1847,30.887146
1848,40.34504013
1849,38.33259773
1850,32.74808693
1851,27.26602478
1852,27.33770294
1853,31.95032845
1854,31.49207802
1855,32.11152344
1856,35.35663872
1857,31.48609657
1858,26.10395088
1859,26.85370407
1860,30.42955475
1861,36.4311039
1862,37.03483124
1863,32.56241684
1864,18.91787796
1865,20.88462372
1866,26.10660744
1867,18.58702488
1868,24.84829712
1869,42.40429382
1870,39.6064003
1871,36.29426231
1872,33.78331566
1873,24.03837547
1874,15.9657732
1875,26.02135849
1876,33.87524681
1877,40.16367874
1878,36.0711853
1879,31.76443176
1880,27.23144264
1881,26.29711914
1882,25.3044632
1883,21.39647236
1884,19.83787136
1885,19.98195677
1886,26.67120628
1887,30.97566147
1888,32.61738358
1889,24.93866539
1890,21.54684086
1891,30.52369728
1892,32.35872497
1893,28.97112045
1894,10.61658626
1895,14.37077389
1896,35.26922226
1897,30.86042442
1898,29.13272324
1899,31.92245216
1900,30.82258682
1901,27.70082436
1902,20.97222538
1903,22.32680855
1904,27.10445213
1905,28.12128105
1906,29.40763817
1907,30.93377609
1908,26.73941917
1909,21.79444504
1910,16.06471501
1911,27.34360504
1912,36.5884922
1913,27.53764839
1914,28.56298256
1915,33.22412872
1916,27.86383171
1917,27.33210983
1918,30.90773582
1919,28.38594818
1920,24.65631256
1921,19.41443577
1922,9.199682998
1923,6.455452203
1924,25.14352531
1925,29.47948799
1926,28.78262978
1927,31.21749039
1928,30.28789444
1929,27.20471191
1930,27.33301353
1931,26.29570312
1932,23.98493881
1933,25.80890007
1934,26.17372437
1935,23.34614792
1936,23.42257214
1937,19.5959898
1938,2.095951605
1939,10.17848097
1940,26.48869133
1941,25.71572724
1942,22.12121163
1943,16.94438953
1944,20.55578156
1945,24.54711037
1946,28.93493843
1947,22.16292801
1948,20.17487011
1949,26.7643177
1950,20.82649078
1951,16.14791756
1952,20.02859993
1953,28.08339577
1954,34.35543671
1955,28.26858597
1956,21.66611481
1957,16.05411224
1958,19.94388275
1959,22.19598884
1960,23.31437035
1961,26.81925964
1962,25.91642418
1963,20.46118698
1964,24.65464592
1965,26.86265907
1966,25.56227379
1967,22.09754829
1968,-7.955200101
1969,-89.45450439
1970,-36.65635261
1971,25.35758896
1972,21.44730491
1973,17.24888229
1974,13.92961254
1975,14.58208828
1976,20.01781921
1977,25.97537003
1978,19.83492813
1979,17.16333942
1980,16.92501354
1981,18.6254179
1982,18.61615372
1983,17.21282101
1984,17.99854031
1985,16.79798489
1986,13.52224274
1987,17.94368992
1988,20.19852715
1989,19.28024788
1990,18.12190209
1991,15.96982212
1992,12.2924159
1993,11.57236786
1994,14.20581503
1995,22.35815239
1996,23.04192181
1997,19.12933254
1998,8.334620667
1999,12.2971549
2000,16.55631199
2001,10.36187696
2002,8.109641933
2003,10.20726528
2004,22.34669419
2005,22.49356918
2006,16.97065964
2007,7.855463173
2008,9.447909735
2009,15.48905144
2010,19.45680389
2011,23.51362209
2012,26.18478355
2013,20.75586319
2014,18.03717766
2015,17.29338608
2016,19.54702663
2017,15.86578522
2018,10.12448506
2019,16.49512615
2020,19.24175129
2021,19.14472008
2022,14.62692146
2023,9.315659427
2024,4.923436355
2025,15.03381577
2026,19.74781074
2027,20.80473366
2028,23.20208778
2029,20.62156563
2030,15.32081032
2031,19.18771419
2032,19.47755699
2033,17.54581394
2034,19.28127327
2035,18.90441971
2036,17.16448841
2037,16.7635313
2038,17.23350391
2039,18.26462841
2040,18.93366871
2041,8.642897893
2042,-5.479298544
2043,8.586899948
2044,14.7421257
2045,15.48631401
2046,12.93803902
2047,8.184064375
2048,3.950369668
2049,10.66416159
2050,14.13893032
2051,15.81976719
2052,17.16408825
2053,16.23659382
2054,15.41340141
2055,19.72023392
2056,17.87652416
2057,14.42933455
2058,14.56407986
2059,14.79776421
2060,14.35922279
2061,11.79608994
2062,12.6502429
2063,13.53690405
2064,11.91620054
2065,8.336848008
2066,8.719338035
2067,18.31964683
2068,11.78975906
2069,8.038978481
2070,14.13075333
2071,13.11201105
2072,9.925980948
2073,4.91136775
2074,5.871885633
2075,-1.317062616
2076,-18.41369343
2077,-5.574175262
2078,4.655162323
2079,11.4493947
2080,3.42987709
2081,5.682003814
2082,14.65538635
2083,15.19971371
2084,15.22787933
2085,14.64425602
2086,12.46441813
2087,10.56800728
2088,7.178135253
2089,-1.687734485
2090,0.254513383
2091,5.456648636
2092,10.37267504
2093,14.4955864
2094,17.30183335
2095,18.12212181
2096,12.87630787
2097,9.114912414
2098,8.019925833
2099,8.134460544
2100,6.199271107
2101,3.024580055
2102,9.880155373
2103,10.0343607
2104,7.63783586
2105,16.14860592
2106,13.88283749
2107,7.633695889
2108,4.335385462
2109,-15.739925
2110,-25.6758873
2111,-4.212022448
2112,-0.203676534
2113,2.606693876
2114,7.427884579
2115,-2.766796231
2116,-3.045632554
2117,6.02606883
2118,6.440031814
2119,7.277712346
2120,8.450743342
2121,9.970366191
2122,5.145194817
2123,0.024378324
2124,0.854223204
2125,4.650474405
2126,4.775240135
2127,-2.148139143
2128,3.48674686
2129,8.502307701
2130,11.28897304
2131,0.747162986
2132,-0.62177118
2133,3.199999857
2134,3.200000071
2135,1.486645865
2136,-0.438543755
2137,-1.272718716
2138,-1.399999952
2139,-1.913235247
2140,-3.165944409
2141,-0.21934709
2142,0.751213288
2143,0.382233754
2144,4.146880638
2145,1.677068639
2146,-0.937194144
2147,6.182024479
2148,7.264439106
2149,6.071981717
2150,3.556412676
2151,3.793419695
2152,-0.544988401
2153,-8.089092398
2154,1.010652113
2155,1.65251311
2156,-2.114759282
2157,-5.338387561
2158,0.575920811
2159,5.489651483
2160,4.647733963
2161,-25.86127052
2162,-24.41828728
2163,4.411042762
2164,-3.882151139
2165,-1.021438843
2166,4.636546016
2167,2.384949031
2168,5.385250855
2169,7.972715759
2170,8.395377254
2171,-14.3265379
2172,-13.74262276
2173,2.294578838
2174,5.540591288
2175,6.192349624
2176,6.090126991
2177,6.372714413
2178,7.804968833
2179,7.770327282
2180,5.903141689
2181,1.940075517
2182,-3.149288368
2183,-5.206924719
2184,3.578548598
2185,1.672397351
2186,-0.478678703
2187,-0.136836553
2188,3.4118164
2189,3.157098144
2190,2.425637883
2191,9.531117153
2192,8.518470002
2193,3.959047293
2194,-2.870066988
2195,-3.977526152
2196,-0.297557622
2197,6.089998293
2198,8.940376855
2199,7.188782692
2200,5.77454896
2201,7.344061089
2202,5.472526121
2203,5.485367131
2204,7.010135602
2205,8.296498489
2206,7.288765048
2207,6.043066931
2208,5.613786245
2209,-4.516174073
2210,-3.928368354
2211,2.72302928
2212,-1.147161353
2213,1.801811421
2214,2.920736408
2215,-1.958438241
2216,-6.413297939
2217,-2.69591223
2218,4.243738794
2219,2.51870861
2220,1.61369624
2221,1.505654487
2222,1.937326455
2223,-5.550686073
2224,-15.8346344
2225,-20.4325325
2226,-4.285988677
2227,-2.199999905
2228,-8.980405139
2229,-19.56363735
2230,1.087542606
2231,1.946771646
2232,-3.753022003
2233,-6.644612947
2234,-0.366233552
2235,1.131238532
2236,-0.551907897
2237,1.910174537
2238,-5.377468491
2239,-10.08458061
2240,-7.825249672
2241,-3.618001115
2242,0.975790071
2243,4.772783983
2244,6.079978514
2245,3.296359181
2246,1.181160069
2247,-0.916136598
2248,-8.045320416
2249,-6.526575518
2250,-1.287370944
2251,5.457072925
2252,1.376252348
2253,2.609469321
2254,2.892598101
2255,-5.716119814
2256,-9.89430008
2257,-4.521621537
2258,5.257193756
2259,1.164683843
2260,0.043243218
2261,-1.373615581
2262,-4.549826002
2263,-14.06660605
2264,-38.41482773
2265,-42.8148262
2266,1.452174389
2267,-18.27435512
2268,-11.11046953
2269,3.685093796
2270,-9.23602972
2271,-1.795775843
2272,3.505293298
2273,4.016278267
2274,0.633374953
2275,-3.22955091
2276,-5.600453758
2277,-5.619927824
2278,-1.641885546
2279,3.099493337
2280,1.980519343
2281,-8.720933819
2282,-5.621599102
2283,-2.719071259
2284,-2.761167741
2285,-8.966913746
2286,-1.089622712
2287,2.380357766
2288,2.676250231
2289,2.972267962
2290,4.879071045
2291,3.741010284
2292,1.349985045
2293,4.018704891
2294,7.451638412
2295,2.174653149
2296,-8.008793641
2297,0.605127573
2298,3.531957436
2299,3.005454779
2300,0.694766843
2301,3.075084987
2302,-2.665551949
2303,-4.018904638
2304,2.613867605
2305,2.762891817
2306,-1.791168714
2307,-7.478200817
2308,-12.18967667
2309,-12.04039765
2310,-9.60325327
2311,-9.641901113
2312,-13.93757248
2313,-1.227196717
2314,2.293078279
2315,2.030281711
2316,1.63768208
2317,2.536416888
2318,3.223675251
2319,3.376700688
2320,2.771061842
2321,2.020837945
2322,0.316877067
2323,-0.326808882
2324,1.121998811
2325,-5.491232799
2326,-0.553255224
2327,2.415247727
2328,-4.771622586
2329,-0.405469725
2330,-3.125834757
2331,-5.026270997
2332,-1.412931359
2333,4.167171669
2334,2.011131734
2335,1.912746131
2336,6.814403343
2337,-3.7605331
2338,-7.711730337
2339,-7.247927093
2340,-3.787851167
2341,-0.458640206
2342,-3.68666966
2343,-2.627246386
2344,3.502293444
2345,2.895952189
2346,9.949500464
2347,3.679833913
2348,-12.31160774
2349,-13.83003998
2350,-31.94484749
2351,-24.34929962
2352,-4.874399948
2353,-11.41476269
2354,-5.211718464
2355,-3.745581734
2356,-3.519255495
2357,1.198235806
2358,-0.936011675
2359,2.498039889
2360,4.643636797
2361,0.38929036
2362,-5.718918037
2363,-4.074922675
2364,2.588734722
2365,8.123804475
2366,-12.37343836
2367,-11.33871841
2368,-5.013599825
2369,-0.344112188
2370,-4.634387015
2371,-4.439017105
2372,-10.84626141
2373,-12.66194592
2374,5.971534419
2375,-2.474856484
2376,-10.2782733
2377,-7.737617601
2378,7.214284182
2379,-2.784737241
2380,-0.990211458
2381,-1.290020281
2382,-4.333920526
2383,1.983842051
2384,3.852278024
2385,-2.789751372
2386,-7.329718137
2387,4.367681765
2388,1.896644366
2389,-0.242507267
2390,0.893408489
2391,4.028192687
2392,-8.038503934
2393,-26.59224091
2394,-20.05882378
2395,-1.437171654
2396,-11.81969061
2397,-6.52390871
2398,-11.2867157
2399,-16.92279091
2400,-15.30881062
2401,-10.18349981
2402,-3.297736096
2403,-4.499482632
2404,-9.281057519
2405,-0.257713079
2406,0.495532912
2407,-14.61260052
2408,-27.31823807
2409,-22.34880219
2410,-7.379968357
2411,-1.169953585
2412,-6.180274958
2413,-15.49012241
2414,-13.4596714
2415,-18.10219364
2416,-15.7112545
2417,-12.65768433
2418,-11.61274929
2419,0.284289134
2420,0.123438644
2421,-1.525751591
2422,-1.830462146
2423,0.128033772
2424,4.834792566
2425,-9.709693145
2426,-12.48485947
2427,1.12890569
2428,1.757530975
2429,-4.504715275
2430,-12.93151932
2431,-15.35156956
2432,-7.588102436
2433,-4.122898483
2434,-0.789860821
2435,0.782929993
2436,1.29507103
2437,2.193043232
2438,2.035180473
2439,-0.700523162
2440,-1.592524896
2441,-0.904516727
2442,-2.960184288
2443,-4.861828565
2444,-4.832836488
2445,-2.892655516
2446,0.011324906
2447,1.120704198
2448,2.672371352
2449,-0.187769735
2450,-3.393692255
2451,-4.639739752
2452,-10.35789981
2453,-8.601631164
2454,-7.900189304
2455,-9.145785332
2456,-10.92611961
2457,-6.787092686
2458,-10.98412266
2459,-11.759622
2460,-6.652641487
2461,1.16996665
2462,-14.14678268
2463,-19.95174923
2464,-11.47382507
2465,-1.070369637
2466,-3.773171616
2467,-1.054767323
2468,-5.529489374
2469,-6.041185952
2470,-1.931304312
2471,3.566467523
2472,7.893577911
2473,2.427979118
2474,-8.733864499
2475,-21.87389679
2476,-29.74648704
2477,-0.352824926
2478,-3.119395185
2479,-6.204647017
2480,-7.228694199
2481,-9.190688514
2482,-0.819759536
2483,-13.23750134
2484,-9.465808199
2485,-2.385497771
2486,-5.724426365
2487,-2.658999872
2488,-4.469044352
2489,-4.54433384
2490,-6.620893097
2491,-13.96439762
2492,-26.73850975
2493,-10.98196411
2494,-18.17956676
2495,-54.85913925
2496,-78.65595398
2497,-5.868127298
2498,-0.192961275
2499,-27.18951263
2500,-29.6175354
2501,-11.76384535
2502,-6.561364269
2503,0.263979578
2504,-1.886596572
2505,-9.06845684
2506,-10.92189188
2507,-3.343049324
2508,-3.017310929
2509,-5.005892849
2510,-8.181131459
2511,-16.51392364
2512,-21.97240391
2513,-7.147728157
2514,-15.4771225
2515,-7.385473347
2516,-5.510024214
2517,-10.53718042
2518,-14.73442249
2519,-12.93390121
2520,-13.4063797
2521,-7.020308208
2522,-1.089208832
2523,-0.179796997
2524,-3.081100225
2525,-4.886611748
2526,-7.507285023
2527,-10.70012989
2528,-10.28992615
2529,-4.251543939
2530,0.025479996
2531,-0.115751767
2532,-2.405637979
2533,-4.410865688
2534,-4.523100817
2535,-2.769434833
2536,-4.418995166
2537,-7.538733816
2538,-4.118172026
2539,-1.217813134
2540,-4.069101906
2541,-11.01560926
2542,-11.34643335
2543,-7.793667698
2544,-4.531746292
2545,-7.193938731
2546,-14.3235136
2547,-11.23180018
2548,-15.04678116
2549,-6.876036358
2550,-3.292874986
2551,-6.811838484
2552,-11.69669685
2553,-9.036940858
2554,-2.275335097
2555,-8.885687256
2556,-11.16540356
2557,-7.477679634
2558,-4.260095596
2559,-4.593481397
2560,-1.166004586
2561,-8.48355837
2562,-8.615673352
2563,-9.023515034
2564,-18.35244656
2565,-13.83934326
2566,-7.997493648
2567,-2.806913674
2568,0.506420255
2569,-0.102850544
2570,-4.58096028
2571,-8.168883133
2572,-6.49184475
2573,-3.566686928
2574,-11.12888203
2575,-13.9653883
2576,-5.121886444
2577,-3.415899086
2578,-16.53273983
2579,-14.23450928
2580,-8.653158664
2581,-16.5496357
2582,-26.3342247
2583,-10.47039814
2584,-7.772379112
2585,-37.92429123
2586,-18.75368919
2587,-8.066292095
2588,-10.88977108
2589,-7.212619495
2590,-17.22633667
2591,-18.91814785
2592,-7.914150523
2593,-4.193665123
2594,-4.281644726
2595,-3.298606491
2596,-4.015036106
2597,-7.747214126
2598,-6.417593479
2599,-10.22557836
2600,-9.270335174
2601,-9.805581951
2602,-14.41408196
2603,-0.984932279
2604,-4.899565983
2605,-4.954426396
2606,-4.086697197
2607,-9.137835028
2608,-9.1192111
2609,4.231509876
2610,-11.17165861
2611,-6.731908847
2612,-6.428061104
2613,-10.80326233
2614,-8.670599174
2615,-5.519067144
2616,-14.72545109
2617,-5.308044887
2618,-5.877413392
2619,-7.407487917
2620,-14.28443432
2621,-14.0060648
2622,-7.90804367
2623,-12.88741054
2624,-26.11491356
2625,-11.17192507
2626,-8.600000024
2627,-5.845628285
2628,-8.925857925
2629,-18.96703873
2630,-23.33307075
2631,-4.00962376
2632,-23.15053901
2633,-15.24568176
2634,-9.65995903
2635,-9.245384408
2636,-16.06868725
2637,-24.59834022
2638,-11.53778591
2639,-10.67276964
2640,-5.526871538
2641,-4.59511137
2642,-4.695048332
2643,-5.852464295
2644,-12.08993015
2645,-22.36103363
2646,-8.302116203
2647,-6.648403978
2648,-8.592094518
2649,-8.68E+00
2650,-7.91842165
2651,-20.76085816
2652,-41.70724869
2653,-23.06968765
2654,-12.96458759
2655,-8.943807793
2656,-10.7015646
2657,-7.261938691
2658,-4.768086004
2659,-8.693722772
2660,-14.59999981
2661,-14.32030258
2662,-10.29791822
2663,-8.865854358
2664,-9.559528541
2665,-8.877886581
2666,-3.628586722
2667,-5.589897347
2668,-19.60880031
2669,-9.196935461
2670,-16.92105503
2671,-16.74099293
2672,-29.94468727
2673,-19.78720169
2674,-9.045067311
2675,-8.778256988
2676,-8.0806921
2677,-11.7478466
2678,-4.346963978
2679,-6.100858784
2680,-23.40788574
2681,-21.15770569
2682,-11.69824676
2683,-6.884617615
2684,-6.622246552
2685,-7.26472044
2686,-7.636965704
2687,-8.34485116
2688,-18.19630699
2689,-16.74924545
2690,-6.847675896
2691,-6.506872559
2692,-8.187452651
2693,-6.128234196
2694,-23.18105698
2695,-21.62971993
2696,-15.58679791
2697,-16.28448296
2698,-17.84616623
2699,-14.09138489
2700,-7.691841412
2701,-11.84860782
2702,-24.58180847
2703,-17.30308647
2704,7.128050328
2705,-8.579645443
2706,-6.340942621
2707,-16.92748146
2708,-19.56791649
2709,-16.58242798
2710,-20.23305817
2711,-22.9219223
2712,-116.52724
2713,-524.9146729
2714,-37.5016098
2715,-14.26434746
2716,-11.31340237
2717,-13.29081287
2718,-10.7403492
2719,-13.92574902
2720,-17.57255821
2721,-11.64811954
2722,-54.53173523
2723,-260.5243561
2724,-49.05755081
2725,-12.91004162
2726,-16.77997856
2727,-14.75397091
2728,-13.29121666
2729,-14.56610527
2730,-18.91483078
2731,-21.51435852
2732,-13.68612099
2733,-13.14340839
2734,-12.60043697
2735,-11.51435394
2736,-35.71709175
2737,-38.81928253
2738,-16.34834671
2739,-7.964497472
2740,-12.08766975
2741,-14.83246078
2742,-15.62067013
2743,-5.397530294
2744,-15.20546951
2745,-10.29269447
2746,-8.771069812
2747,-26.76505623
2748,-20.47677689
2749,-19.3321785
2750,-21.52305565
2751,-20.44743824
2752,-23.67383156
2753,-26.38255234
2754,-22.37865067
2755,-64.15417099
2756,-15.96870556
2757,-14.50455856
2758,-14.5700386
2759,-11.38207054
2760,-12.85734272
2761,-18.07630882
2762,-19.45642395
2763,-14.02875786
2764,-10.50452805
2765,-17.25582123
2766,-23.79148712
2767,-13.19107265
2768,-3.776225901
2769,-15.37360096
2770,-8.507921219
2771,-9.302005387
2772,-14.37137337
2773,-18.87328682
2774,-16.48586559
2775,-14.46100025
2776,-16.81748944
2777,-16.68696708
2778,-11.78286591
2779,-9.015017319
2780,-9.268315317
2781,-3.42447443
2782,-16.39217739
2783,-8.873519611
2784,-12.82504444
2785,-6.028322315
2786,-3.599717164
2787,-4.751555634
2788,-6.552139473
2789,-9.412512685
2790,-12.28941383
2791,-12.27197933
2792,-10.23941994
2793,-11.74028626
2794,-12.12167969
2795,-9.862700464
2796,-11.35487633
2797,-14.11464538
2798,-15.57378807
2799,-9.775181961
2800,-13.23076382
2801,-12.96130219
2802,-11.13830338
2803,-11.92845707
2804,-11.02349625
2805,-18.94299469
2806,-27.51594582
2807,-13.97265034
2808,-20.61027336
2809,-14.22449894
2810,-18.68152924
2811,-10.16226845
2812,-19.74984055
2813,-15.0015028
2814,-20.26024876
2815,-18.44160729
2816,-14.28647652
2817,-10.48212395
2818,-8.231474876
2819,-9.903780365
2820,-11.30782776
2821,-15.68642578
2822,-17.50577316
2823,-9.548182677
2824,-10.26274872
2825,-14.80003338
2826,-13.36240082
2827,-23.97927437
2828,-20.46060429
2829,-18.22128048
2830,-21.63523121
2831,-15.11765461
2832,-19.68410358
2833,-22.84559097
2834,-20.39125595
2835,-24.6010376
2836,-17.25207233
2837,-9.051084136
2838,-9.453539468
2839,-14.6649828
2840,-14.55792255
2841,-10.7999999
2842,-16.65492172
2843,-20.42546158
2844,-11.35009384
2845,-22.83464661
2846,-28.53254929
2847,-25.92666626
2848,-17.75395031
2849,-20.57915611
2850,-17.05894699
2851,-9.968259429
2852,-17.10038509
2853,-18.67412624
2854,-9.739770891
2855,-16.18549595
2856,-15.67371101
2857,-32.82301788
2858,-28.17123795
2859,-14.68755321
2860,-12.44107704
2861,-18.36679154
2862,-15.23243351
2863,-22.41092262
2864,-27.51855545
2865,-15.24822693
2866,-10.54841662
2867,-11.53073654
2868,-8.449044132
2869,-7.457980156
2870,-8.469432544
2871,-8.607679272
2872,-18.22588138
2873,-20.95958366
2874,-8.711436175
2875,-11.10875797
2876,-30.37639847
2877,-3.197543728
2878,-6.540314293
2879,-11.20287933
2880,-14.50806236
2881,-20.27334099
2882,-12.51598034
2883,-13.58441048
2884,-25.4078476
2885,-17.27862091
2886,-22.41603889
2887,-12.44660568
2888,-13.69702072
2889,-10.83467055
2890,-11.41818409
2891,-18.48415146
2892,-17.27811909
2893,-17.88756428
2894,-19.32670937
2895,-27.00071335
2896,-22.31417084
2897,-16.60256138
2898,-14.42929039
2899,-19.59012871
2900,-17.92883568
2901,-12.49890575
2902,-14.79303551
2903,-17.88876438
2904,-29.83545952
2905,-27.72456856
2906,-11.61891003
2907,-14.70618534
2908,-20.50616684
2909,-22.44520264
2910,-19.69161873
2911,-19.22050476
2912,-20.13528328
2913,-16.87390537
2914,-14.39209061
2915,-19.92728882
2916,-10.09499264
2917,-18.4363802
2918,-26.2581562
2919,-15.87932301
2920,-25.5349144
2921,-21.19229126
2922,-12.24868069
2923,-13.01532402
2924,-16.47470627
2925,-20.18671417
2926,-14.55167809
2927,-10.94586601
2928,-16.8525589
2929,-17.88269177
2930,-16.81623764
2931,-12.04243832
2932,-14.9573576
2933,-15.29789295
2934,-9.118003941
2935,-5.161881924
2936,-17.4389286
2937,-18.0678379
2938,-20.23486977
2939,-19.19037209
2940,-10.88070488
2941,-10.07818584
2942,-10.3092186
2943,-15.49528427
2944,-13.26441364
2945,-15.00000019
2946,-15.57271347
2947,-18.45737324
2948,-20.28888321
2949,-14.74477463
2950,-11.44302883
2951,-17.93607674
2952,-13.88401317
2953,-16.6684082
2954,-20.06229439
2955,-22.81349029
2956,-18.80835495
2957,-30.19158592
2958,-20.26402664
2959,-18.52050247
2960,-18.54582024
2961,-16.25342026
2962,-15.59544105
2963,-8
2964,-7.131871129
2965,-13.1647646
2966,-19.55782471
2967,-15.20734768
2968,-18.64120369
2969,-16.25301056
2970,-11.88962364
2971,-22.84964943
2972,-23.2271553
2973,-14.4
2974,-21.15944252
2975,-27.0995945
2976,-20.48198395
2977,-18.79503784
2978,-20.34190826
2979,-18.19896793
2980,-14.30489197
2981,-11.29088421
2982,-17.36633911
2983,-13.72534561
2984,-12.42696991
2985,-10.98277245
2986,-13.43572426
2987,-12.9680233
2988,-15.45933895
2989,-13.79044418
2990,-19.62204857
2991,-21.93795662
2992,-20.40394363
2993,-33.54141846
2994,-31.39999924
2995,-29.75859909
2996,-13.03210888
2997,-19.78654823
2998,-32.56775703
2999,-35.10751419
3000,-16.15739022
