Frequency,Density
0,136.1666667
1,136.1666667
2,136.1666667
3,136.1666667
4,136.1666667
5,136.1666667
6,136.1666667
7,136.1666667
8,136.1666667
9,136.1666667
10,136.1666667
11,136.1666667
12,136.1666667
13,136.1666667
14,136.1666667
15,136.1666667
16,136.1666667
17,136.1666667
18,136.1666667
19,136.1666667
20,136.1666667
21,136.1666667
22,136.1666667
23,136.1666667
24,136.1666667
25,136.1666667
26,136.1666667
27,136.1666667
28,136.1666667
29,136.1666667
30,136.1666667
31,136.1666667
32,136.1666667
33,136.1666667
34,136.1666667
35,136.1666667
36,136.1666667
37,136.1666667
38,136.1666667
39,136.1666667
40,136.1666667
41,136.1666667
42,136.1666667
43,136.1666667
44,136.1666667
45,136.1666667
46,136.1666667
47,136.1666667
48,136.1666667
49,136.1666667
50,136.1666667
51,136.1666667
52,136.1666667
53,136.1666667
54,136.1666667
55,136.1666667
56,136.1666667
57,136.1666667
58,136.1666667
59,136.1666667
60,136.1666667
61,136.1666667
62,136.1666667
63,136.1666667
64,136.1666667
65,136.1666667
66,136.1666667
67,136.1666667
68,136.1666667
69,136.1666667
70,136.1666667
71,136.1666667
72,136.1666667
73,136.1666667
74,136.1666667
75,136.1666667
76,136.1666667
77,136.1666667
78,136.1666667
79,136.1666667
80,136.1666667
81,136.1666667
82,136.1666667
83,136.1666667
84,136.1666667
85,136.1666667
86,136.1666667
87,136.1666667
88,136.1666667
89,136.1666667
90,136.1666667
91,136.1666667
92,136.1666667
93,136.1666667
94,136.1666667
95,136.1666667
96,136.1666667
97,136.1666667
98,136.1666667
99,136.1666667
100,136.1666667
101,136.1666667
102,136.1666667
103,136.1666667
104,136.1666667
105,136.1666667
106,136.1666667
107,136.1666667
108,136.1666667
109,136.1666667
110,136.1666667
111,136.1666667
112,136.1666667
113,136.1666667
114,136.1666667
115,136.1666667
116,136.1666667
117,136.1666667
118,136.1666667
119,136.1666667
120,136.1666667
121,136.1666667
122,136.1666667
123,136.1666667
124,136.1666667
125,136.1666667
126,136.1666667
127,136.1666667
128,136.1666667
129,136.1666667
130,136.1666667
131,136.1666667
132,136.1666667
133,136.1666667
134,136.1666667
135,136.1666667
136,136.1666667
137,136.1666667
138,136.1666667
139,136.1666667
140,136.1666667
141,136.1666667
142,136.1666667
143,136.1666667
144,136.1666667
145,136.1666667
146,136.1666667
147,136.1666667
148,136.1666667
149,136.1666667
150,136.1666667
151,136.1666667
152,136.1666667
153,136.1666667
154,136.1666667
155,136.1666667
156,136.1666667
157,136.1666667
158,136.1666667
159,136.1666667
160,136.1666667
161,136.1666667
162,136.1666667
163,136.1666667
164,136.1666667
165,136.1666667
166,136.1666667
167,136.1666667
168,136.1666667
169,136.1666667
170,136.1666667
171,136.1666667
172,136.1666667
173,136.1666667
174,136.1666667
175,136.1666667
176,136.1666667
177,136.1666667
178,136.1666667
179,136.1666667
180,136.1666667
181,136.1666667
182,136.1666667
183,136.1666667
184,136.1666667
185,136.1666667
186,136.1666667
187,136.1666667
188,136.1666667
189,136.1666667
190,136.1666667
191,136.1666667
192,136.1666667
193,136.1666667
194,136.1666667
195,136.1666667
196,136.1666667
197,136.1666667
198,136.1666667
199,157.3727773
200,231.5814031
201,305.7900391
202,329.1495768
203,331.0220286
204,332.2893829
205,329.1883392
206,326.0872854
207,327.8893687
208,333.8365377
209,339.7837016
210,334.2034403
211,328.1880951
212,324.950704
213,326.1156413
214,327.2805938
215,328.0256043
216,328.673172
217,329.9375305
218,333.177297
219,336.4170481
220,339.2696228
221,341.9277903
222,344.1175486
223,341.847051
224,339.5765483
225,338.3293406
226,338.0047862
227,337.6802419
228,336.7954203
229,335.8861542
230,333.702891
231,329.5437876
232,325.3846893
233,325.0970561
234,325.6172486
235,325.6733907
236,324.4371999
237,323.2010142
238,321.7356211
239,320.1732076
240,318.7498322
241,318.1635793
242,317.5773315
243,316.9147797
244,316.1978251
245,315.4425914
246,313.2904714
247,311.1383565
248,309.1085968
249,307.2162323
250,305.3238627
251,303.1909994
252,301.0363515
253,298.9526393
254,296.9927165
255,295.0327937
256,296.6335093
257,299.0521724
258,300.5919749
259,299.6762746
260,298.760554
261,298.4531759
262,298.3877309
263,298.3775533
264,298.6394959
265,298.9014384
266,299.6130168
267,300.5958659
268,301.5735067
269,302.4913737
270,303.4092407
271,301.5394643
272,297.2754364
273,293.0114136
274,295.2257538
275,297.457484
276,297.4328766
277,294.7400818
278,292.0472997
279,293.8296483
280,295.9982859
281,297.8388342
282,299.1539383
283,300.469045
284,303.1824595
285,306.1431783
286,307.9374339
287,307.2132772
288,306.4891154
289,304.6789144
290,302.5710297
291,302.2253978
292,307.0368347
293,311.8482717
294,316.5181173
295,321.1345317
296,324.2168528
297,321.1154327
298,318.0140228
299,313.9781494
300,309.4883474
301,306.2958577
302,310.5240428
303,314.7522176
304,318.0301107
305,320.740392
306,323.2567698
307,324.116628
308,324.9764913
309,324.4041341
310,322.8157654
311,321.0506439
312,316.8124898
313,312.5743357
314,306.5859172
315,299.1647746
316,291.9816793
317,291.4512812
318,290.9208908
319,293.5681585
320,299.1405818
321,304.6611481
322,303.9973755
323,303.3336029
324,301.2820994
325,297.8284404
326,294.3747838
327,294.6616262
328,294.9939041
329,294.4963176
330,293.0999324
331,291.7035395
332,293.2860896
333,294.9494349
334,296.2076899
335,297.0065689
336,297.8054454
337,299.5690816
338,301.3676147
339,299.9259898
340,294.7271703
341,289.5283458
342,290.3603618
343,291.427414
344,291.7835439
345,291.3164317
346,290.8493195
347,293.6706492
348,296.6085129
349,297.5705338
350,296.3011704
351,295.0317942
352,294.6089554
353,294.2078629
354,294.3544515
355,295.09021
356,295.8259786
357,291.8578491
358,287.8422318
359,285.3648199
360,284.4272843
361,283.5344086
362,286.6837031
363,289.8329798
364,291.5088552
365,291.8440831
366,292.0477499
367,288.8947474
368,285.741745
369,251.3152008
370,191.6414007
371,140.6328748
372,204.1030655
373,267.5732549
374,293.5479406
375,293.3463313
376,292.6176122
377,287.574351
378,282.5310872
379,280.2001622
380,279.46005
381,279.0293172
382,280.3084513
383,281.587588
384,279.4439494
385,275.6716436
386,273.1876551
387,275.7489421
388,278.3102239
389,277.669454
390,275.8485311
391,275.3053182
392,278.4094772
393,281.513649
394,281.1003266
395,279.7498932
396,279.9186503
397,283.2967224
398,286.6747945
399,288.6106161
400,290.300649
401,290.5703532
402,288.6087621
403,286.6471711
404,288.6285146
405,290.9296723
406,292.4172033
407,292.9589717
408,293.511762
409,302.1174011
410,310.723053
411,317.4581909
412,322.6110637
413,327.1916097
414,325.4955851
415,323.7995606
416,321.5071971
417,318.8598429
418,315.2683512
419,307.1178233
420,298.9672902
421,292.1303228
422,285.8099315
423,281.4914678
424,282.7154846
425,283.9395066
426,284.5545705
427,285.0308507
428,285.8302282
429,287.1918691
430,288.5534973
431,285.7310537
432,282.5293274
433,280.5768916
434,280.0315984
435,279.5068588
436,279.7796606
437,280.0524674
438,279.452474
439,278.2241109
440,277.2996826
441,278.2556407
442,279.2115911
443,277.8301188
444,275.4388123
445,274.2684936
446,276.5928472
447,278.9172033
448,274.5037867
449,268.6210581
450,265.1052552
451,265.3790359
452,265.6528092
453,268.3974279
454,271.2737884
455,272.5959778
456,272.4589335
457,271.8406855
458,265.9440486
459,260.0474167
460,259.1196187
461,260.8347677
462,261.5684382
463,258.8912227
464,256.2140121
465,257.1967061
466,259.1199468
467,261.1704381
468,263.4384486
469,265.7064641
470,262.1328125
471,258.2130203
472,256.9063314
473,258.007281
474,259.0879771
475,259.9830195
476,260.8780619
477,259.76636
478,257.6996511
479,255.5080211
480,252.957578
481,250.4071376
482,253.7674866
483,258.250646
484,260.8625844
485,260.9316025
486,260.9822006
487,258.97966
488,256.977122
489,256.1666667
490,256.1666641
491,256.7236786
492,259.7656149
493,262.8075384
494,262.5917104
495,261.4157257
496,261.0435893
497,262.0818303
498,263.1200841
499,261.2483164
500,259.2398529
501,259.9682236
502,262.948054
503,265.17143
504,262.8832347
505,260.5950292
506,258.7678833
507,257.1027603
508,255.9296672
509,255.7213974
510,255.5131353
511,257.8429362
512,260.3435872
513,261.612086
514,261.8205948
515,261.2330958
516,255.7390823
517,250.2450689
518,252.142451
519,256.5959295
520,258.5310415
521,255.7459717
522,252.9609019
523,257.486702
524,262.3634491
525,262.8549093
526,259.9271215
527,257.3687999
528,256.6015396
529,255.8342896
530,259.5938365
531,264.6188253
532,267.1171316
533,265.7204768
534,264.3204829
535,262.4338811
536,260.5472768
537,258.1385015
538,255.4117941
539,253.6160609
540,254.8053335
541,255.9945984
542,254.5501658
543,252.6602148
544,252.9290161
545,255.5905202
546,258.1990814
547,260.3015086
548,262.4039383
549,262.6985474
550,262.2778092
551,260.3792699
552,255.6081213
553,250.8369802
554,252.5622457
555,254.5279999
556,254.4625015
557,252.98732
558,250.8232498
559,246.1842118
560,241.5451686
561,245.2987035
562,250.5734634
563,251.9577179
564,249.0724792
565,246.5839615
566,247.3585052
567,248.1330541
568,251.1018957
569,254.8360113
570,255.1529745
571,249.7952296
572,244.4983495
573,244.3572744
574,244.2162018
575,244.7620494
576,245.6795909
577,246.2724203
578,246.0605545
579,245.8486888
580,243.6704509
581,241.3385493
582,241.7814814
583,244.3268763
584,245.5993347
585,242.1327159
586,238.666097
587,242.8927383
588,248.4142964
589,249.1063054
590,244.9981028
591,241.3210755
592,240.1162287
593,238.9113897
594,241.2096583
595,244.4008357
596,245.1207936
597,242.779218
598,240.4722265
599,238.484258
600,236.4962845
601,238.3987732
602,241.5956116
603,242.5228984
604,240.1060791
605,237.7824504
606,236.92895
607,236.0754496
608,236.6999741
609,237.909818
610,238.4000473
611,237.6879476
612,237.0869725
613,239.6520284
614,242.2170817
615,244.4364599
616,246.5039749
617,247.9352086
618,248.2205505
619,248.4513346
620,246.0958532
621,243.7403717
622,243.5386861
623,244.3243103
624,243.6759466
625,240.3886668
626,237.1524659
627,236.4374161
628,235.7223638
629,237.225413
630,239.7295761
631,241.2303696
632,240.9440104
633,240.7681401
634,243.9915848
635,247.2150269
636,252.5614344
637,258.7971166
638,260.1086375
639,253.3672384
640,247.0836385
641,248.5905889
642,250.0975342
643,247.6582133
644,243.7809067
645,241.5887426
646,241.8042755
647,241.9141159
648,240.9795812
649,240.0450465
650,239.6108017
651,239.3230769
652,238.4768931
653,236.9654795
654,235.9908295
655,238.2953034
656,240.5997823
657,243.5603663
658,246.658844
659,246.5380682
660,243.365654
661,240.4839884
662,238.7525584
663,237.0211283
664,235.9323425
665,234.9217453
666,235.3417206
667,236.7862879
668,236.8985926
669,233.5018412
670,230.1050924
671,235.7463023
672,241.6760534
673,242.0323944
674,239.5722631
675,237.6341884
676,236.6205851
677,235.6325455
678,235.053004
679,234.4734624
680,232.5196864
681,230.1276576
682,229.0330353
683,229.4682032
684,230.5458654
685,234.9727325
686,239.3995997
687,240.5648931
688,241.2184245
689,240.7556407
690,239.4478048
691,237.6794383
692,234.6987127
693,231.717982
694,233.8114141
695,235.9937261
696,232.8909963
697,227.431989
698,225.6885351
699,229.4756953
700,232.8663915
701,233.1578903
702,233.4493815
703,232.2949219
704,230.8365962
705,229.4961319
706,228.2558161
707,227.6326472
708,228.8006922
709,229.9687398
710,229.0758133
711,228.1262131
712,228.1366145
713,228.5751546
714,228.863411
715,228.9365413
716,229.8229497
717,236.0429255
718,242.2628988
719,240.6634369
720,237.7346548
721,234.974378
722,232.3369141
723,230.0772324
724,228.6844152
725,227.326739
726,227.106692
727,226.8866374
728,225.4985886
729,223.737147
730,223.2981517
731,224.2528382
732,225.2555568
733,226.4312414
734,227.6069311
735,226.8292084
736,225.9469172
737,224.8634745
738,223.6863912
739,223.2148031
740,223.7300797
741,223.7054621
742,220.6856104
743,217.6657613
744,221.3340709
745,225.8296839
746,226.7585017
747,225.5786209
748,224.9692256
749,225.3381551
750,226.2166672
751,231.2370962
752,236.2575226
753,232.8454056
754,227.9697495
755,224.5021235
756,221.9889348
757,220.9390513
758,222.7141241
759,224.3203405
760,224.1723302
761,224.0243174
762,229.7551753
763,236.6417338
764,236.7261937
765,231.9842428
766,225.7986069
767,216.7538986
768,209.2134501
769,217.3733521
770,225.533254
771,224.2125727
772,221.0951258
773,219.9659576
774,220.1887665
775,220.8813324
776,222.4419072
777,224.010643
778,225.6464996
779,227.2823588
780,224.5328827
781,221.1104253
782,221.9333038
783,225.2833532
784,225.6567078
785,221.3363088
786,217.6554362
787,217.5809046
788,217.5063706
789,214.0217133
790,210.2182363
791,210.5216319
792,212.7603022
793,215.0661977
794,217.4555308
795,219.6692225
796,221.2381516
797,222.8070755
798,219.1581192
799,215.4203593
800,217.7701238
801,222.1084951
802,223.8519669
803,223.2532171
804,221.8042297
805,218.3593674
806,215.325737
807,217.498792
808,219.6718394
809,219.6817296
810,219.306839
811,219.3545481
812,219.65463
813,221.3212484
814,224.9995016
815,226.9758555
816,221.4176458
817,215.8594411
818,218.3509751
819,221.1317291
820,218.0661494
821,213.0277456
822,212.7858073
823,216.7737859
824,218.833018
825,216.7249171
826,215.444603
827,221.3959961
828,227.3473918
829,221.7584814
830,214.7482478
831,213.5246913
832,215.0331624
833,215.1600495
834,213.7261505
835,213.3567861
836,215.9997508
837,218.1205724
838,211.0936762
839,204.0667801
840,209.6690293
841,217.5317281
842,215.7074789
843,208.5209376
844,206.0337245
845,209.5155869
846,212.1305237
847,211.9790497
848,211.8794378
849,213.0919596
850,214.3044815
851,218.6340307
852,223.562823
853,220.5201747
854,213.0087891
855,210.0134099
856,212.6705246
857,214.1186702
858,211.9157512
859,209.8291728
860,209.7531637
861,209.6771571
862,212.5510178
863,215.8973516
864,214.80601
865,211.5337855
866,209.6138865
867,209.1570257
868,209.7216441
869,212.7691829
870,215.3415426
871,213.8168666
872,212.2921906
873,210.1366857
874,207.9245936
875,208.1721954
876,209.3170624
877,210.4203695
878,211.4895427
879,212.026563
880,211.6444855
881,210.7940166
882,207.8885168
883,205.0205714
884,208.5398433
885,212.0591151
886,209.3731995
887,205.3925298
888,207.4861069
889,212.8478877
890,213.0858078
891,207.6442057
892,204.2010396
893,205.4280472
894,206.6939316
895,208.2286047
896,209.7632701
897,213.2772013
898,216.8858108
899,213.0312068
900,207.11571
901,207.1939036
902,211.0374146
903,213.0637461
904,212.8330027
905,211.5924886
906,207.7444051
907,204.2371369
908,203.3900553
909,202.5429764
910,202.2074229
911,201.8992106
912,203.7125422
913,206.1026077
914,208.7344564
915,211.5116628
916,214.5045828
917,217.7465846
918,219.4818624
919,217.7826665
920,215.1400553
921,207.0254161
922,198.9107742
923,198.9865138
924,199.1411692
925,202.9791489
926,207.5442225
927,206.7325541
928,203.4034933
929,202.8156332
930,204.6748174
931,205.5996348
932,204.979538
933,205.7657725
934,211.3499654
935,216.1259206
936,211.3144532
937,206.5029857
938,205.8777771
939,205.5671718
940,200.8721288
941,194.9671885
942,194.5214005
943,197.16465
944,199.0773621
945,200.2441941
946,200.3145472
947,198.3686676
948,196.8333334
949,196.8333308
950,196.5014674
951,191.8258057
952,187.1501414
953,194.9747035
954,203.7077916
955,201.9654897
956,197.5183233
957,197.5938212
958,200.0138906
959,201.1666692
960,201.1666667
961,200.0083288
962,197.0382691
963,194.1684799
964,191.5876821
965,189.2343547
966,188.4518255
967,187.6693039
968,189.7736257
969,191.8877004
970,192.3706868
971,192.6057231
972,191.8537394
973,190.756251
974,192.8885956
975,197.0458476
976,199.7049128
977,200.8037084
978,200.147939
979,196.4569346
980,193.5132573
981,192.8846283
982,192.0528335
983,189.7726924
984,187.5095012
985,190.4203669
986,193.3312403
987,186.9804688
988,179.4234543
989,182.8657939
990,189.6396434
991,188.7135849
992,183.6695811
993,185.0587082
994,191.9983317
995,194.2629013
996,190.1597773
997,187.1368027
998,186.5051778
999,187.043808
1000,192.2578176
1001,196.4849752
1002,190.7935842
1003,185.1021983
1004,185.6213888
1005,186.2541428
1006,187.6488266
1007,189.152509
1008,187.6733551
1009,185.2977066
1010,186.3946482
1011,189.2471161
1012,189.0328445
1013,186.4165268
1014,185.8367132
1015,187.661293
1016,187.21521
1017,182.6907425
1018,179.1489487
1019,178.434138
1020,178.3657049
1021,181.7034836
1022,184.8927816
1023,185.8470027
1024,186.8012187
1025,187.8328781
1026,188.8672282
1027,188.9306056
1028,188.8509929
1029,187.1596146
1030,185.0087865
1031,185.098793
1032,186.2147013
1033,183.3924306
1034,177.8893356
1035,178.1503499
1036,184.0557302
1037,185.4034881
1038,180.3729401
1039,176.9736735
1040,176.8937759
1041,177.3783951
1042,179.6168518
1043,181.3349406
1044,180.2950363
1045,179.2490692
1046,178.1285095
1047,177.0079498
1048,180.3398158
1049,183.7034912
1050,186.6305644
1051,189.5154368
1052,185.3966879
1053,179.8640722
1054,177.4723562
1055,176.1084366
1056,177.7834473
1057,180.9142939
1058,181.8774974
1059,181.3955409
1060,180.1959432
1061,178.3473511
1062,177.2607168
1063,177.0998713
1064,177.091507
1065,177.3329137
1066,177.0290095
1067,175.4991786
1068,175.5217743
1069,180.5168127
1070,183.861908
1071,179.1057358
1072,174.956398
1073,176.1663157
1074,177.3476385
1075,177.7511826
1076,178.1547292
1077,167.9004415
1078,157.3212827
1079,163.7324855
1080,171.8937861
1081,172.7572098
1082,172.2720922
1083,177.4855321
1084,184.2812297
1085,184.5289408
1086,182.2623622
1087,180.4249191
1088,178.8049698
1089,176.3004405
1090,173.2207082
1091,172.3235169
1092,173.2155482
1093,174.3484853
1094,175.7278977
1095,174.4267629
1096,169.7177276
1097,167.1481145
1098,167.9605001
1099,169.6467972
1100,173.0608444
1101,174.6406505
1102,171.6312485
1103,169.3525747
1104,169.4339574
1105,169.9758606
1106,172.5002518
1107,174.1004893
1108,170.1079534
1109,166.6177979
1110,167.8407364
1111,169.3015391
1112,175.0935339
1113,180.7811076
1114,174.9856695
1115,169.1902263
1116,173.265653
1117,177.6760712
1118,175.7283732
1119,173.27668
1120,170.6786118
1121,168.0619202
1122,168.013972
1123,168.4230754
1124,175.0145238
1125,183.037679
1126,177.9662908
1127,169.119189
1128,165.9822947
1129,164.8347651
1130,165.0808894
1131,165.9010391
1132,165.3343811
1133,164.1034266
1134,163.9315567
1135,164.3421224
1136,165.5113424
1137,167.1545741
1138,167.8815867
1139,167.963796
1140,169.1968842
1141,171.3356222
1142,170.4451192
1143,166.9058609
1144,167.5542094
1145,172.2485733
1146,171.2702128
1147,164.2656835
1148,162.5207113
1149,166.8908386
1150,167.0406265
1151,161.8428574
1152,160.3625386
1153,163.9948883
1154,165.7348811
1155,164.6610438
1156,163.1421687
1157,160.9105759
1158,159.8651149
1159,160.8575262
1160,162.2294617
1161,164.2982076
1162,165.8908946
1163,166.5532837
1164,166.1907171
1165,163.7052663
1166,162.9888255
1167,166.1389364
1168,167.9055201
1169,166.4954249
1170,164.7677841
1171,162.2778956
1172,160.7849732
1173,161.781517
1174,162.7550481
1175,163.6690903
1176,163.5607478
1177,160.7338358
1178,158.756101
1179,159.0888748
1180,159.9519424
1181,162.2827657
1182,163.8026581
1183,163.0530243
1184,161.9535268
1185,159.8699595
1186,157.6547292
1187,155.0695725
1188,154.7301687
1189,160.6545334
1190,163.6426773
1191,158.5497081
1192,154.5623652
1193,153.5598755
1194,154.3289719
1195,159.7623673
1196,161.9954249
1197,156.0569534
1198,152.292511
1199,153.8826243
1200,154.9004186
1201,154.5654602
1202,153.6644999
1203,151.4859645
1204,150.1599185
1205,150.6629537
1206,152.7716624
1207,158.1405868
1208,160.6870677
1209,157.8331324
1210,157.9226685
1211,163.2979838
1212,164.6588364
1213,159.2803218
1214,154.9174729
1215,152.1425285
1216,151.7704303
1217,154.8835882
1218,156.8465144
1219,157.2674586
1220,157.6131134
1221,157.8658295
1222,157.6836828
1223,157.0093664
1224,156.1274694
1225,155.0310542
1226,153.7167257
1227,152.1977094
1228,153.0522817
1229,155.9232407
1230,155.586057
1231,152.7978821
1232,153.2241338
1233,155.8448919
1234,155.1473643
1235,152.4404551
1236,151.1133601
1237,150.520874
1238,154.3273544
1239,160.1710612
1240,163.227979
1241,165.177035
1242,167.253952
1243,169.3737564
1244,160.5305201
1245,148.6525421
1246,148.0986989
1247,150.0512428
1248,153.0221786
1249,156.1650925
1250,156.2721863
1251,156.0172094
1252,150.8451144
1253,145.3172061
1254,146.1600011
1255,147.2282359
1256,151.5706787
1257,155.5071017
1258,152.6956177
1259,150.5093371
1260,153.919225
1261,156.4364726
1262,153.7069397
1263,151.6634064
1264,152.516894
1265,152.7589951
1266,151.0510076
1267,149.8088048
1268,149.7233518
1269,149.6091029
1270,149.4381002
1271,150.0623271
1272,151.9444682
1273,153.6767197
1274,155.21757
1275,154.0606664
1276,150.1205979
1277,150.2064502
1278,153.6346296
1279,154.6903928
1280,154.1758601
1281,151.289004
1282,147.1702881
1283,145.6312269
1284,145.1160825
1285,149.5254148
1286,155.3672053
1287,151.3830312
1288,145.4518089
1289,152.2293752
1290,160.4864248
1291,153.9903005
1292,147.0202675
1293,147.967514
1294,149.2036743
1295,153.5118943
1296,154.8913218
1297,139.8897985
1298,130.1273308
1299,139.0990893
1300,145.4752655
1301,145.3889478
1302,146.6543999
1303,150.3682887
1304,151.064148
1305,147.6937332
1306,144.150247
1307,140.4319407
1308,141.7434896
1309,146.8483887
1310,149.1125755
1311,149.8051745
1312,148.8170751
1313,147.171168
1314,143.8711993
1315,140.1440392
1316,140.2716382
1317,140.965477
1318,141.7421697
1319,142.5206363
1320,143.2152964
1321,143.699159
1322,142.4827741
1323,141.750445
1324,143.0544866
1325,143.8565051
1326,143.3345782
1327,143.7186101
1328,145.7205149
1329,144.3578619
1330,138.784017
1331,136.860007
1332,138.1671524
1333,139.0437864
1334,139.6541494
1335,137.9843114
1336,135.366909
1337,135.1113396
1338,135.460537
1339,136.4297447
1340,137.4779485
1341,136.9010531
1342,137.8083522
1343,158.2726847
1344,172.6116715
1345,156.2479757
1346,145.1519763
1347,148.9169845
1348,146.1551437
1349,131.6994184
1350,126.0311864
1351,130.8526306
1352,134.4108048
1353,136.9545275
1354,137.660998
1355,137.3976949
1356,133.3522377
1357,128.0830968
1358,129.4436315
1359,131.9040222
1360,131.9999987
1361,131.9827398
1362,131.7188098
1363,131.1238111
1364,128.9231097
1365,127.9446195
1366,130.1466255
1367,131.330171
1368,130.8895086
1369,129.925635
1370,128.426487
1371,134.0723915
1372,144.3961754
1373,142.6586698
1374,136.1252149
1375,132.4405289
1376,129.3485438
1377,129.3330574
1378,129.4655126
1379,128.8463847
1380,128.2575137
1381,127.8150126
1382,129.1327845
1383,134.8001505
1384,137.6630554
1385,136.422582
1386,137.0434659
1387,139.3485743
1388,139.3082657
1389,137.9776077
1390,132.7010854
1391,126.2213644
1392,126.2103564
1393,127.0334346
1394,129.7883695
1395,132.373333
1396,133.8849996
1397,133.8326365
1398,129.3839099
1399,126.9092178
1400,127.5324097
1401,128.6164475
1402,130.1308149
1403,129.3996048
1404,127.4386724
1405,127.6231117
1406,128.4257851
1407,128.9859301
1408,129.400238
1409,126.9000588
1410,124.8178418
1411,124.7284991
1412,125.3824463
1413,127.7068011
1414,128.4841143
1415,127.3212446
1416,129.7425652
1417,134.7548243
1418,131.5991478
1419,125.2405434
1420,124.8711154
1421,125.4983928
1422,126.8415133
1423,127.8756078
1424,126.9784368
1425,126.1820018
1426,125.6433741
1427,125.7145322
1428,126.6127714
1429,127.9715017
1430,129.6791751
1431,131.4518267
1432,133.2504476
1433,128.8500494
1434,123.5089912
1435,124.4994036
1436,125.219457
1437,124.4987285
1438,124.3332011
1439,125.4149399
1440,127.8222249
1441,131.7909495
1442,131.4021454
1443,128.2433345
1444,126.7403997
1445,125.7470373
1446,128.8224996
1447,131.8111445
1448,129.2795868
1449,126.8731817
1450,124.8829193
1451,124.9691811
1452,128.318428
1453,130.3790029
1454,131.3753154
1455,129.9352786
1456,127.4883296
1457,123.7799416
1458,119.936114
1459,117.8492012
1460,117.0286789
1461,121.4773547
1462,124.3333346
1463,124.3333333
1464,123.7624804
1465,122.6717135
1466,120.7649346
1467,118.4911537
1468,119.8050423
1469,121.74683
1470,124.8428396
1471,127.0482165
1472,125.5904058
1473,123.4976858
1474,120.3068301
1475,120.3062286
1476,123.0428746
1477,121.1719742
1478,117.429671
1479,118.293499
1480,119.5509542
1481,117.6318906
1482,116.1882909
1483,116.2797292
1484,117.3176028
1485,119.6964111
1486,119.3114866
1487,117.022817
1488,116.5706762
1489,116.6622772
1490,116.6666679
1491,115.0238698
1492,102.7347348
1493,97.55567932
1494,107.7415276
1495,114.0731595
1496,116.552269
1497,117.1445478
1498,116.8689296
1499,118.5144984
1500,120.1152242
1501,116.343942
1502,114.6089414
1503,119.1187541
1504,118.8622843
1505,112.4158694
1506,112.4197629
1507,116.2899081
1508,113.0852318
1509,108.3513463
1510,110.3809726
1511,112.1493988
1512,112.887881
1513,113.9930433
1514,115.6556168
1515,117.811498
1516,120.3068377
1517,118.1336861
1518,114.712115
1519,112.2928505
1520,110.4707235
1521,111.2114016
1522,111.1312014
1523,109.7416077
1524,109.0579809
1525,108.8725929
1526,111.6845449
1527,115.3017769
1528,112.6654828
1529,110.9535891
1530,113.2750778
1531,113.2523804
1532,109.7216212
1533,108.8410619
1534,109.6777903
1535,109.4546737
1536,109.0794741
1537,112.6165212
1538,115.7220942
1539,117.3985291
1540,117.7973938
1541,116.5859146
1542,117.2032738
1543,118.7884509
1544,113.7447675
1545,108.466212
1546,112.2004712
1547,113.5659803
1548,109.2690328
1549,108.9806506
1550,112.5324046
1551,115.0650241
1552,117.2160441
1553,113.5288836
1554,110.336024
1555,111.3659935
1556,110.8114039
1557,107.7196668
1558,107.4649735
1559,109.0586319
1560,110.2649142
1561,111.2808838
1562,110.2484678
1563,108.9317716
1564,106.8657176
1565,106.8206024
1566,108.7939097
1567,110.0165418
1568,110.9567706
1569,109.5639509
1570,108.7627131
1571,111.1160723
1572,110.7151871
1573,106.3824374
1574,104.3489355
1575,103.5949669
1576,106.7969589
1577,110.3277079
1578,111.8374328
1579,113.315328
1580,114.7315343
1581,110.2266998
1582,101.3465563
1583,100.3564606
1584,101.3919411
1585,106.1210226
1586,109.1757838
1587,108.0401306
1588,107.5993118
1589,107.7887014
1590,107.1091334
1591,106.164149
1592,105.6901194
1593,104.4182905
1594,100.7186635
1595,99.85738882
1596,101.9455935
1597,101.8721657
1598,101.017395
1599,104.6307869
1600,107.2208379
1601,105.9847031
1602,104.6582082
1603,103.2310549
1604,101.3912748
1605,99.39207965
1606,98.87104544
1607,99.27919261
1608,102.8057607
1609,104.30631
1610,103.5433566
1611,101.8118757
1612,99.7125117
1613,100.8808263
1614,101.3888194
1615,99.47804641
1616,97.75337727
1617,96.2238528
1618,97.54285304
1619,99.83247248
1620,99.44963709
1621,99.31654865
1622,99.89114
1623,99.56818135
1624,98.41832098
1625,88.87966538
1626,78.28492864
1627,96.6085879
1628,107.3974851
1629,101.0619977
1630,100.0284487
1631,103.0059675
1632,102.6984011
1633,102.0638479
1634,104.371755
1635,105.4452032
1636,104.3867849
1637,102.8392245
1638,101.0099691
1639,100.3981756
1640,99.9331665
1641,99.54760362
1642,98.34782029
1643,96.12952168
1644,94.11764017
1645,92.1875445
1646,94.55460231
1647,97.55386098
1648,102.1915754
1649,102.4082298
1650,98.83120855
1651,96.98523331
1652,95.48998261
1653,93.55417252
1654,92.86988194
1655,94.32260259
1656,95.77587764
1657,97.22945531
1658,99.67419688
1659,101.0564321
1660,98.14583587
1661,97.33506267
1662,98.69414394
1663,100.5055008
1664,102.09773
1665,98.11285147
1666,95.66741943
1667,96.15366871
1668,95.10627493
1669,93.16013463
1670,96.75284194
1671,99.13727824
1672,94.94811632
1673,93.21949259
1674,93.99933117
1675,94.93274815
1676,95.9830068
1677,97.93491237
1678,98.80637741
1679,97.82985052
1680,94.07056809
1681,88.89190038
1682,96.80257922
1683,101.2206904
1684,93.49241511
1685,91.44855627
1686,94.09142558
1687,91.68477885
1688,89.12910335
1689,91.18710072
1690,90.63905462
1691,86.81480027
1692,88.31312434
1693,91.48245367
1694,91.08975856
1695,90.7310702
1696,90.43637466
1697,93.5294482
1698,98.44394049
1699,93.03322347
1700,89.22958247
1701,91.39451599
1702,93.95052974
1703,96.80598958
1704,89.33357874
1705,81.49756496
1706,78.73730596
1707,79.32049052
1708,83.36468251
1709,86.7777888
1710,89.73363876
1711,90.32616933
1712,91.46525192
1713,93.34271367
1714,91.27711613
1715,88.015728
1716,88.31252289
1717,87.44268799
1718,84.57200622
1719,84.34476853
1720,85.33562597
1721,86.52489853
1722,87.04753876
1723,86.15505982
1724,84.50078838
1725,82.41710535
1726,85.38261795
1727,89.03481802
1728,93.90248618
1729,93.37454352
1730,89.29918797
1731,87.6176618
1732,87.39861424
1733,90.98119863
1734,88.31263987
1735,81.04366429
1736,84.82820384
1737,88.87256876
1738,89.7698021
1739,88.49779002
1740,85.50524394
1741,85.43222045
1742,85.90508017
1743,87.00364304
1744,86.45921453
1745,84.56057994
1746,84.06927491
1747,83.94009654
1748,84.44032669
1749,85.92730713
1750,88.22972489
1751,87.08550009
1752,86.60041683
1753,90.10823058
1754,88.15571341
1755,81.83792369
1756,83.31899643
1757,84.83949916
1758,83.43388748
1759,83.58132553
1760,84.88730494
1761,85.00000127
1762,85.64282608
1763,88.15728887
1764,83.74516552
1765,74.68776067
1766,79.10166677
1767,83.20970154
1768,84.51953888
1769,83.46794891
1770,81.04836273
1771,82.58174515
1772,82.90565872
1773,80.58415731
1774,79.08169556
1775,78.13831774
1776,83.39312363
1777,86.6666654
1778,86.66666667
1779,85.19211832
1780,83.15208307
1781,80.92496363
1782,79.09384155
1783,77.77703985
1784,79.10057449
1785,80.7302742
1786,80.02039083
1787,79.05574799
1788,77.83808899
1789,76.61981328
1790,75.93205198
1791,77.15114594
1792,76.96267828
1793,75.74286652
1794,76.23880959
1795,76.636247
1796,76.5344766
1797,76.70200221
1798,77.04749553
1799,78.98342006
1800,79.61173503
1801,78.18442281
1802,79.06402588
1803,79.75154877
1804,73.52522278
1805,73.41933123
1806,79.75145467
1807,80.84150823
1808,80.35714722
1809,77.49411011
1810,76.33333333
1811,76.33333206
1812,74.3564237
1813,73.38027891
1814,74.50703303
1815,74.54208883
1816,73.95926221
1817,71.49799601
1818,74.87749735
1819,85.13880031
1820,81.17593766
1821,76.05070877
1822,77.07804871
1823,77.50000127
1824,77.5
1825,76.40489451
1826,74.62950897
1827,71.64496612
1828,72.40774854
1829,74.13015048
1830,72.27549362
1831,71.84057363
1832,72.87154452
1833,72.81939062
1834,71.51377742
1835,67.07538668
1836,69.36399841
1837,75.14078712
1838,74.31406721
1839,74.136247
1840,74.8600502
1841,73.49777285
1842,72.06079165
1843,72.3713576
1844,70.80103556
1845,67.90070852
1846,71.37660917
1847,73.28430303
1848,72.24725533
1849,65.75694974
1850,60.68882434
1851,72.62892214
1852,74.39920489
1853,67.85426394
1854,73.39934921
1855,76.92998759
1856,75.26582591
1857,73.52391752
1858,72.59194311
1859,76.86136881
1860,77.54375458
1861,75.14730136
1862,70.98829015
1863,69.51397578
1864,73.47798729
1865,74.11266708
1866,73.80334091
1867,74.74328804
1868,71.89313698
1869,65.93663915
1870,64.86808904
1871,65.08811378
1872,67.18057187
1873,72.64930407
1874,76.65727615
1875,69.01084264
1876,64.4857413
1877,62.17998441
1878,69.0480245
1879,72.14690717
1880,69.62858073
1881,69.16666603
1882,69.23888715
1883,69.55404727
1884,69.12623787
1885,68.45945104
1886,70.66816584
1887,69.49640528
1888,64.55018997
1889,67.93066724
1890,70.09728241
1891,67.14714177
1892,67.32578341
1893,68.72662608
1894,70.30891546
1895,67.43309848
1896,61.10023626
1897,60.48031044
1898,61.41094653
1899,64.47542254
1900,68.76826286
1901,73.04831568
1902,76.53956859
1903,71.57360331
1904,63.31503423
1905,61.5143973
1906,63.41488139
1907,68.60799027
1908,70.35496903
1909,71.86429978
1910,73.24368032
1911,67.96785164
1912,63.84564336
1913,67.98863538
1914,66.03084819
1915,62.08942858
1916,66.02456792
1917,66.56826147
1918,64.22707876
1919,66.24131076
1920,66.10573069
1921,62.69638062
1922,64.86790721
1923,67.10667292
1924,66.89333852
1925,63.15128772
1926,58.86689822
1927,59.08048058
1928,60.9512984
1929,63.90402285
1930,65.82853127
1931,65.04396312
1932,61.2996699
1933,59.22743988
1934,58.73860741
1935,60.77360535
1936,58.74555143
1937,59.25250562
1938,70.19003105
1939,68.48681196
1940,62.07052104
1941,60.2454675
1942,61.40627289
1943,64.4441363
1944,63.04687055
1945,63.28058751
1946,65.21639443
1947,61.69346809
1948,58.9546744
1949,57.98563957
1950,62.64578247
1951,66.88987223
1952,67.64445178
1953,64.67976697
1954,62.10566902
1955,65.88297018
1956,66.23993047
1957,64.6846447
1958,61.98341561
1959,61.0816625
1960,61.39410146
1961,58.14883423
1962,58.57657624
1963,62.79789098
1964,62.07194773
1965,58.49984614
1966,51.23936208
1967,57.92517662
1968,79.47642517
1969,126.2365418
1970,96.76272329
1971,60.87004026
1972,59.13213539
1973,57.9505043
1974,58.85163053
1975,67.33381717
1976,65.74601491
1977,59.95613607
1978,59.62951787
1979,57.26487541
1980,53.64100583
1981,51.02499771
1982,51.73356629
1983,55.24857648
1984,60.26845042
1985,63.36733945
1986,64.45925204
1987,60.18770154
1988,58.52696546
1989,60.49470711
1990,60.9661382
1991,60.61332385
1992,59.19051806
1993,53.40404256
1994,50.41118177
1995,54.02713712
1996,54.30567678
1997,54.09971555
1998,54.42882284
1999,53.89781316
2000,54.90707715
2001,60.8379186
2002,59.86776988
2003,57.12990888
2004,56.25024033
2005,52.69356982
2006,50.48026403
2007,57.8560861
2008,57.67039172
2009,53.86277326
2010,49.23372905
2011,47.73961385
2012,48.04873657
2013,49.48320707
2014,53.31969134
2015,57.7758077
2016,57.33391698
2017,53.80035655
2018,49.66662661
2019,55.52850151
2020,56.28881137
2021,53.66523488
2022,50.34332466
2023,51.57366054
2024,55.1658624
2025,51.50750097
2026,48.69568952
2027,46.50553449
2028,44.618728
2029,47.00984255
2030,51.81562678
2031,49.59326744
2032,46.72189776
2033,43.93773015
2034,47.16390546
2035,49.54341062
2036,50.8115495
2037,46.80197907
2038,47.08037567
2039,49.85997137
2040,48.41038513
2041,50.18383344
2042,53.66666603
2043,53.66666667
2044,52.42978986
2045,50.74921481
2046,51.41981443
2047,49.12270927
2048,45.17564202
2049,41.70684942
2050,43.20130857
2051,47.19777044
2052,50.44654656
2053,50.1365935
2054,48.11871783
2055,46.09989039
2056,47.86626943
2057,50.32888222
2058,49.54286957
2059,42.98839696
2060,38.32677682
2061,45.63395437
2062,44.57096672
2063,43.25421906
2064,47.64362335
2065,48.68128586
2066,49.16284053
2067,50.17695808
2068,46.04213269
2069,42.79187075
2070,42.67906062
2071,43.06856855
2072,43.61360677
2073,44.29125722
2074,45.49922753
2075,47.1615359
2076,49.30992254
2077,46.42378489
2078,42.95559502
2079,39.51331011
2080,47.44221179
2081,44.73620669
2082,35.78976504
2083,41.91344834
2084,44.23838361
2085,44.2036349
2086,43.40890312
2087,41.90308444
2088,40.94066207
2089,42.87296772
2090,40.99419149
2091,38.59730212
2092,37.80072403
2093,37.28786373
2094,35.91004626
2095,32.94789314
2096,38.54748917
2097,40.85288843
2098,37.88729858
2099,37.6092329
2100,37.08318138
2101,36.2979517
2102,35.7266531
2103,38.46565819
2104,42.35055224
2105,40.177104
2106,39.89400355
2107,39.80117734
2108,37.5106837
2109,38.15754636
2110,40.35027504
2111,44.01931254
2112,39.41562462
2113,35.37888018
2114,33.88660717
2115,37.26678022
2116,37.11262258
2117,33.86942355
2118,37.08913708
2119,37.41559728
2120,35.95771408
2121,34.69136111
2122,35.90316518
2123,37.9362901
2124,39.54987844
2125,35.7455616
2126,32.22920672
2127,31.07531007
2128,28.62573751
2129,27.95751317
2130,29.34597461
2131,33.0448548
2132,33.237168
2133,31.99812285
2134,35.00694084
2135,35.4133927
2136,34.46990172
2137,32.61618074
2138,33.9051164
2139,33.71691195
2140,30.58513832
2141,31.74193891
2142,32.83198579
2143,33.72565397
2144,34.30661774
2145,34.03463364
2146,33.01093928
2147,30.91705164
2148,29.47467486
2149,28.45184771
2150,27.86954021
2151,31.2211148
2152,33.8876934
2153,35.56380017
2154,36.38044294
2155,35.98430475
2156,35.42563788
2157,36.59361839
2158,31.8178002
2159,27.01435789
2160,24.79263099
2161,31.61978276
2162,33.46606636
2163,30.74515629
2164,33.32213783
2165,31.64528306
2166,29.2735316
2167,31.03259214
2168,27.53951772
2169,26.36858527
2170,30.12557538
2171,40.27509689
2172,39.50501188
2173,31.85125287
2174,31.96886158
2175,34.4225874
2176,35.12699795
2177,30.29946295
2178,32.28138542
2179,30.90109126
2180,26.33813159
2181,35.30221049
2182,36.77112993
2183,34.08621884
2184,30.4256045
2185,28.94201152
2186,28.28278256
2187,28.21509234
2188,30.93572617
2189,33.08085633
2190,33.71589915
2191,29.80788517
2192,30.40995979
2193,32.60039743
2194,35.4458615
2195,32.70706845
2196,31.15812969
2197,30.9116656
2198,32.33685525
2199,35.22401842
2200,36.89806843
2201,35.70904446
2202,35.89612738
2203,33.45121574
2204,29.72503757
2205,30.08236027
2206,31.16830413
2207,32.13077736
2208,32.4885114
2209,35.27155463
2210,34.31865279
2211,31.27113756
2212,31.86838913
2213,31.53409131
2214,32.22605515
2215,34.97657045
2216,32.86453374
2217,30.20830536
2218,28.45184262
2219,31.44668674
2220,31.21826172
2221,32.09305445
2222,35.44278081
2223,38.5627861
2224,39.82184219
2225,38.32557106
2226,31.83811983
2227,31.1046772
2228,35.94324017
2229,43.77717781
2230,33.06648414
2231,31.11721039
2232,31.65044658
2233,30.0841678
2234,37.18665409
2235,34.72015095
2236,26.66281319
2237,28.4731671
2238,29.70394516
2239,31.60474968
2240,34.51004378
2241,34.751839
2242,30.50271034
2243,26.79981041
2244,30.18883292
2245,28.63023154
2246,28.37575404
2247,30.61993313
2248,37.77336566
2249,38.28988648
2250,35.02327442
2251,29.23472691
2252,31.17797502
2253,30.62524605
2254,30.21871535
2255,33.25851663
2256,31.82004833
2257,29.1231575
2258,26.02383041
2259,24.31861846
2260,25.68468475
2261,27.92001375
2262,30.51273982
2263,34.90510019
2264,11.10599653
2265,-2.238826215
2266,25.36697451
2267,33.76354122
2268,33.57605521
2269,30.35727183
2270,33.0491724
2271,32.89531231
2272,29.20550474
2273,24.93309847
2274,31.30668481
2275,36.08839003
2276,36.71818892
2277,33.09628264
2278,32.35960833
2279,27.81432215
2280,25.0105629
2281,27.27020582
2282,31.32885806
2283,24.74696636
2284,20.1298399
2285,31.08839925
2286,29.36569023
2287,31.05506865
2288,32.29218102
2289,25.01507855
2290,25.00443014
2291,27.04915778
2292,28.86344306
2293,25.77464708
2294,25.12141387
2295,30.41379706
2296,37.99409739
2297,29.70196088
2298,28.06576093
2299,28.98780219
2300,30.8947436
2301,31.39064249
2302,29.85625903
2303,28.99126816
2304,30.41782856
2305,38.4899737
2306,34.80769634
2307,29.56928921
2308,27.93656699
2309,29.42935562
2310,33.01083819
2311,34.45124849
2312,31.51298873
2313,31.7622118
2314,32.27884038
2315,30.26232402
2316,24.4388148
2317,30.92967733
2318,27.97872194
2319,25.20184962
2320,29.2293663
2321,30.85485141
2322,29.92083581
2323,29.08741156
2324,30.17193222
2325,30.29718272
2326,27.65882428
2327,25.71599388
2328,26.87010622
2329,30.75949542
2330,27.19866721
2331,24.47810714
2332,27.20153777
2333,27.70425002
2334,28.48755391
2335,27.58053971
2336,24.71119944
2337,26.97725678
2338,30.50407887
2339,31.48574161
2340,29.08860842
2341,28.45807552
2342,29.54791768
2343,28.51049964
2344,26.08648809
2345,30.7603693
2346,25.96764851
2347,26.07492415
2348,32.14256255
2349,37.71014659
2350,41.93129794
2351,38.38011964
2352,30.72120985
2353,27.67918046
2354,23.0839421
2355,24.51550452
2356,28.83590444
2357,31.49895
2358,30.22856426
2359,28.08203443
2360,26.3558925
2361,26.23958111
2362,29.80270258
2363,26.61564032
2364,24.29526138
2365,26.09026432
2366,30.29678822
2367,32.59331449
2368,31.75449657
2369,28.12701925
2370,23.40260919
2371,27.55798626
2372,34.33648173
2373,37.32489395
2374,29.15459029
2375,25.57127317
2376,29.79622682
2377,32.13273557
2378,26.62325859
2379,21.11097781
2380,21.33137798
2381,27.29051463
2382,33.57000128
2383,23.93926525
2384,23.69570955
2385,25.55622355
2386,27.21416823
2387,26.80303478
2388,24.48643812
2389,24.5730807
2390,25.9857413
2391,27.71704579
2392,28.10379791
2393,33.89185429
2394,30.52451038
2395,22.45388222
2396,25.55314128
2397,24.91981284
2398,29.71652953
2399,27.82141654
2400,13.74037838
2401,26.68308068
2402,26.96901544
2403,28.77264691
2404,30.7759889
2405,19.88574584
2406,21.79610713
2407,30.85939375
2408,35.73404439
2409,28.91472213
2410,26.31596661
2411,21.49284252
2412,21.49295521
2413,26.04590257
2414,30.21093019
2415,31.85017014
2416,31.7032121
2417,30.30771891
2418,28.06489881
2419,24.80364895
2420,22.54613241
2421,23.25424862
2422,23.5846173
2423,18.66004229
2424,24.54349073
2425,31.21687857
2426,29.44828574
2427,20.60742108
2428,21.13127549
2429,27.52025572
2430,29.05390326
2431,27.72042211
2432,26.08369827
2433,23.98357455
2434,22.44001866
2435,22.7479833
2436,24.12020811
2437,24.75071621
2438,19.09396649
2439,20.08376932
2440,22.10560608
2441,22.5472285
2442,20.7023991
2443,22.08889675
2444,25.52487183
2445,25.08183161
2446,20.54403273
2447,22.52506701
2448,25.85680517
2449,23.91218917
2450,21.70470111
2451,22.60007223
2452,21.01169443
2453,24.94818211
2454,25.41587861
2455,25.05334028
2456,26.90846221
2457,24.65322367
2458,22.16908741
2459,22.68706576
2460,15.23398956
2461,-6.749698877
2462,11.99736404
2463,23.60282294
2464,24.6298364
2465,22.02577051
2466,24.96676159
2467,26.56582324
2468,20.50493463
2469,20.98667685
2470,23.92086983
2471,20.19461028
2472,16.58868504
2473,18.12442716
2474,24.60500654
2475,33.4651769
2476,39.04014333
2477,20.56871478
2478,24.10844135
2479,22.11617661
2480,19.53540071
2481,25.35934417
2482,22.81050332
2483,26.97916698
2484,26.09803899
2485,23.18116125
2486,21.74909433
2487,16.90894699
2488,21.67261092
2489,19.03782733
2490,15.5694499
2491,17.48778359
2492,24.89892451
2493,19.70867364
2494,25.6270593
2495,37.27716223
2496,41.7864809
2497,22.00313981
2498,22.13826275
2499,18.53619894
2500,20.87039948
2501,24.62727356
2502,20.05456352
2503,17.07524681
2504,23.68165875
2505,25.12233575
2506,24.21400388
2507,24.64518102
2508,20.70917241
2509,22.42874305
2510,22.12006855
2511,21.29895274
2512,21.10895841
2513,21.59090964
2514,23.76852862
2515,23.38771184
2516,24.37417793
2517,24.47125371
2518,21.47417005
2519,22.42899195
2520,21.48936749
2521,17.22269885
2522,14.0688591
2523,15.14683692
2524,20.72118314
2525,25.645305
2526,20.27937889
2527,18.66674932
2528,19.78546381
2529,19.64518992
2530,21.42728313
2531,18.2109197
2532,18.9671394
2533,20.72722117
2534,21.53649394
2535,20.65836207
2536,15.70968088
2537,19.32987293
2538,17.00510486
2539,17.86133194
2540,24.56639481
2541,26.42602444
2542,21.32582124
2543,16.10767206
2544,17.12086566
2545,22.27979787
2546,25.705856
2547,20.51843484
2548,22.73001766
2549,23.05567233
2550,20.51979224
2551,18.21765328
2552,18.27346087
2553,16.19552676
2554,22.59063498
2555,19.97889233
2556,18.88292694
2557,19.41855812
2558,18.51722368
2559,20.4619751
2560,16.13937076
2561,16.4704663
2562,15.38265133
2563,18.10913626
2564,26.73465252
2565,20.88433409
2566,17.65577046
2567,17.44367615
2568,16.32674806
2569,15.39642715
2570,17.0541215
2571,21.26779588
2572,26.71817144
2573,16.92552058
2574,18.5536534
2575,21.0675567
2576,16.46906487
2577,18.47594182
2578,12.73031712
2579,19.58828386
2580,20.22151629
2581,23.96038374
2582,28.51368777
2583,20.87766902
2584,23.96914896
2585,25.48282496
2586,18.22971137
2587,14.23162683
2588,14.72044102
2589,15.28058227
2590,17.51097361
2591,18.21589486
2592,17.15772406
2593,17.40271505
2594,13.74307982
2595,9.305463115
2596,15.42765983
2597,16.27588209
2598,19.23441219
2599,18.29269552
2600,17.25172393
2601,18.0718832
2602,19.54887676
2603,18.30653159
2604,17.73919328
2605,17.54289611
2606,17.10372066
2607,16.90776666
2608,16.90027825
2609,16.64131419
2610,16.51453416
2611,18.79132875
2612,-27.80115032
2613,-12.5861632
2614,14.10877498
2615,16.41908598
2616,19.55495834
2617,18.84151856
2618,19.39784447
2619,17.97522132
2620,18.92314577
2621,17.65347211
2622,9.595986525
2623,1.077911357
2624,22.69428333
2625,19.4178621
2626,16.45449352
2627,15.49999984
2628,14.48641221
2629,16.41556358
2630,22.96525097
2631,16.6537625
2632,23.83879121
2633,19.25886949
2634,11.47279302
2635,11.97186581
2636,17.8892525
2637,19.40709972
2638,16.84446478
2639,14.68192403
2640,12.78253468
2641,12.00407394
2642,11.74587361
2643,14.60212994
2644,19.46816762
2645,19.15862036
2646,11.05883249
2647,12.5803291
2648,11.98085213
2649,11.66666675
2650,14.32601897
2651,19.14238564
2652,22.73649884
2653,22.14453999
2654,12.85249456
2655,16.44784753
2656,14.09056425
2657,14.84115457
2658,14.44648441
2659,12.98181987
2660,15.81135273
2661,17.07546107
2662,15.76381381
2663,10.4009908
2664,10.08050331
2665,11.80913226
2666,10.64762672
2667,11.38783058
2668,18.1187547
2669,14.01713991
2670,18.55213452
2671,22.54025046
2672,20.05569092
2673,14.88787302
2674,12.47384167
2675,12.94686031
2676,12.02582026
2677,8.490326325
2678,12.74877087
2679,13.55335538
2680,16.02887313
2681,11.59746472
2682,9.607296944
2683,12.11216927
2684,13.22210042
2685,10.79176982
2686,13.43620841
2687,18.59787194
2688,15.73456446
2689,16.1701134
2690,12.35325988
2691,13.28942013
2692,15.01431608
2693,11.37105671
2694,14.93332402
2695,17.57067553
2696,14.16412608
2697,12.36152998
2698,12.46154308
2699,14.02523899
2700,15.39382855
2701,17.77126106
2702,20.19090001
2703,16.82179578
2704,13.75697549
2705,11.97200998
2706,8.127200286
2707,16.4144365
2708,19.5928704
2709,18.07113091
2710,18.03180202
2711,17.86986463
2712,23.7418712
2713,64.75544993
2714,22.18075196
2715,14.15533606
2716,12.64923898
2717,11.26475803
2718,11.14318379
2719,13.38119014
2720,15.06926648
2721,12.72216089
2722,-51.68783537
2723,-322.590383
2724,16.04469359
2725,12.87361574
2726,16.84023539
2727,10.13388395
2728,7.63203919
2729,13.30227995
2730,16.63847923
2731,13.07145437
2732,10.55476459
2733,11.61003915
2734,12.66581694
2735,7.238436381
2736,23.01315626
2737,18.35041777
2738,13.02528373
2739,13.51405907
2740,12.88131142
2741,13.16859563
2742,15.73281431
2743,6.44835728
2744,5.85693874
2745,12.37697999
2746,12.94654052
2747,13.6698029
2748,10.61636647
2749,12.8831354
2750,12.30786832
2751,11.27741917
2752,12.89395316
2753,12.8614893
2754,19.0177002
2755,42.50400416
2756,7.156472286
2757,14.47720671
2758,7.348268588
2759,12.51247629
2760,9.608068148
2761,12.42871936
2762,13.16340606
2763,8.783814191
2764,8.978511333
2765,13.65245438
2766,13.29359269
2767,13.55857722
2768,11.4030048
2769,13.55066665
2770,12.79549471
2771,12.4024992
2772,11.85714865
2773,8.059851011
2774,9.914134267
2775,10.50825683
2776,11.48580154
2777,15.2391394
2778,11.06762687
2779,8.452787439
2780,8.181210239
2781,1.520395319
2782,12.32681465
2783,10.03617501
2784,8.721093616
2785,9.484157722
2786,7.834747553
2787,8.419259547
2788,8.278033893
2789,9.809914272
2790,13.63834635
2791,14.87555917
2792,12.89211098
2793,7.11613814
2794,14.64363003
2795,7.715533098
2796,12.84488741
2797,10.88860921
2798,12.06403335
2799,15.03677734
2800,14.41961352
2801,7.950509548
2802,7.552270572
2803,9.324710051
2804,8.101589203
2805,10.53771607
2806,14.01255322
2807,9.152321418
2808,7.437518677
2809,5.461915354
2810,11.28343964
2811,8.698484062
2812,10.57840013
2813,12.60863416
2814,12.13568481
2815,14.98434369
2816,10.31079419
2817,6.841468772
2818,6.26755476
2819,8.435990016
2820,8.28000617
2821,7.496767958
2822,7.603488843
2823,6.908558528
2824,8.583416302
2825,6.144867083
2826,12.55745443
2827,11.55713097
2828,8.154883942
2829,10.68932676
2830,14.32455174
2831,12.54345751
2832,16.8787988
2833,18.0676651
2834,13.528186
2835,12.11714045
2836,14.01957528
2837,6.724002997
2838,7.188370784
2839,8.942463317
2840,5.857897282
2841,7.444246411
2842,11.40188217
2843,11.76679627
2844,8.446524382
2845,9.950703621
2846,11.32194328
2847,6.996333401
2848,11.04153951
2849,12.90490325
2850,13.79032691
2851,3.250115395
2852,15.79127312
2853,7.715611873
2854,6.951579452
2855,10.53100133
2856,12.62571589
2857,14.22748057
2858,11.99091212
2859,7.973186692
2860,8.05630366
2861,13.87905105
2862,12.11851581
2863,9.457352082
2864,10.36367194
2865,9.740353823
2866,8.542986234
2867,5.297853112
2868,6.000039657
2869,10.19908547
2870,6.363151868
2871,6.7243553
2872,10.08338984
2873,12.7096804
2874,4.942153743
2875,-0.111069024
2876,7.789606651
2877,7.420484941
2878,8.9356458
2879,12.33206304
2880,10.87389405
2881,11.77888997
2882,9.230523904
2883,9.743504525
2884,12.28772871
2885,10.28441453
2886,10.37721221
2887,14.85230637
2888,13.05858723
2889,9.315399407
2890,3.768392985
2891,8.284151871
2892,8.858743191
2893,12.52479156
2894,9.403670073
2895,13.01139466
2896,16.64165831
2897,15.59340858
2898,7.870465279
2899,2.80327492
2900,4.879686157
2901,5.500347177
2902,8.613610665
2903,11.11356735
2904,10.98246606
2905,9.237885673
2906,5.310789923
2907,9.563601335
2908,12.01318932
2909,7.912224452
2910,6.499070088
2911,7.433052858
2912,7.563679298
2913,7.415120602
2914,6.882582506
2915,11.07954629
2916,9.273681164
2917,4.862972836
2918,2.772891303
2919,9.577303649
2920,14.55655813
2921,7.079693058
2922,3.19843791
2923,5.437761029
2924,8.846384924
2925,7.17247343
2926,3.642125885
2927,5.870092432
2928,8.18410945
2929,9.258816004
2930,6.942788044
2931,3.54107967
2932,11.73284379
2933,10.52396377
2934,4.923758745
2935,6.569236318
2936,5.582733744
2937,4.628658414
2938,10.86239147
2939,11.6995039
2940,12.19784641
2941,12.25872978
2942,6.326752583
2943,5.725443165
2944,8.922194402
2945,10.57181064
2946,10.28264745
2947,9.499059756
2948,11.45523628
2949,5.023440838
2950,6.615328988
2951,8.126054804
2952,8.586668174
2953,8.654394626
2954,10.89366977
2955,14.89357122
2956,9.342342695
2957,10.40493107
2958,5.195792238
2959,12.18553591
2960,10.37027423
2961,10.14699125
2962,4.700379928
2963,4.19162794
2964,5.621700287
2965,11.07582029
2966,8.202223381
2967,6.138776918
2968,5.245028233
2969,1.19041427
2970,4.781451643
2971,11.30690543
2972,10.26272996
2973,9.551321428
2974,10.50740019
2975,8.056006114
2976,10.11396058
2977,13.49724309
2978,11.81154601
2979,8.999312083
2980,8.103562991
2981,8.830820242
2982,3.282893635
2983,1.672887857
2984,-3.783272475
2985,0.326963802
2986,2.500703091
2987,9.2598509
2988,9.594628015
2989,6.302979231
2990,9.293307622
2991,15.95985619
2992,3.863735813
2993,7.301785469
2994,18.32395919
2995,16.784434
2996,2.94704773
2997,9.105124792
2998,12.31637303
2999,18.02953275
3000,8.556873321
