Frequency,Density
0,299.6666667
1,299.6666667
2,299.6666667
3,299.6666667
4,299.6666667
5,299.6666667
6,299.6666667
7,299.6666667
8,299.6666667
9,299.6666667
10,299.6666667
11,299.6666667
12,299.6666667
13,299.6666667
14,299.6666667
15,299.6666667
16,299.6666667
17,299.6666667
18,299.6666667
19,299.6666667
20,299.6666667
21,299.6666667
22,299.6666667
23,299.6666667
24,299.6666667
25,299.6666667
26,299.6666667
27,299.6666667
28,299.6666667
29,299.6666667
30,299.6666667
31,299.6666667
32,299.6666667
33,299.6666667
34,299.6666667
35,299.6666667
36,299.6666667
37,299.6666667
38,299.6666667
39,299.6666667
40,299.6666667
41,299.6666667
42,299.6666667
43,299.6666667
44,299.6666667
45,299.6666667
46,299.6666667
47,299.6666667
48,299.6666667
49,299.6666667
50,299.6666667
51,299.6666667
52,299.6666667
53,299.6666667
54,299.6666667
55,299.6666667
56,299.6666667
57,299.6666667
58,299.6666667
59,299.6666667
60,299.6666667
61,299.6666667
62,299.6666667
63,299.6666667
64,299.6666667
65,299.6666667
66,299.6666667
67,299.6666667
68,299.6666667
69,299.6666667
70,299.6666667
71,299.6666667
72,299.6666667
73,299.6666667
74,299.6666667
75,299.6666667
76,299.6666667
77,299.6666667
78,299.6666667
79,299.6666667
80,299.6666667
81,299.6666667
82,299.6666667
83,299.6666667
84,299.6666667
85,299.6666667
86,299.6666667
87,299.6666667
88,299.6666667
89,299.6666667
90,299.6666667
91,299.6666667
92,299.6666667
93,299.6666667
94,299.6666667
95,299.6666667
96,299.6666667
97,299.6666667
98,299.6666667
99,299.6666667
100,299.6666667
101,299.6666667
102,299.6666667
103,299.6666667
104,299.6666667
105,299.6666667
106,299.6666667
107,299.6666667
108,299.6666667
109,299.6666667
110,299.6666667
111,299.6666667
112,299.6666667
113,299.6666667
114,299.6666667
115,299.6666667
116,299.6666667
117,299.6666667
118,299.6666667
119,299.6666667
120,299.6666667
121,299.6666667
122,299.6666667
123,299.6666667
124,299.6666667
125,299.6666667
126,299.6666667
127,299.6666667
128,299.6666667
129,299.6666667
130,299.6666667
131,299.6666667
132,299.6666667
133,299.6666667
134,299.6666667
135,299.6666667
136,299.6666667
137,299.6666667
138,299.6666667
139,299.6666667
140,299.6666667
141,299.6666667
142,299.6666667
143,299.6666667
144,299.6666667
145,299.6666667
146,299.6666667
147,299.6666667
148,299.6666667
149,299.6666667
150,299.6666667
151,299.6666667
152,299.6666667
153,299.6666667
154,299.6666667
155,299.6666667
156,299.6666667
157,299.6666667
158,299.6666667
159,299.6666667
160,299.6666667
161,299.6666667
162,299.6666667
163,299.6666667
164,299.6666667
165,299.6666667
166,299.6666667
167,299.6666667
168,299.6666667
169,299.6666667
170,299.6666667
171,299.6666667
172,299.6666667
173,299.6666667
174,299.6666667
175,299.6666667
176,299.6666667
177,299.6666667
178,299.6666667
179,299.6666667
180,299.6666667
181,299.6666667
182,299.6666667
183,299.6666667
184,299.6666667
185,299.6666667
186,299.6666667
187,299.6666667
188,299.6666667
189,299.6666667
190,299.6666667
191,299.6666667
192,299.6666667
193,299.6666667
194,299.6666667
195,299.6666667
196,299.6666667
197,299.6666667
198,299.6666667
199,323.4359512
200,406.6141459
201,489.792338
202,517.132487
203,520.8773804
204,523.6164602
205,519.094101
206,514.5717367
207,513.8661448
208,516.3872172
209,518.9082947
210,515.5719198
211,512.0144653
212,510.6345774
213,512.7055817
214,514.7765961
215,514.9038595
216,514.580068
217,516.1217295
218,523.6379649
219,531.1542206
220,534.400411
221,535.5025737
222,536.2348938
223,533.4454244
224,530.6559499
225,530.5279948
226,532.7998301
227,535.0716604
228,530.3125916
229,525.2466532
230,521.962855
231,521.442983
232,520.9230855
233,517.3902435
234,513.2286784
235,510.5620422
236,512.0584819
237,513.5549113
238,513.0852407
239,511.7832286
240,510.5831655
241,509.9969228
242,509.41067
243,508.3295492
244,506.8956502
245,505.4547679
246,503.7591604
247,502.0635478
248,501.105189
249,500.9746857
250,500.8441722
251,502.8089905
252,504.9636383
253,503.2154338
254,494.6570841
255,486.0987549
256,486.2010498
257,488.2928619
258,490.1608887
259,491.4036357
260,492.6463928
261,491.2206828
262,488.7337392
263,486.9983571
264,488.9628957
265,490.9274496
266,489.2146098
267,485.2831879
268,481.7716827
269,483.0829214
270,484.39416
271,483.7648366
272,481.4688212
273,479.1728007
274,479.5594482
275,479.9532776
276,479.2638957
277,477.2935537
278,475.323232
279,474.7432099
280,474.2831879
281,474.8340861
282,477.0040029
283,479.1739146
284,483.9166209
285,489.1143239
286,490.2701111
287,482.6993866
288,475.128652
289,474.8442129
290,476.5568594
291,478.7565816
292,482.3816376
293,486.0066834
294,490.9738668
295,496.4476064
296,499.993866
297,495.7706706
298,491.5474548
299,490.6999359
300,491.4922485
301,493.2480825
302,500.5152639
303,507.7824707
304,507.7685954
305,503.4057058
306,499.8049469
307,502.7152659
308,505.6255697
309,503.3488363
310,497.3924255
311,491.7582499
312,490.632487
313,489.5067139
314,485.5750783
315,479.3466238
316,473.2714996
317,471.481425
318,469.6913401
319,469.7659556
320,471.5570882
321,473.3223063
322,471.9947561
323,470.667216
324,469.2401632
325,467.7125855
326,466.1850026
327,467.6767934
328,469.2052816
329,469.2019704
330,467.5395915
331,465.877238
332,469.3960673
333,473.055425
334,474.8752136
335,474.6089223
336,474.3426259
337,470.4761149
338,466.4793803
339,463.7777914
340,462.578064
341,461.3783366
342,459.022522
343,456.6216482
344,455.9517873
345,457.2863922
346,458.620992
347,460.1498159
348,461.6855164
349,463.5667623
350,465.8382619
351,468.1097768
352,462.6268921
353,456.9447937
354,456.1266988
355,460.5412852
356,464.9558665
357,456.8502604
358,448.6182302
359,444.8011881
360,445.4038951
361,446.0475922
362,450.4029897
363,454.7583771
364,457.5003103
365,458.7741852
366,459.8228811
367,455.1269226
368,450.4309744
369,448.0733541
370,447.6034648
371,447.3226268
372,449.5390422
373,451.7554627
374,453.3394419
375,454.4819133
376,456.0124563
377,460.7194977
378,465.4265442
379,461.78066
380,453.2357076
381,445.5977122
382,442.9721222
383,440.346522
384,438.5414785
385,437.1268667
386,436.6169535
387,439.6500702
388,442.6831614
389,441.9230601
390,439.764918
391,438.6568604
392,440.5463562
393,442.4358368
394,443.5264587
395,444.4042358
396,447.6481883
397,455.8906759
398,464.1331634
399,466.1997019
400,467.2137197
401,466.4389343
402,462.8539531
403,459.2689718
404,457.5601247
405,456.0034587
406,456.6072591
407,459.7224223
408,462.8466644
409,472.604243
410,482.3618317
411,492.3429108
412,502.5130564
413,511.9410502
414,513.2300212
415,514.5190074
416,509.7662964
417,501.416921
418,492.6355794
419,481.7682038
420,470.9008484
421,460.8580831
422,451.1396434
423,444.6315409
424,447.0115916
425,449.3916423
426,450.221227
427,450.6975149
428,448.8881836
429,443.1012522
430,437.3143209
431,435.7090607
432,434.4828644
433,434.4423879
434,435.7374675
435,437.0822703
436,440.3559621
437,443.6296692
438,439.2468058
439,429.3516439
440,421.6029256
441,427.1338196
442,432.664739
443,430.7550202
444,425.6307932
445,422.6475728
446,425.7922923
447,428.9370015
448,429.4438375
449,429.3754374
450,427.9386902
451,424.3111572
452,420.683609
453,420.4349772
454,420.3665008
455,421.6409709
456,424.1763967
457,425.9959056
458,419.9621328
459,413.92836
460,409.7732392
461,406.6173503
462,405.01032
463,408.7858836
464,412.5614421
465,413.6612091
466,414.0733287
467,412.8874257
468,408.9699504
469,405.052475
470,403.8595123
471,402.8279877
472,403.7300161
473,406.4135641
474,408.8468679
475,408.9845632
476,409.1222687
477,409.260025
478,409.3978017
479,408.0403087
480,402.38797
481,396.7356415
482,397.0505219
483,398.4989268
484,400.5035451
485,403.264033
486,405.9619497
487,401.6806539
488,397.3993632
489,394.6383972
490,392.9110413
491,391.9937134
492,394.689977
493,397.3862305
494,396.6108602
495,394.8122864
496,394.7471771
497,397.7234853
498,400.6997884
499,401.2963867
500,401.781189
501,399.6427205
502,395.3462219
503,392.1246694
504,395.3142853
505,398.5038859
506,396.0990194
507,391.728063
508,388.9974569
509,389.4834035
510,389.9693553
511,393.1239268
512,396.4581095
513,396.0945536
514,392.5498759
515,389.5291189
516,389.7377523
517,389.9463857
518,391.240921
519,392.9109802
520,394.4117991
521,395.595459
522,396.7791138
523,396.633906
524,396.4249013
525,395.1974386
526,393.1758677
527,392.0486603
528,395.2571818
529,398.4656983
530,401.5666046
531,404.6374308
532,404.5491587
533,399.5910289
534,394.6528626
535,392.6265106
536,390.6001638
537,389.1814728
538,388.1327413
539,387.3000692
540,387.1601512
541,387.0202433
542,389.3349457
543,392.0648702
544,392.3040873
545,389.782664
546,387.6725413
547,389.4946391
548,391.3167521
549,390.5772807
550,388.8242239
551,387.4998271
552,387.0086771
553,386.5175222
554,386.3646088
555,386.2241974
556,385.0885061
557,383.2620697
558,382.0322825
559,382.9460348
560,383.859787
561,385.3693848
562,386.9869741
563,385.6860301
564,381.1822408
565,377.1514079
566,377.0105692
567,376.8697459
568,379.1317647
569,382.231781
570,381.5700582
571,374.6613871
572,367.8325144
573,367.761968
574,367.6914317
575,370.4603831
576,374.7657725
577,377.5693766
578,376.6512909
579,375.7332102
580,374.4213715
581,373.0787608
582,372.7413483
583,373.1655833
584,372.3915151
585,367.1562093
586,361.9209086
587,364.5597432
588,368.523936
589,370.2868602
590,369.8618673
591,368.9737447
592,365.4300944
593,361.886439
594,362.8619995
595,364.9894409
596,365.0891113
597,362.6765696
598,360.6041616
599,361.6691437
600,362.734141
601,363.3198395
602,363.7460785
603,364.8046723
604,366.7950032
605,368.5140178
606,365.9535166
607,363.3930105
608,361.1882833
609,359.1244252
610,357.6733551
611,357.2460988
612,356.9734599
613,361.1060384
614,365.2386322
615,366.9953308
616,367.7082621
617,369.032608
618,371.4580282
619,373.7713877
620,370.7735087
621,367.7756246
622,364.1399028
623,360.2117818
624,356.8866883
625,354.671346
626,352.5227203
627,353.6667989
628,354.8108877
629,354.821579
630,354.3207499
631,354.3346303
632,355.2652995
633,356.353831
634,362.2992961
635,368.2447662
636,373.2329305
637,377.8200989
638,378.0269979
639,371.0704448
640,364.6871846
641,368.0598806
642,371.4325765
643,370.5966848
644,368.2272237
645,366.5966899
646,366.0219371
647,365.235728
648,362.3602499
649,359.4847717
650,356.6635997
651,353.8583374
652,352.7603353
653,353.6959788
654,354.8038991
655,356.9643504
656,359.1248016
657,360.5717773
658,361.8688202
659,360.6122996
660,356.9351857
661,353.7088827
662,352.2660167
663,350.8231659
664,351.1171621
665,351.6224619
666,352.2121124
667,352.8621725
668,353.0350037
669,351.9509379
670,350.866862
671,348.2404887
672,345.5648702
673,344.1859996
674,343.4624278
675,344.0451813
676,346.9411723
677,349.5003306
678,346.6750641
679,343.8498027
680,346.2443695
681,350.3035634
682,350.8691152
683,347.3152161
684,345.1977183
685,350.5680084
686,355.9383087
687,360.3071086
688,364.5187531
689,365.1340892
690,363.0270233
691,359.8989055
692,354.0828501
693,348.2667948
694,348.8815766
695,349.6090139
696,346.2086945
697,340.9680328
698,337.7748006
699,337.6291453
700,337.0950063
701,333.5242233
702,329.9534302
703,331.3217036
704,333.7279485
705,334.5572281
706,334.0465139
707,334.5084915
708,337.7936198
709,341.0787405
710,337.2566528
711,333.2391103
712,331.6967189
713,331.2581813
714,331.3909988
715,332.3417231
716,333.1666692
717,333.1666692
718,333.1666692
719,332.8537649
720,332.4876684
721,331.5705236
722,330.2517904
723,329.2220764
724,328.8555476
725,328.6516851
726,333.7128245
727,338.773969
728,336.7743658
729,332.5175476
730,330.6551361
731,331.3160655
732,331.1624985
733,328.0763245
734,324.9901352
735,327.3457159
736,329.9925766
737,330.6827393
738,330.462031
739,329.5968628
740,327.8301901
741,326.3895772
742,326.7578558
743,327.1261241
744,327.5601832
745,328.0023753
746,328.0739772
747,327.9264908
748,327.6974386
749,327.3285141
750,327.5419083
751,332.4885101
752,337.4351095
753,332.8790029
754,326.673617
755,323.0652847
756,321.2173589
757,322.1957347
758,328.6303635
759,334.2985611
760,332.0044022
761,329.7102407
762,331.9324417
763,335.0425084
764,333.4295095
765,328.4652735
766,325.0671667
767,324.7706146
768,324.6167475
769,325.952006
770,327.2872645
771,324.6296361
772,321.215299
773,319.4354528
774,318.7670314
775,318.9857127
776,320.843544
777,322.4999924
778,322.5000026
779,322.5
780,322.4354986
781,322.3610942
782,321.4466782
783,320.0322164
784,319.079951
785,318.8564733
786,318.9922333
787,321.1537094
788,323.3151983
789,317.0890401
790,310.0787074
791,309.5578512
792,312.0950089
793,315.6657181
794,320.5190481
795,323.3416545
796,318.7095846
797,314.0775147
798,317.6752167
799,321.4129741
800,322.5024745
801,322.7268728
802,325.5082601
803,330.5976512
804,331.7057724
805,323.4680405
806,316.0253118
807,318.647962
808,321.2706172
809,321.0301158
810,320.2803497
811,316.0544688
812,309.7526398
813,307.7915701
814,312.2204819
815,315.7779744
816,315.477534
817,315.1770884
818,312.9901988
819,310.7355423
820,309.4919459
821,308.5895487
822,307.8867772
823,307.3600693
824,306.571223
825,305.2160161
826,304.4952037
827,309.3165919
828,314.1379751
829,310.9083354
830,306.6871236
831,305.7432073
832,306.3465983
833,305.6390228
834,303.4504369
835,302.4642995
836,304.8807195
837,307.309461
838,309.9539897
839,312.5985234
840,311.0121104
841,308.6684342
842,305.9343007
843,302.9840342
844,303.5672429
845,308.638649
846,312.9156393
847,314.6576055
848,316.3506241
849,316.8053182
850,317.2600123
851,316.3793259
852,315.2419154
853,310.6035817
854,304.0026703
855,300.5356369
856,300.9911423
857,301.9758072
858,304.5585378
859,307.0789973
860,308.5231425
861,309.9672928
862,315.3453903
863,321.3535741
864,317.7718201
865,309.477122
866,306.4101995
867,308.9990718
868,309.5452855
869,305.1263453
870,301.6261902
871,306.0477549
872,310.4693273
873,306.6333746
874,302.0566228
875,303.7973099
876,307.8425014
877,306.8992106
878,301.8588079
879,299.4512405
880,301.5908635
881,302.5811234
882,298.528717
883,294.52683
884,299.1171901
885,303.7075475
886,300.4465002
887,295.5472132
888,295.0783742
889,296.9932912
890,298.9451065
891,300.9377975
892,301.4140625
893,298.34655
894,295.3078918
895,292.4687576
896,289.6296234
897,295.7282689
898,302.2544785
899,300.3556188
900,296.1302643
901,296.0107651
902,298.4706065
903,299.5245844
904,298.8323364
905,297.1946996
906,293.1157354
907,289.6486715
908,290.9577993
909,292.2669195
910,291.3093135
911,290.2305705
912,290.4849625
913,291.1017482
914,291.9114914
915,292.8372218
916,296.1275584
917,302.1484121
918,304.2607854
919,297.4639842
920,290.9847921
921,286.3478622
922,281.7109171
923,287.1045736
924,292.5948741
925,294.792366
926,296.3398463
927,292.8784866
928,287.0719808
929,283.2282461
930,281.1366628
931,281.147878
932,284.6359202
933,289.0737712
934,296.752032
935,303.0731099
936,293.2949677
937,283.5168279
938,282.6166662
939,282.3837179
940,282.8204829
941,283.4420497
942,282.5247447
943,280.7366562
944,279.6793722
945,279.3682124
946,279.797287
947,281.5874939
948,282.9835764
949,282.9056855
950,282.5788981
951,278.9942296
952,275.4095484
953,276.1116435
954,277.1253103
955,274.0468521
956,269.9117737
957,268.8598963
958,269.4063619
959,272.1618551
960,276.9267629
961,277.9434179
962,273.0975215
963,269.9029363
964,271.4670614
965,272.4967957
966,269.8362045
967,267.1756261
968,267.3227387
969,267.4793345
970,267.5680084
971,267.6463547
972,266.0988719
973,263.9822896
974,266.2522583
975,271.2723414
976,274.2562409
977,275.1195806
978,274.5159836
979,271.3746923
980,269.4794057
981,271.4438629
982,272.7023926
983,268.9283702
984,265.1779633
985,268.6395366
986,272.1011175
987,269.2961935
988,265.6751251
989,264.2287877
990,263.441129
991,264.0909729
992,265.5095952
993,263.4996338
994,258.5314942
995,256.635437
996,258.9237188
997,260.942187
998,262.3633448
999,264.4331029
1000,269.0941086
1001,272.9542186
1002,268.7647222
1003,264.5752258
1004,264.1116282
1005,263.7161586
1006,267.6823781
1007,272.2725627
1008,266.0267538
1009,256.5241725
1010,256.4910787
1011,261.2451909
1012,261.7327932
1013,258.8786316
1014,255.3688685
1015,251.0850779
1016,249.9514542
1017,254.4759242
1018,257.2801895
1019,255.1357422
1020,254.1825892
1021,259.5071513
1022,264.3018468
1023,261.121109
1024,257.9403763
1025,258.8328731
1026,259.8672282
1027,260.2775752
1028,260.5960236
1029,258.9929453
1030,256.8421275
1031,255.0184708
1032,253.3446121
1033,253.2835515
1034,254.320371
1035,257.252533
1036,262.0406774
1037,262.437322
1038,256.6881256
1039,254.228653
1040,258.4632161
1041,260.5376155
1042,255.9008077
1043,252.1015752
1044,252.741511
1045,253.261111
1046,252.3006312
1047,251.3401515
1048,251.8899689
1049,252.4505819
1050,258.5649185
1051,265.2161382
1052,258.86129
1053,249.8808111
1054,247.4248683
1055,247.103948
1056,248.5197373
1057,250.7675273
1058,249.4978994
1059,245.8832296
1060,245.601649
1061,248.3343506
1062,249.2161052
1063,247.848938
1064,247.3965302
1065,248.442627
1066,249.4889247
1067,250.5356446
1068,251.9275513
1069,254.4250692
1070,255.9543966
1071,252.7298762
1072,248.3565572
1073,233.8375778
1074,220.3197606
1075,234.0402883
1076,247.7608058
1077,248.8719839
1078,249.598793
1079,247.0293477
1080,244.1203613
1081,243.8713938
1082,244.1139552
1083,246.7627793
1084,250.0797272
1085,249.1283137
1086,246.5379359
1087,244.5915909
1088,242.971639
1089,242.6280034
1090,243.1142756
1091,240.3476664
1092,234.9143804
1093,233.8912659
1094,237.3803686
1095,238.2252248
1096,235.7083257
1097,234.7962265
1098,236.4210002
1099,237.9368718
1100,239.2374649
1101,239.8182856
1102,238.5982488
1103,235.9157613
1104,228.5098496
1105,224.5722962
1106,235.565623
1107,244.5147044
1108,241.0925319
1109,238
1110,238
1111,237.8173777
1112,234.3095525
1113,230.8693746
1114,234.8690491
1115,238.8687185
1116,238.8420181
1117,238.6786677
1118,240.4839656
1119,242.4453201
1120,244.2626216
1121,246.0616048
1122,242.721344
1123,238.4666901
1124,243.3834915
1125,250.4242198
1126,245.7052155
1127,237.5953623
1128,233.4939753
1129,230.7890879
1130,230.4066239
1131,230.9807281
1132,230.3898672
1133,229.2409719
1134,228.9392904
1135,229.1035156
1136,229.6723353
1137,230.4939575
1138,231.0263468
1139,231.3551839
1140,232.006368
1141,232.9112218
1142,231.840327
1143,229.0418396
1144,229.34213
1145,232.6364212
1146,232.8948364
1147,229.9282074
1148,227.1895345
1149,224.7158737
1150,225.0073726
1151,228.8025716
1152,229.2275111
1153,225.0172882
1154,224.4928716
1155,229.4490128
1156,230.7207922
1157,226.0923029
1158,223.3492228
1159,223.845431
1160,223.8457057
1161,222.9354553
1162,222.9779841
1163,224.8823675
1164,225.869929
1165,224.9586029
1166,224.6195704
1167,225.5314509
1168,226.2924932
1169,226.7072271
1170,226.5118536
1171,224.8519236
1172,224.117864
1173,225.6957372
1174,226.6246592
1175,225.8768056
1176,224.4471334
1177,221.2044983
1178,218.8109741
1179,218.7277832
1180,220.2573827
1181,226.2509181
1182,229.7238286
1183,226.1422196
1184,222.8223674
1185,220.2387543
1186,218.2238795
1187,217.8069204
1188,218.3147812
1189,221.4021302
1190,223.3328959
1191,222.0805257
1192,220.6247253
1193,218.6197484
1194,218.501236
1195,223.3495
1196,225.0679372
1197,218.7949041
1198,213.7774836
1199,211.8526128
1200,210.2759374
1201,209.5222778
1202,209.411588
1203,210.7522278
1204,211.5867106
1205,211.3351873
1206,213.2428309
1207,219.5345433
1208,221.5922241
1209,215.5485865
1210,213.9798762
1211,220.4470597
1212,222.1157049
1213,215.7287165
1214,212.0957616
1215,212.7684759
1216,212.9949849
1217,212.5742874
1218,213.1965968
1219,215.2171428
1220,215.5415522
1221,213.7725271
1222,212.9519526
1223,213.2048213
1224,213.0015208
1225,212.3268026
1226,211.738912
1227,211.2325719
1228,212.6892446
1229,215.8135274
1230,214.3886363
1231,209.4881922
1232,208.6052984
1233,210.4651922
1234,213.484876
1235,217.2068736
1236,216.9534403
1237,214.5834859
1238,215.4540914
1239,217.8254496
1240,219.1670075
1241,220.0991643
1242,221.6031596
1243,223.2990061
1244,218.483668
1245,211.8659413
1246,211.4312617
1247,212.3650869
1248,209.7384822
1249,206.5106252
1250,206.3185374
1251,206.4885279
1252,208.9584859
1253,211.5948741
1254,211.6666641
1255,211.6171697
1256,208.1261877
1257,205.0025635
1258,207.9844513
1259,210.6152674
1260,210.1037827
1261,209.5798569
1262,208.9827677
1263,208.0588049
1264,205.7543895
1265,204.1223043
1266,204.634697
1267,204.7546997
1268,203.9001948
1269,203.5635783
1270,204.2475917
1271,205.7270203
1272,208.464681
1273,210.1879731
1274,210.6159948
1275,208.7253596
1276,204.4426804
1277,205.5438156
1278,211.1146113
1279,211.7337036
1280,209.0752767
1281,204.2696076
1282,198.3489558
1283,200.4158529
1284,205.6531703
1285,203.43927
1286,199.0579274
1287,202.3509751
1288,207.1647161
1289,208.3600464
1290,209.1341451
1291,207.8475291
1292,206.43735
1293,203.5095037
1294,201.0777588
1295,203.9211833
1296,205.9541066
1297,203.4538574
1298,201.5754089
1299,201.9204763
1300,201.2267532
1301,197.946668
1302,194.3279343
1303,190.0958252
1304,190.42792
1305,196.9094874
1306,199.1342494
1307,197.0589142
1308,195.9693654
1309,195.6232732
1310,196.5032934
1311,198.0616455
1312,198.6867778
1313,198.9466578
1314,195.4178849
1315,190.9106242
1316,187.9890696
1317,185.3004506
1318,188.9599711
1319,192.8694433
1320,194.0851034
1321,195.2625071
1322,196.1313527
1323,196.2656631
1324,193.3098272
1325,191.7884852
1326,194.0501709
1327,195.9374085
1328,197.1559652
1329,195.3965403
1330,189.9097875
1331,188.1191177
1332,189.6005504
1333,190.1666692
1334,190.1666692
1335,189.8584976
1336,189.4222641
1337,189.6113408
1338,189.960537
1339,189.8450419
1340,189.6703415
1341,193.7737401
1342,198.599584
1343,211.5428365
1344,220.7469101
1345,211.2087123
1346,204.785347
1347,207.1494293
1348,205.9363505
1349,198.314237
1350,194.1267039
1351,194.0390422
1352,192.9783834
1353,191.1363754
1354,188.0298538
1355,184.255881
1356,183.5323893
1357,183.795845
1358,184.3609085
1359,184.9760081
1360,180.5218379
1361,176.3450356
1362,179.0722834
1363,181.0624797
1364,179.4779714
1365,178.1621742
1366,177.5456111
1367,179.3744265
1368,185.1030553
1369,184.8179169
1370,178.3804105
1371,178.3929494
1372,182.6283442
1373,185.665301
1374,188.2257055
1375,181.938914
1376,173.8114116
1377,173.7493083
1378,174.4474754
1379,179.4889781
1380,183.0146281
1381,179.2091268
1382,176.7806371
1383,177.7547124
1384,178.0095851
1385,177.2121379
1386,177.9038366
1387,179.9429677
1388,180.952802
1389,181.3963521
1390,179.0512212
1391,175.8557396
1392,174.2371432
1393,172.8678475
1394,175.7116534
1395,177.7776515
1396,174.9321569
1397,173.2769331
1398,174.9674467
1399,176.8662542
1400,179.0919393
1401,178.4161758
1402,175.0311216
1403,173.5453657
1404,173.0996997
1405,175.2155062
1406,178.0694631
1407,175.0938047
1408,171.6880442
1409,172.2237956
1410,172.7905858
1411,173.5053469
1412,173.5044594
1413,171.8952904
1414,170.8809484
1415,170.6125972
1416,172.5260735
1417,176.0167529
1418,174.1050886
1419,170.0749944
1420,168.6549174
1421,167.6691971
1422,170.4391238
1423,172.6218681
1424,171.0966721
1425,169.9747785
1426,169.8850072
1427,169.2615369
1428,167.9141744
1429,168.765021
1430,171.2815895
1431,171.0361265
1432,169.6871643
1433,168.1050148
1434,166.5474027
1435,171.7695898
1436,176.2236036
1437,176.5839691
1438,176.0836283
1439,173.6497256
1440,171.7535388
1441,170.4907595
1442,167.6273969
1443,163.7465668
1444,164.2144292
1445,166.0205383
1446,168.8242124
1447,171.4865112
1448,171.3056844
1449,170.6437658
1450,168.3821068
1451,167.1760165
1452,167.6286176
1453,168.5278206
1454,169.7958552
1455,170.2307917
1456,170.32142
1457,168.2067846
1458,165.8305537
1459,165.7398224
1460,165.7722181
1461,166.316953
1462,166.4390043
1463,165.8031019
1464,164.5961469
1465,162.8690999
1466,162.6470133
1467,163.101771
1468,163.7127915
1469,164.3757719
1470,166.0148366
1471,166.4957975
1472,162.2134794
1473,159.3330015
1474,158.8771655
1475,160.8269132
1476,164.8406575
1477,164.8315951
1478,163.1886368
1479,160.6555303
1480,158.276872
1481,160.1045469
1482,160.8728968
1483,158.2211863
1484,157.95379
1485,161.0645345
1486,161.5202255
1487,160.147021
1488,157.7130534
1489,154.9650167
1490,155.0951233
1491,155.1249199
1492,153.5658506
1493,152.8483607
1494,153.9495354
1495,156.3367793
1496,160.0095367
1497,160.2227478
1498,158.844649
1499,158.9068324
1500,159.1613503
1501,159.0693639
1502,159.2489446
1503,160.2613513
1504,158.3093872
1505,152.5076167
1506,154.0205943
1507,159.9179535
1508,158.2897771
1509,155.0319341
1510,158.6299044
1511,160.8277168
1512,157.5045408
1513,155.2434464
1514,154.5968908
1515,157.2349116
1516,162.1331736
1517,159.5184924
1518,154.89475
1519,152.8247185
1520,151.0979703
1521,150.7276306
1522,150.2144191
1523,149.4733035
1524,150.5795657
1525,152.9896228
1526,152.4033801
1527,151.0121371
1528,152.9318911
1529,154.754008
1530,156.0540466
1531,157.577694
1532,159.4359881
1533,157.1767108
1534,152.2493172
1535,150.80321
1536,150.2607867
1537,154.4493892
1538,157.8826447
1539,158.8139954
1540,157.9316394
1541,154.7631594
1542,155.3740158
1543,157.9849015
1544,155.7461434
1545,153.1123276
1546,154.5126775
1547,153.5163129
1548,146.7906634
1549,144.3592555
1550,146.041668
1551,149.9022281
1552,154.5783615
1553,150.6749814
1554,147.384903
1555,149.7257424
1556,149.4378001
1557,144.9407247
1558,144.2451668
1559,146.0263151
1560,147.8859723
1561,149.5140801
1562,146.5106939
1563,143.920077
1564,142.4174919
1565,143.5001615
1566,147.1648852
1567,146.11704
1568,143.2963549
1569,142.0896288
1570,141.8193245
1571,145.396431
1572,145.482385
1573,140.5844955
1574,140.8314769
1575,143.9415957
1576,142.272733
1577,140.1666667
1578,140.1666667
1579,139.3633385
1580,137.0029996
1581,137.3038216
1582,139.5710933
1583,139.6167806
1584,139.2612826
1585,141.2474963
1586,143.1800092
1587,144.9781265
1588,143.2512105
1589,138.3271345
1590,139.2668419
1591,142.006546
1592,143.2390226
1593,142.9935354
1594,138.2504234
1595,135.69369
1596,135.4089355
1597,136.1006877
1598,137.1454061
1599,138.4700254
1600,139.1134682
1601,137.4018975
1602,137.3551585
1603,139.1628863
1604,136.7825534
1605,132.7841593
1606,132.3892937
1607,132.4825567
1608,133.9122467
1609,134.7117106
1610,134.8070793
1611,135.4557495
1612,136.314579
1613,133.4380264
1614,131.5222778
1615,133.0508944
1616,134.5332908
1617,135.967219
1618,134.3388926
1619,131.6658058
1620,131.2829704
1621,132.0741603
1622,136.1920649
1623,137.4684347
1624,136.1269277
1625,133.4366862
1626,130.5123253
1627,130.8001353
1628,131.7919362
1629,134.3837268
1630,135.6640421
1631,135.9521917
1632,132.4729627
1633,129.6175448
1634,139.1376597
1635,142.5556069
1636,135.4353511
1637,130.8783442
1638,127.797493
1639,129.9368846
1640,132.0497081
1641,131.3749746
1642,130.6572126
1643,129.8856316
1644,126.6945915
1645,122.5448837
1646,126.1296628
1647,128.2739245
1648,126.148304
1649,128.0803375
1650,133.4942042
1651,132.2946599
1652,129.7008209
1653,128.2489611
1654,128.5852788
1655,131.9749603
1656,133.5436872
1657,134.1251145
1658,130.5653381
1659,128.0492109
1660,130.6687469
1661,132.5251655
1662,133.5930163
1663,132.1020101
1664,129.9655202
1665,129.38237
1666,129.6027095
1667,131.3532041
1668,128.0120634
1669,121.6871007
1670,125.3662771
1671,127.9767685
1672,123.0082321
1673,120.0173009
1674,119.0425021
1675,120.7485377
1676,123.1347046
1677,124.8914184
1678,125.6757406
1679,124.7968648
1680,124.7588259
1681,125.1496671
1682,126.4758962
1683,126.5393257
1684,122.7241008
1685,120.5171471
1686,119.6361898
1687,119.6656011
1688,119.8051643
1689,119.6091639
1690,120.4991875
1691,122.7545191
1692,121.0723483
1693,118.2456258
1694,120.0127563
1695,121.3711904
1696,121.9605815
1697,120.3129234
1698,117.4625168
1699,118.2722397
1700,118.9232368
1701,118.6280225
1702,117.6077538
1703,116.0323283
1704,116.1776441
1705,115.8719571
1706,112.4216334
1707,111.926815
1708,114.4914233
1709,114.6834997
1710,114.6123797
1711,117.0812658
1712,117.0709521
1713,113.7112859
1714,113.1985054
1715,113.7610448
1716,115.5417938
1717,116.6666667
1718,116.6666654
1719,115.9207522
1720,114.8337174
1721,115.0319278
1722,114.4680583
1723,112.2864393
1724,113.086366
1725,115.566939
1726,114.4278959
1727,113.3324712
1728,112.7364273
1729,111.6604118
1730,110.2688281
1731,107.4941444
1732,106.9558334
1733,113.4243838
1734,113.2412504
1735,108.1629257
1736,110.9029744
1737,113.2319845
1738,111.337827
1739,109.6099294
1740,108.0139084
1741,107.9218508
1742,108.5418523
1743,111.0385831
1744,110.9615466
1745,108.7631276
1746,106.8276278
1747,104.8422216
1748,102.5411631
1749,105.8300273
1750,113.7383308
1751,115.3739179
1752,115.6054993
1753,113.8014819
1754,112.2197876
1755,110.8158366
1756,113.805481
1757,115.448391
1758,110.9303551
1759,107.6766268
1760,105.3660507
1761,107.0035744
1762,107.5743307
1763,103.9535052
1764,104.6685994
1765,108.2915624
1766,105.9375954
1767,105.0422541
1768,108.6694883
1769,108.2764422
1770,105.5544116
1771,105.0057055
1772,104.6335793
1773,104.5326449
1774,103.4750404
1775,102.2234383
1776,110.7119675
1777,114.9706624
1778,112.240598
1779,110.6889979
1780,109.3865522
1781,105.9446373
1782,103.2949842
1783,101.6743062
1784,101.9735629
1785,102.8433418
1786,104.0602824
1787,103.0375532
1788,99.79046251
1789,98.89714559
1790,98.47788429
1791,98.37629128
1792,98.45066708
1793,98.65396753
1794,99.81095378
1795,100.6058273
1796,100.402284
1797,101.6126823
1798,103.4175059
1799,100.0551097
1800,97.92072425
1801,97.71682229
1802,97.89742024
1803,97.93354162
1804,95.99419469
1805,97.38916017
1806,102.2914492
1807,101.6012624
1808,100.0578257
1809,98.830808
1810,95.10929871
1811,89.68678791
1812,94.83765412
1813,99.26056037
1814,101.5140648
1815,102.1666667
1816,101.881485
1817,98.49724578
1818,95.91293335
1819,94.27112452
1820,97.94303386
1821,100.3624051
1822,94.19837634
1823,94.21079062
1824,98.52814993
1825,105.6355082
1826,107.543738
1827,99.5163447
1828,99.88238397
1829,102.3791631
1830,96.71215819
1831,93.17392095
1832,91.83365949
1833,94.73702241
1834,96.68986002
1835,94.21261915
1836,93.93291981
1837,94.88832856
1838,96.64510599
1839,97.4935735
1840,97.0799726
1841,99.00297037
1842,99.37889608
1843,91.09711394
1844,89.3049539
1845,92.10169919
1846,91.76172067
1847,91.49999873
1848,91.5
1849,90.39363672
1850,89.31187949
1851,90.24632072
1852,90.32373428
1853,89.70040639
1854,95.17272694
1855,97.50371679
1856,93.13529332
1857,91.22975541
1858,91.15627798
1859,97.0918223
1860,96.46921539
1861,90.21760115
1862,89.14840698
1863,88.73757745
1864,88.94621023
1865,90.70426241
1866,92.57555135
1867,91.94891867
1868,89.36945279
1869,85.1894544
1870,86.39751182
1871,87.97489928
1872,89.75348475
1873,91.37214343
1874,92.50112533
1875,91.55841447
1876,81.30475362
1877,64.43079567
1878,79.13868141
1879,88.63734818
1880,90.21130371
1881,87.07063167
1882,83.97777367
1883,84.6080958
1884,86.45461973
1885,88.73724365
1886,87.05441347
1887,87.95665232
1888,91.74524371
1889,93.19612756
1890,93.38744099
1891,91.38556099
1892,89.61185774
1893,88.6954651
1894,92.38746644
1895,91.38427353
1896,86.74017333
1897,87.29029593
1898,86.80854225
1899,84.69511097
1900,82.84355481
1901,82.43508084
1902,86.13792611
1903,87.3333327
1904,87.0286808
1905,84.06292853
1906,81.60103226
1907,79.58737819
1908,77.97836368
1909,80.22664515
1910,88.60902913
1911,88.52431106
1912,87.59700394
1913,90.0403061
1914,86.8129158
1915,81.52285321
1916,81.735562
1917,82.17835235
1918,82.81685765
1919,83.04079756
1920,81.38026111
1921,77.01202965
1922,81.55573209
1923,85.37006442
1924,83.13005575
1925,82.26987075
1926,82.06712914
1927,82.4942964
1928,81.83808962
1929,80.46072833
1930,79.39155705
1931,81.69632467
1932,87.6871961
1933,84.81849988
1934,82.34450404
1935,81.91608429
1936,80.96865146
1937,80.32857894
1938,80.97196261
1939,78.6974837
1940,76.20774905
1941,79.96521505
1942,79.97498322
1943,77.52578227
1944,78.17067592
1945,78.81575075
1946,79.46102078
1947,81.42103895
1948,82.54044724
1949,82.21743648
1950,80.25984638
1951,78.2840271
1952,76.99046706
1953,78.28388023
1954,80.79440308
1955,84.67962646
1956,82.2217617
1957,76.92699687
1958,74.87406158
1959,75.17956225
1960,77.07841873
1961,74.37402852
1962,74.86359406
1963,78.65195274
1964,71.20269013
1965,66.72389158
1966,67.2657191
1967,68.94659932
1968,80.73095958
1969,111.9767011
1970,98.05810291
1971,78.50843302
1972,74.16367276
1973,73.55701574
1974,74.10186005
1975,73.77562078
1976,74.17395401
1977,74.40932211
1978,71.25200145
1979,69.60556539
1980,69.00801277
1981,69.1170133
1982,70.71060562
1983,73.44836045
1984,70.28365771
1985,70.80268606
1986,75.1703434
1987,70.2847875
1988,68.33701388
1989,70.63271459
1990,73.82804934
1991,74.81177711
1992,72.18505987
1993,66.33222262
1994,62.99634425
1995,65.40697925
1996,67.45778529
1997,70.16287168
1998,74.55096817
1999,71.11263847
2000,67.8451589
2001,71.03024038
2002,69.53214073
2003,67.31923612
2004,67.97898801
2005,68.63901393
2006,69.7410965
2007,72.60335668
2008,70.54985619
2009,67.47850863
2010,70.2338918
2011,69.27004878
2012,66.78362529
2013,66.45259349
2014,66.82775497
2015,67.65819868
2016,68.87339719
2017,69.53943443
2018,69.38053067
2019,65.39887937
2020,64.16909854
2021,64.62203217
2022,64.17911085
2023,64.85788663
2024,66.14641508
2025,65.92469724
2026,63.94208082
2027,61.15165583
2028,62.9274737
2029,66.25973574
2030,70.01989683
2031,66.24188868
2032,63.95358467
2033,62.97353999
2034,64.64225006
2035,64.87684186
2036,63.85100746
2037,60.28694471
2038,58.70135307
2039,58.64002864
2040,60.0896155
2041,61.20392354
2042,61.71034304
2043,59.03106689
2044,61.57319895
2045,66.13010089
2046,61.77120717
2047,60.73199145
2048,61.15153122
2049,58.68980789
2050,59.8045578
2051,62.27839152
2052,61.94231161
2053,58.4248174
2054,54.48161062
2055,55.26670965
2056,57.39301491
2057,59.74445343
2058,60.86732864
2059,58.44740804
2060,55.69477145
2061,55.80718994
2062,57.99143283
2063,57.94179471
2064,50.73866908
2065,53.77484513
2066,56.69453685
2067,54.21558571
2068,55.64517403
2069,54.80248324
2070,48.82351939
2071,49.97522672
2072,51.21337891
2073,51.32632065
2074,53.45314153
2075,56.76112747
2076,61.28404617
2077,55.73804856
2078,51.539711
2079,48.91751862
2080,50.84310786
2081,48.35865052
2082,43.45513725
2083,46.29017703
2084,49.12625631
2085,50.96267764
2086,47.67021529
2087,45.71898015
2088,46.40339692
2089,54.01895205
2090,52.02139791
2091,49.00578117
2092,50.71273422
2093,53.55692037
2094,53.57162031
2095,48.33088812
2096,47.93650564
2097,46.58516121
2098,43.39144961
2099,1.538522165
2100,3.496229927
2101,43.69497172
2102,44.15200996
2103,46.05755234
2104,48.05078475
2105,44.96219953
2106,44.23640219
2107,44.76607704
2108,45.91132418
2109,32.81036536
2110,28.00940609
2111,49.22102483
2112,45.22083346
2113,40.57110977
2114,40.34152921
2115,42.88072936
2116,43.93074449
2117,43.58689531
2118,44.96677399
2119,44.15869458
2120,41.89643129
2121,39.24860478
2122,40.56556861
2123,41.85641098
2124,38.85975011
2125,38.52346262
2126,41.07269701
2127,47.41912779
2128,42.7610445
2129,39.65953859
2130,39.42585564
2131,48.21069718
2132,48.86037445
2133,44.48271942
2134,41.35817782
2135,44.61540953
2136,46.38062223
2137,38.38644536
2138,38.73844942
2139,32.22984855
2140,13.67119308
2141,35.40866026
2142,46.18699455
2143,45.93372758
2144,40.35647297
2145,41.68000348
2146,44.30087217
2147,39.88044262
2148,39.65247981
2149,39.65110048
2150,38.25356261
2151,39.58734894
2152,41.69446246
2153,43.98438199
2154,41.65111542
2155,43.4111468
2156,45.82667605
2157,42.78992526
2158,41.42362467
2159,40.10056559
2160,38.11270491
2161,42.96651141
2162,44.0423425
2163,41.19912688
2164,38.03646787
2165,39.6789697
2166,42.84274578
2167,43.54637019
2168,41.62384288
2169,40.79036236
2170,42.31664054
2171,40.35812251
2172,41.2428964
2173,44.01252874
2174,45.18862089
2175,42.2987229
2176,39.89662743
2177,41.66279856
2178,28.10295423
2179,24.42408053
2180,32.67910067
2181,39.52010822
2182,41.5990022
2183,39.80053934
2184,33.66015434
2185,34.25123914
2186,36.44544474
2187,38.98315621
2188,38.0368487
2189,35.86523946
2190,34.11777624
2191,37.19681803
2192,38.20932325
2193,38.36245028
2194,38.00676759
2195,40.90930398
2196,40.32056777
2197,37.17666785
2198,34.32629013
2199,37.04602432
2200,39.09338347
2201,37.07204247
2202,40.90083981
2203,42.13008054
2204,40.73016675
2205,37.03782876
2206,36.89513048
2207,38.06670284
2208,39.61688264
2209,44.51688703
2210,42.64480909
2211,37.58552265
2212,41.88573488
2213,40.69015535
2214,39.32242266
2215,40.15953541
2216,38.14983622
2217,36.47331906
2218,35.80340004
2219,38.07948208
2220,37.13195801
2221,35.09687614
2222,32.86030451
2223,38.38031388
2224,41.65232531
2225,42.5775156
2226,40.2948939
2227,38.95322832
2228,40.13911057
2229,42.69304943
2230,34.50959874
2231,35.51829751
2232,39.61968835
2233,42.51128006
2234,40.95555814
2235,40.6426541
2236,41.09171518
2237,39.76412138
2238,42.1118358
2239,42.11830425
2240,37.80822563
2241,37.20373599
2242,39.40590254
2243,41.89644877
2244,41.53333918
2245,39.19028537
2246,40.57850011
2247,43.75553385
2248,37.93579388
2249,37.42553711
2250,38.19813792
2251,38.72196547
2252,40.30085437
2253,40.83333333
2254,39.6646293
2255,35.65209071
2256,40.59718291
2257,41.5579443
2258,38.6803058
2259,36.00068569
2260,35.59909948
2261,37.40535641
2262,41.36529954
2263,46.00168069
2264,46.89825185
2265,44.58959007
2266,39.09285895
2267,45.48835309
2268,42.47020149
2269,37.2459348
2270,42.75209554
2271,42.23828093
2272,38.40141932
2273,33.20643743
2274,32.47102388
2275,35.72236824
2276,37.16477585
2277,35.40615463
2278,34.42392254
2279,34.52936204
2280,35.44281388
2281,36.98431206
2282,36.36936474
2283,34.10424455
2284,33.86777941
2285,39.77801291
2286,37.747118
2287,37.20907879
2288,37.03124809
2289,34.5644331
2290,34.33333333
2291,35.29419486
2292,36.25927035
2293,34.28244019
2294,34.31787841
2295,37.2698501
2296,41.51351579
2297,39.53330454
2298,40.78116099
2299,40.09015242
2300,36.89474233
2301,37.39064312
2302,40.69079113
2303,38.50967884
2304,29.73292637
2305,35.81808186
2306,43.58553441
2307,44.01760674
2308,34.16023986
2309,38.88740349
2310,36.89837551
2311,36.64611785
2312,42.41338571
2313,37.55353578
2314,32.69171047
2315,29.61952273
2316,29.57327032
2317,31.32081064
2318,37.39407031
2319,40.14686076
2320,34.56752269
2321,36.31804434
2322,35.33255355
2323,33.57925542
2324,32.66322072
2325,36.54598872
2326,35.25960795
2327,33.26233133
2328,33.55906296
2329,34.68824069
2330,37.09014448
2331,47.99152692
2332,67.83490817
2333,43.83040969
2334,37.29282665
2335,36.36912886
2336,35.09386635
2337,36.10100301
2338,34.49212392
2339,35.30357838
2340,39.03164959
2341,35.24845441
2342,40.77535216
2343,41.43070984
2344,35.52035491
2345,35.64667607
2346,30.6662728
2347,29.95029036
2348,33.27053611
2349,33.77667999
2350,36.98155212
2351,36.18260956
2352,33.52361266
2353,34.91787497
2354,39.53541088
2355,39.26492182
2356,35.68643634
2357,31.5001049
2358,31.62714354
2359,31.2288421
2360,31.84208807
2361,33.82850266
2362,26.32049656
2363,27.68294859
2364,32.22865518
2365,37.07237689
2366,41.15143045
2367,36.30984211
2368,35.58351771
2369,37.81793467
2370,31.68897057
2371,32.56912391
2372,34.57080587
2373,36.20586109
2374,36.31004397
2375,29.39935939
2376,33.34769185
2377,36.9135224
2378,33.29542065
2379,32.91084321
2380,34.36953831
2381,37.44692103
2382,40.03560066
2383,36.05489667
2384,37.52189414
2385,37.78865433
2386,35.22030481
2387,29.06732973
2388,34.21532472
2389,32.70767784
2390,30.60635853
2391,30.89798196
2392,28.83529854
2393,39.62630749
2394,40.45812035
2395,33.30053266
2396,33.17139689
2397,30.67715295
2398,29.22386678
2399,28.76608499
2400,29.27288342
2401,32.12027772
2402,29.84111531
2403,31.13760408
2404,34.40399456
2405,29.73674774
2406,28.88430659
2407,35.22084872
2408,38.46859392
2409,31.71705469
2410,32.23680687
2411,30.3218867
2412,30.06690025
2413,32.54265817
2414,37.35847124
2415,38.00561206
2416,33.66580391
2417,30.63859685
2418,31.81121127
2419,27.89771239
2420,26.99823316
2421,26.60653575
2422,28.07358774
2423,33.62398847
2424,32.05506929
2425,29.69803397
2426,28.7090346
2427,30.03157234
2428,33.4366258
2429,26.94652478
2430,29.69620292
2431,32.71234163
2432,29.07232316
2433,32.48502382
2434,27.31281376
2435,25.71953329
2436,27.5355053
2437,28.61449051
2438,27.43051942
2439,29.9285663
2440,31.46479829
2441,29.74367047
2442,23.94563405
2443,24.35050837
2444,26.76865387
2445,28.73926099
2446,28.78930124
2447,26.80826632
2448,29.36601353
2449,26.18684419
2450,25.88961538
2451,33.03887685
2452,33.30360635
2453,28.74821663
2454,26.24963188
2455,26.50408045
2456,28.45443471
2457,28.05645116
2458,27.77218501
2459,28.62691848
2460,28.69668547
2461,26.30321503
2462,27.76575168
2463,28.55862459
2464,28.83333365
2465,28.74413554
2466,28.29985746
2467,25.90126515
2468,28.49766191
2469,30.23319181
2470,29.96608702
2471,27.99101766
2472,21.98114173
2473,25.47247823
2474,29.63707956
2475,30.54877122
2476,26.43899536
2477,18.9433434
2478,20.11519098
2479,20.75968138
2480,22.03985278
2481,26.21519089
2482,26.61763986
2483,31.49945164
2484,30.50827154
2485,27.71980604
2486,28.58423901
2487,33.42438666
2488,29.27650897
2489,24.75259431
2490,24.34032377
2491,28.10820198
2492,28.64719486
2493,28.01690578
2494,30.09108416
2495,36.4497153
2496,40.26050059
2497,27.34275246
2498,27.74812158
2499,25.16387177
2500,27.43425242
2501,28.96519693
2502,20.6520559
2503,22.27713792
2504,24.13683112
2505,25.86288706
2506,27.38067055
2507,27.43217755
2508,21.3245786
2509,23.4430747
2510,22.30903419
2511,21.87120406
2512,24.29257266
2513,28.32765166
2514,28.19155026
2515,26.83131631
2516,22.85247231
2517,22.46107181
2518,29.08320173
2519,25.12751007
2520,26.60193968
2521,26.39711253
2522,23.18859227
2523,20.35802317
2524,24.96772067
2525,31.66999881
2526,28.08304024
2527,25.08328692
2528,23.20701822
2529,21.52901347
2530,25.50445271
2531,24.87728771
2532,26.70892366
2533,24.3638951
2534,19.31953907
2535,18.99695317
2536,25.45773125
2537,25.30953582
2538,25.84034236
2539,26.11386712
2540,26.73898824
2541,31.02765242
2542,24.54901695
2543,24.42470042
2544,21.87913402
2545,22.95286178
2546,29.31757959
2547,26.08716583
2548,16.54971345
2549,17.21954155
2550,19.65743065
2551,21.05098645
2552,22.20777019
2553,25.94805177
2554,21.76291418
2555,21.70276197
2556,23.61994966
2557,21.78373305
2558,15.85214988
2559,23.35333173
2560,22.00103347
2561,26.66456541
2562,26.81949393
2563,25.56012631
2564,27.87218221
2565,24.52914333
2566,18.55933897
2567,15.78046632
2568,16.17242893
2569,19.14557187
2570,21.95670303
2571,18.71334171
2572,21.2288998
2573,20.16521613
2574,20.74191411
2575,20.9035999
2576,22.05285184
2577,31.51290131
2578,21.00261259
2579,20.27862517
2580,18.00421572
2581,20.41557137
2582,25.46575006
2583,22.91416613
2584,22.21155691
2585,30.32684994
2586,28.59258302
2587,25.21811136
2588,22.8169632
2589,21.25578388
2590,25.7718811
2591,21.82432143
2592,21.28422769
2593,21.60935148
2594,15.64749654
2595,9.702388376
2596,19.95283667
2597,19.52872562
2598,20.29120334
2599,20.926826
2600,24.34943454
2601,25.23389816
2602,20.31036218
2603,19.58040555
2604,21.28242016
2605,23.72786777
2606,20.33906698
2607,20.77506367
2608,23.48709234
2609,20.86573537
2610,23.79881477
2611,18.39142704
2612,17.85671791
2613,19.51468913
2614,19.60924594
2615,17.74919351
2616,16.53261693
2617,15.67648896
2618,20.74726677
2619,17.20962191
2620,22.44073009
2621,25.90567144
2622,22.95383136
2623,22.53964965
2624,20.67863751
2625,18.38968563
2626,20.14095561
2627,19.27851756
2628,17.49320618
2629,23.28190152
2630,35.55865638
2631,18.88561265
2632,21.32852237
2633,22.28605127
2634,19.56972981
2635,18.2146012
2636,20.88959678
2637,23.88007752
2638,19.22964319
2639,17.78794956
2640,17.53455353
2641,17.17074029
2642,18.39935573
2643,19.27527189
2644,18.96816778
2645,19.53965505
2646,17.51470788
2647,19.22399584
2648,15.7247262
2649,15.33299701
2650,18.1118385
2651,22.08292119
2652,23.14152082
2653,15.58019924
2654,16.45132899
2655,23.08322334
2656,22.06792323
2657,17.40736755
2658,14.37330707
2659,15.61832174
2660,18.23260784
2661,14.35921184
2662,17.12824504
2663,18.14343755
2664,17.76218526
2665,17.40649033
2666,16.89619191
2667,18.68557437
2668,22.62664731
2669,17.92961296
2670,23.48863808
2671,21.36205562
2672,22.12097851
2673,19.27544181
2674,18.36920802
2675,19.65579478
2676,17.63622443
2677,14.01690769
2678,14.16375065
2679,20.50286261
2680,19.38644663
2681,17.61949333
2682,11.29316179
2683,9.841317812
2684,15.39808273
2685,13.42883046
2686,11.60287479
2687,16.76453845
2688,18.39120515
2689,19.60275729
2690,13.62792158
2691,12.4106578
2692,14.25185967
2693,12.16288161
2694,15.55437795
2695,17.97913265
2696,17.23857792
2697,13.68785906
2698,11.10254709
2699,12.75935515
2700,15.44518828
2701,15.89439774
2702,14.66363462
2703,15.06794691
2704,20.37787501
2705,21.41910537
2706,12.85235636
2707,16.37696934
2708,16.56613445
2709,18.02603229
2710,18.20314773
2711,14.94178073
2712,-154.0898081
2713,-803.1842346
2714,-8.157768487
2715,19.09286674
2716,19.50245476
2717,15.34864553
2718,14.5483373
2719,17.05775738
2720,18.32313331
2721,16.4953448
2722,292.4468816
2723,1551.201721
2724,49.85947387
2725,11.67608539
2726,15.08144283
2727,16.2859141
2728,15.51463922
2729,14.66666683
2730,15.55810928
2731,16.09525967
2732,15.03538927
2733,19.12915293
2734,9.174678245
2735,14.59489695
2736,19.62480037
2737,18.5160683
2738,13.61330207
2739,13.90890312
2740,15.31051811
2741,15.03912926
2742,16.66021713
2743,15.33920272
2744,13.65448968
2745,13.50286078
2746,12.60691889
2747,19.19802952
2748,16.54404402
2749,11.17912531
2750,11.33318078
2751,17.76672983
2752,21.10559352
2753,15.09914843
2754,12.45781072
2755,26.17176692
2756,12.15321231
2757,19.32143164
2758,9.914422194
2759,12.76370859
2760,12.80147632
2761,14.16485707
2762,17.91154702
2763,17.26997073
2764,13.2060914
2765,12.30490875
2766,12.25354695
2767,15.50725174
2768,10.28610345
2769,13.96780983
2770,12.27912744
2771,6.584568063
2772,10.16660619
2773,11.21192129
2774,9.827923616
2775,13.42674382
2776,14.88863802
2777,13.13691584
2778,15.40050538
2779,7.005690655
2780,14.14403487
2781,9.676773231
2782,9.985528152
2783,11.32496977
2784,11.90524578
2785,10.89282234
2786,8.50141426
2787,7.698240598
2788,10.27726555
2789,12.12239329
2790,11.41132832
2791,11.52223158
2792,11.81223893
2793,9.049761455
2794,8.00045065
2795,4.02274102
2796,8.530355613
2797,12.43700766
2798,4.309396923
2799,8.974702836
2800,13.42515294
2801,13.00255394
2802,12.35904026
2803,13.2694025
2804,16.54549726
2805,19.92395497
2806,16.45592912
2807,9.15906954
2808,11.46685688
2809,11.2875278
2810,11.20382158
2811,13.57651742
2812,8.250088651
2813,12.03331693
2814,4.546805282
2815,11.95303138
2816,13.89972401
2817,10.46410513
2818,8.631557306
2819,8.225740433
2820,8.984344642
2821,9.709141255
2822,9.079422156
2823,10.73075481
2824,11.56208531
2825,4.144867202
2826,11.10351539
2827,13.53631528
2828,14.62457244
2829,5.866830906
2830,11.24064136
2831,8.941444397
2832,18.89396429
2833,16.25568438
2834,14.41448069
2835,11.82385723
2836,12.25026329
2837,11.68795172
2838,11.48389304
2839,10.80964176
2840,9.35789744
2841,10.87480903
2842,14.48817221
2843,12.91690938
2844,6.353238549
2845,11.53755562
2846,23.58571752
2847,10.44722227
2848,14.06940206
2849,14.58487241
2850,13.27932668
2851,10.56442372
2852,12.68387572
2853,11.78904366
2854,14.3733387
2855,15.51237218
2856,10.88485058
2857,11.70946511
2858,11.45296566
2859,12.21006219
2860,15.63467995
2861,14.89380773
2862,11.79434617
2863,16.64989376
2864,18.67444722
2865,11.42443442
2866,7.265420437
2867,7.539979319
2868,10.77047475
2869,14.55657737
2870,12.6702199
2871,14.60897779
2872,14.25547679
2873,19.26991892
2874,9.59042573
2875,14.27062655
2876,23.11913045
2877,15.53109741
2878,13.34307734
2879,13.66666667
2880,13.66666667
2881,16.81852245
2882,14.09097767
2883,8.926204145
2884,12.08711473
2885,14.34825651
2886,15.89039429
2887,8.385270854
2888,16.82010937
2889,12.80984799
2890,7.690473079
2891,5.852054388
2892,14.62851556
2893,17.36344465
2894,16.60559114
2895,16.87098694
2896,18.08691772
2897,13.48292573
2898,6.821647664
2899,6.183963717
2900,11.29413708
2901,12.50121554
2902,10.24709813
2903,11.57581266
2904,16.22330491
2905,16.54924917
2906,12.39187988
2907,14.10985486
2908,15.56500499
2909,15.85483313
2910,12.17224598
2911,8.787680229
2912,16.96556632
2913,17.98322169
2914,14.32430124
2915,13.6515185
2916,10.8428057
2917,8.480892022
2918,6.09659771
2919,9.888480067
2920,15.65549231
2921,12.8286225
2922,9.889065505
2923,15.94002851
2924,10.83183233
2925,13.0432539
2926,8.471764803
2927,5.642160654
2928,4.964730243
2929,9.056076208
2930,15.42925644
2931,13.59657144
2932,11.0588371
2933,14.77571956
2934,11.58728909
2935,8.125624299
2936,9.592859188
2937,9.984403929
2938,8.275774042
2939,11.81538439
2940,7.467841387
2941,6.834278226
2942,7.058111707
2943,6.335135858
2944,10.72959264
2945,12.33065867
2946,9.545477787
2947,6.467499336
2948,7.692902267
2949,8.769390703
2950,10.9008414
2951,12.78850237
2952,10.84332101
2953,8.589469274
2954,8.740892491
2955,9.455824058
2956,13.46509027
2957,14.6203502
2958,7.757792712
2959,7.759537538
2960,10.60153365
2961,10.89544717
2962,12.16041454
2963,9.224013647
2964,6.72793746
2965,8.288025141
2966,9.949478348
2967,10.26003401
2968,9.63479519
2969,8.055002213
2970,3.491030275
2971,8.625918389
2972,14.62712796
2973,8.796710492
2974,7.429312707
2975,10.0269893
2976,12.30698045
2977,12.43870624
2978,5.332633852
2979,5.112888256
2980,7.177989007
2981,6.977267504
2982,12.83968496
2983,11.70956238
2984,7.923673312
2985,6.627590735
2986,7.751054843
2987,9.576630951
2988,6.878511767
2989,8.174629688
2990,3.785432329
2991,13.83576981
2992,12.33785248
2993,14.49310207
2994,19.56462924
2995,7.2713933
2996,12.63266182
2997,5.574582696
2998,9.593376
2999,7.934101899
3000,4.404273033
