Frequency,Density
0,194.4
1,194.4
2,194.4
3,194.4
4,194.4
5,194.4
6,194.4
7,194.4
8,194.4
9,194.4
10,194.4
11,194.4
12,194.4
13,194.4
14,194.4
15,194.4
16,194.4
17,194.4
18,194.4
19,194.4
20,194.4
21,194.4
22,194.4
23,194.4
24,194.4
25,194.4
26,194.4
27,194.4
28,194.4
29,194.4
30,194.4
31,194.4
32,194.4
33,194.4
34,194.4
35,194.4
36,194.4
37,194.4
38,194.4
39,194.4
40,194.4
41,194.4
42,194.4
43,194.4
44,194.4
45,194.4
46,194.4
47,194.4
48,194.4
49,194.4
50,194.4
51,194.4
52,194.4
53,194.4
54,194.4
55,194.4
56,194.4
57,194.4
58,194.4
59,194.4
60,194.4
61,194.4
62,194.4
63,194.4
64,194.4
65,194.4
66,194.4
67,194.4
68,194.4
69,194.4
70,194.4
71,194.4
72,194.4
73,194.4
74,194.4
75,194.4
76,194.4
77,194.4
78,194.4
79,194.4
80,194.4
81,194.4
82,194.4
83,194.4
84,194.4
85,194.4
86,194.4
87,194.4
88,194.4
89,194.4
90,194.4
91,194.4
92,194.4
93,194.4
94,194.4
95,194.4
96,194.4
97,194.4
98,194.4
99,194.4
100,194.4
101,194.4
102,194.4
103,194.4
104,194.4
105,194.4
106,194.4
107,194.4
108,194.4
109,194.4
110,194.4
111,194.4
112,194.4
113,194.4
114,194.4
115,194.4
116,194.4
117,194.4
118,194.4
119,194.4
120,194.4
121,194.4
122,194.4
123,194.4
124,194.4
125,194.4
126,194.4
127,194.4
128,194.4
129,194.4
130,194.4
131,194.4
132,194.4
133,194.4
134,194.4
135,194.4
136,194.4
137,194.4
138,194.4
139,194.4
140,194.4
141,194.4
142,194.4
143,194.4
144,194.4
145,194.4
146,194.4
147,194.4
148,194.4
149,194.4
150,194.4
151,194.4
152,194.4
153,194.4
154,194.4
155,194.4
156,194.4
157,194.4
158,194.4
159,194.4
160,194.4
161,194.4
162,194.4
163,194.4
164,194.4
165,194.4
166,194.4
167,194.4
168,194.4
169,194.4
170,194.4
171,194.4
172,194.4
173,194.4
174,194.4
175,194.4
176,194.4
177,194.4
178,194.4
179,194.4
180,194.4
181,194.4
182,194.4
183,194.4
184,194.4
185,194.4
186,194.4
187,194.4
188,194.4
189,194.4
190,194.4
191,194.4
192,194.4
193,194.4
194,194.4
195,194.4
196,194.4
197,194.4
198,194.4
199,210.75268
200,267.9772
201,325.20174
202,346.82956
203,353.41541
204,358.22849
205,350.24329
206,342.25811
207,341.79468
208,347.69013
209,353.58558
210,352.5285
211,351.209
212,350.3399
213,350.18458
214,350.02925
215,349.18005
216,348.16985
217,349.04656
218,355.96669
219,362.88682
220,364.47488
221,363.38569
222,362.28163
223,361.03609
224,359.79057
225,359.93727
226,361.33932
227,362.74137
228,362.65065
229,362.49477
230,359.03723
231,350.45907
232,341.88093
233,338.33414
234,335.83721
235,333.89686
236,333.50649
237,333.11611
238,330.96924
239,328.07877
240,325.31053
241,323.27819
242,321.24586
243,322.18077
244,325.23107
245,328.17704
246,327.31619
247,326.45534
248,325.85245
249,325.53925
250,325.22602
251,323.26026
252,321.14479
253,317.458
254,311.02944
255,304.60089
256,304.54821
257,305.96019
258,306.64831
259,305.31399
260,303.97968
261,304.83615
262,306.56393
263,308.10615
264,308.7348
265,309.36345
266,307.68738
267,304.6209
268,302.37337
269,309.53273
270,316.69208
271,316.61213
272,310.31449
273,304.01685
274,307.06369
275,310.1356
276,310.82501
277,308.69705
278,306.56909
279,304.87554
280,303.21949
281,303.35255
282,306.35098
283,309.34941
284,312.0139
285,314.61933
286,315.37469
287,312.13574
288,308.89678
289,311.73633
290,316.24191
291,320.0633
292,321.88242
293,323.70154
294,325.0618
295,326.24888
296,326.82224
297,324.9218
298,323.02136
299,321.33347
300,319.74883
301,318.97807
302,322.86271
303,326.74736
304,328.24966
305,328.32899
306,328.94061
307,334.09977
308,339.25895
309,339.3093
310,335.73546
311,332.05547
312,326.89022
313,321.72498
314,315.46498
315,308.3089
316,301.41374
317,301.81154
318,302.20933
319,302.5658
320,302.88422
321,303.19139
322,302.15591
323,301.12042
324,301.71003
325,303.94163
326,306.17322
327,305.64847
328,305.09025
329,303.26778
330,300.07603
331,296.88428
332,296.87773
333,296.95757
334,299.91999
335,306.15123
336,312.38248
337,308.4342
338,304.11772
339,299.02231
340,293.02366
341,287.02502
342,288.41756
343,290.09818
344,292.70692
345,296.39044
346,300.07394
347,300.43214
348,300.67251
349,301.77891
350,303.86335
351,305.94779
352,302.16778
353,298.23711
354,297.94002
355,301.55195
356,305.16389
357,297.88512
358,290.49636
359,286.23778
360,285.11275
361,284.0369
362,287.41401
363,290.79111
364,292.94763
365,293.99354
366,294.86944
367,291.40784
368,287.94626
369,286.13259
370,285.64929
371,285.44387
372,288.90954
373,292.37521
374,291.8054
375,288.41833
376,285.53177
377,286.74216
378,287.95254
379,289.46872
380,291.16425
381,291.7459
382,286.17158
383,280.59725
384,277.37591
385,275.2742
386,273.6329
387,273.79467
388,273.95644
389,276.72021
390,280.44301
391,283.13698
392,282.89404
393,282.65111
394,282.28009
395,281.87497
396,281.96466
397,283.0997
398,284.23473
399,286.96446
400,289.96596
401,291.83157
402,291.91274
403,291.99391
404,289.67115
405,287.15342
406,289.295
407,296.85266
408,304.41433
409,314.90372
410,325.39313
411,335.40104
412,345.00166
413,353.50067
414,349.91866
415,346.33666
416,340.04712
417,332.14578
418,324.64915
419,319.10679
420,313.56442
421,303.8053
422,292.38782
423,284.54133
424,286.58137
425,288.6214
426,290.66242
427,292.70366
428,293.37391
429,291.65825
430,289.94259
431,286.05241
432,281.96511
433,281.37714
434,284.7307
435,288.06992
436,290.85257
437,293.63522
438,290.37202
439,282.75616
440,276.84988
441,281.52042
442,286.19095
443,281.58844
444,272.97972
445,268.93651
446,277.96048
447,286.98445
448,286.174
449,283.21895
450,279.6317
451,275.03226
452,270.4328
453,271.83846
454,273.56427
455,274.99374
456,276.14496
457,276.79442
458,271.93999
459,267.08555
460,263.1966
461,259.82118
462,257.93628
463,261.23131
464,264.52635
465,265.79016
466,266.53198
467,265.38666
468,261.01559
469,256.64452
470,254.29655
471,252.06845
472,253.14874
473,257.27728
474,260.99188
475,260.90926
476,260.82664
477,258.89558
478,256.08486
479,253.65822
480,252.33474
481,251.01127
482,249.54803
483,248.05825
484,250.99148
485,259.93549
486,268.74624
487,262.69718
488,256.64813
489,252.66994
490,250.09964
491,248.5317
492,251.43536
493,254.33902
494,254.35885
495,253.52875
496,253.81415
497,256.05676
498,258.29939
499,258.7969
500,259.21245
501,259.81062
502,260.55905
503,261.33142
504,262.2467
505,263.16199
506,258.65634
507,252.24561
508,248.50643
509,250.00593
510,251.50544
511,256.59828
512,261.93298
513,260.40977
514,252.9868
515,246.92618
516,249.26288
517,251.59957
518,251.45545
519,250.45342
520,249.04422
521,246.87187
522,244.69951
523,246.83362
524,249.17446
525,251.46907
526,253.72765
527,254.98454
528,251.38542
529,247.78631
530,253.15256
531,261.02505
532,263.5579
533,257.85954
534,252.20343
535,252.70652
536,253.20961
537,251.62695
538,248.77439
539,246.30063
540,245.04142
541,243.78219
542,247.04854
543,251.08043
544,252.04396
545,249.60658
546,248.10076
547,255.50132
548,262.90188
549,262.40751
550,258.7892
551,254.76974
552,249.97052
553,245.17131
554,243.45645
555,241.85577
556,241.94642
557,243.21087
558,244.42038
559,245.43254
560,246.44469
561,247.3859
562,248.31426
563,247.83372
564,245.80701
565,244.10075
566,245.03021
567,245.95966
568,250.58791
569,256.50612
570,256.13022
571,245.30193
572,234.64445
573,238.45352
574,242.26259
575,241.23679
576,237.59485
577,235
578,235
579,235
580,236.7303
581,238.59583
582,239.35173
583,239.26689
584,238.53491
585,235.39373
586,232.25255
587,236.88962
588,242.83591
589,244.00962
590,240.43973
591,237.05899
592,234.7627
593,232.46642
594,237.08599
595,243.46833
596,243.95747
597,237.14561
598,231.20833
599,233.33829
600,235.46826
601,237.98298
602,240.62571
603,240.7516
604,237.16901
605,233.85597
606,234.79482
607,235.73368
608,234.34828
609,232.04247
610,231.14391
611,232.59658
612,234.11307
613,237.44763
614,240.78221
615,242.3944
616,243.24992
617,246.82569
618,255.30039
619,263.40002
620,253.72115
621,244.04227
622,241.17629
623,241.43341
624,238.7317
625,230.58496
626,222.68179
627,226.80049
628,230.91917
629,230.9577
630,229.15471
631,228.83401
632,231.15352
633,233.49471
634,236.50326
635,239.5118
636,246.34052
637,254.76944
638,256.08132
639,245.75407
640,236.32978
641,242.27146
642,248.21314
643,248.22123
644,246.06717
645,244.09007
646,242.3658
647,240.19747
648,233.64137
649,227.08527
650,226.60142
651,227.89615
652,230.96493
653,236.14693
654,240.17454
655,237.14991
656,234.12529
657,234.67178
658,235.96882
659,235.08985
660,232.14815
661,230.04454
662,231.25654
663,232.46855
664,231.98218
665,231.28919
666,232.71711
667,235.66404
668,236.55898
669,232.04925
670,227.53953
671,229.92277
672,232.52607
673,235.36113
674,238.31329
675,238.88308
676,235.23412
677,231.74882
678,230.8795
679,230.0102
680,229.5362
681,229.18827
682,228.36096
683,226.96841
684,226.24854
685,229.0353
686,231.82204
687,231.29617
688,230.25052
689,232.9263
690,238.41922
691,241.27123
692,237.17091
693,233.07059
694,233.68632
695,234.38466
696,230.0692
697,223.51838
698,218.79224
699,216.78213
700,215.37689
701,218.69991
702,222.02293
703,221.58773
704,220.36274
705,219.658
706,219.39535
707,220.27753
708,224.48249
709,228.68746
710,226.41133
711,223.95698
712,222.65409
713,221.86472
714,221.03907
715,220.16148
716,220.32945
717,227.35436
718,234.37928
719,230.06812
720,223.82981
721,220.28463
722,218.70215
723,216.37176
724,212.32524
725,208.64006
726,216.64987
727,224.65967
728,222.92945
729,218.08549
730,216.67267
731,218.87578
732,221.07917
733,223.28358
734,225.48799
735,223.50635
736,221.30063
737,220.9012
738,221.3426
739,221.78412
740,222.22578
741,222.64049
742,222.90565
743,223.17081
744,221.70464
745,220.02432
746,220.40103
747,221.99386
748,221.69546
749,218.15372
750,216.24236
751,227.58261
752,238.92288
753,233.42388
754,225.00229
755,218.90383
756,214.38008
757,213.15659
758,218.30429
759,223.44446
760,228.50642
761,233.56838
762,237.07337
763,240.27229
764,234.52679
765,222.43481
766,212.37021
767,206.32064
768,201.64836
769,211.35122
770,221.05409
771,217.05897
772,210.46779
773,208.1183
774,208.65304
775,210.53441
776,214.90401
777,218.68394
778,217.6132
779,216.54246
780,214.00051
781,211.23278
782,209.864
783,209.328
784,210.45693
785,214.21121
786,217.53471
787,218.42912
788,219.32353
789,210.97027
790,201.75243
791,199.65211
792,200.90577
793,206.83771
794,218.57529
795,227.12822
796,223.99037
797,220.85251
798,214.62564
799,208.3462
800,210.79181
801,216.08762
802,220.39378
803,223.80667
804,224.21339
805,217.5633
806,211.65012
807,215.06706
808,218.484
809,217.70144
810,216.17191
811,214.13452
812,211.79384
813,210.83727
814,211.91822
815,212.61732
816,211.62585
817,210.63439
818,212.34117
819,214.14491
820,212.17101
821,208.92237
822,207.83182
823,208.64447
824,209.17141
825,209.08106
826,209.83566
827,217.97174
828,226.10782
829,217.81893
830,207.50711
831,204.99926
832,206.17587
833,206.20468
834,204.93681
835,203.38481
836,201.02879
837,198.93708
838,201.47583
839,204.01458
840,208.70922
841,213.78973
842,214.48979
843,212.76503
844,211.07982
845,209.44486
846,208.46023
847,209.55085
848,210.61383
849,210.97759
850,211.34135
851,215.75027
852,220.93687
853,218.77444
854,212.49219
855,208.43356
856,207.15815
857,207.24307
858,211.43622
859,215.14556
860,210.49388
861,205.84219
862,213.45973
863,223.04241
864,219.83232
865,210.33527
866,205.88278
867,206.88787
868,208.95912
869,213.62185
870,217.31512
871,212.64961
872,207.9841
873,202.14005
874,196.19029
875,197.88834
876,202.37621
877,203.84651
878,202.83843
879,202.23363
880,202.32532
881,201.87203
882,199.0277
883,196.27084
884,208.38937
885,220.50791
886,210.66751
887,196.24524
888,196.5188
889,204.69935
890,207.82225
891,205.33904
892,203.57242
893,203.4804
894,202.89966
895,198.94021
896,194.98077
897,201.39463
898,208.30475
899,202.79263
900,193.85024
901,196.91517
902,207.52327
903,215.376
904,219.80636
905,219.8548
906,208.58763
907,198.26418
908,195.3071
909,192.35002
910,190.269
911,188.23479
912,190.41877
913,193.74944
914,196.67664
915,199.36128
916,205.05581
917,214.22605
918,218.50861
919,211.65002
920,205.17268
921,200.9067
922,196.64071
923,198.89771
924,201.21755
925,173.60735
926,140.08888
927,151.29401
928,183.43885
929,198.64911
930,198.74207
931,197.85353
932,195.34214
933,196.7332
934,211.43824
935,223.56644
936,205.12765
937,186.68887
938,191.38004
939,197.80949
940,194.66956
941,188.88893
942,185.60842
943,183.7426
944,181.41434
945,178.61393
946,178.21478
947,182.23107
948,186.22816
949,190.15338
950,193.31548
951,186.489
952,179.66254
953,187.39952
954,196.19499
955,193.31212
956,187.41378
957,188.17634
958,192.39194
959,193.71281
960,192.4005
961,189.11263
962,182.73481
963,178.31429
964,179.53431
965,180.32681
966,178.16704
967,176.00727
968,181.15034
969,186.31808
970,183.16439
971,178.7457
972,179.48134
973,182.02125
974,188.38051
975,197.13427
976,200.16981
977,197.25015
978,192.77643
979,185.61431
980,181.99487
981,189.34984
982,194.67413
983,185.52213
984,176.41078
985,179.71501
986,183.01924
987,183.65073
988,183.93412
989,184.43528
990,185.00239
991,184.46055
992,183.32566
993,183.30801
994,184.25432
995,184.35905
996,183.31748
997,181.92198
998,179.74287
999,179.40439
1000,186.41961
1001,192.20772
1002,185.66262
1003,179.11753
1004,177.41545
1005,175.80193
1006,170.19955
1007,164.02655
1008,165.1573
1009,168.48321
1010,170.98941
1011,173.08122
1012,174.69357
1013,175.93037
1014,175.42132
1015,172.85104
1016,171.64286
1017,172.88113
1018,173.03789
1019,170.08332
1020,169.63821
1021,182.41717
1022,194.07899
1023,188.9262
1024,183.77341
1025,182.67735
1026,181.72256
1027,180.60073
1028,179.4543
1029,176.15011
1030,172.23083
1031,170.21267
1032,169.06488
1033,170.13747
1034,172.72153
1035,175.01606
1036,177.02709
1037,176.32312
1038,171.81959
1039,170.22165
1040,174.5361
1041,177.16929
1042,174.57907
1043,172.53712
1044,173.40105
1045,174.34445
1046,176.26541
1047,178.18637
1048,175.14645
1049,172.07109
1050,187.05728
1051,203.78951
1052,191.70929
1053,173.81247
1054,170.63318
1055,172.26988
1056,173.90724
1057,175.54491
1058,175.10116
1059,173.26973
1060,171.79224
1061,170.63486
1062,170.69711
1063,172.2412
1064,172.65096
1065,171.20251
1066,169.90253
1067,168.93633
1068,168.31501
1069,168.7984
1070,169.42915
1071,170.78345
1072,171.68495
1073,168.58757
1074,165.6515
1075,167.10427
1076,168.55703
1077,167.00129
1078,165.35385
1079,166.51866
1080,167.97315
1081,169.91972
1082,171.95721
1083,178.78264
1084,186.93748
1085,185.76078
1086,181.00096
1087,173.9171
1088,165.65536
1089,158.98185
1090,153.34109
1091,153.68763
1092,158.94251
1093,163.33262
1094,166.83795
1095,167.68474
1096,165.15161
1097,162.1646
1098,158.46012
1099,159.40762
1100,169.55223
1101,174.37525
1102,165.88386
1103,159.97722
1104,162.41873
1105,164.84209
1106,167.18733
1107,168.58992
1108,164.28776
1109,160.27749
1110,159.00564
1111,158.02934
1112,162.43452
1113,166.81677
1114,168.67784
1115,170.53891
1116,177.14067
1117,183.90331
1118,172.04236
1119,158.70516
1120,162.94543
1121,169.42175
1122,168.48287
1123,166.22463
1124,178.64291
1125,194.45999
1126,185.94452
1127,170.41294
1128,163.84688
1129,160.4043
1130,158.77263
1131,157.88687
1132,155.66909
1133,152.81328
1134,154.78798
1135,159.41913
1136,159.74366
1137,157.37742
1138,154.77872
1139,152.01645
1140,151.46289
1141,152.64742
1142,155.72933
1143,160.47029
1144,164.7603
1145,168.61461
1146,165.90091
1147,156.20993
1148,152.83008
1149,156.78793
1150,156.68546
1151,151.43819
1152,148.81706
1153,149.80769
1154,152.31315
1155,157.07105
1156,157.33118
1157,150.38845
1158,144.83163
1159,141.65593
1160,143.10141
1161,153.0314
1162,158.35554
1163,154.67926
1164,152.6532
1165,154.04505
1166,154.03199
1167,150.9482
1168,148.8302
1169,148.92974
1170,149.70293
1171,152.09322
1172,155.05386
1173,159.43868
1174,161.98789
1175,159.79418
1176,158.90896
1177,161.50307
1178,161.14623
1179,152.76027
1180,148.27025
1181,154.56346
1182,159.2
1183,159.2
1184,157.7573
1185,152.2567
1186,148.22627
1187,148.32634
1188,148.45285
1189,148.65311
1190,148.29267
1191,146.38907
1192,144.9458
1193,144.74531
1194,146.31193
1195,152.53108
1196,155.70067
1197,151.08371
1198,146.92998
1199,143.91713
1200,142.21825
1201,143.62508
1202,146.17433
1203,151.30227
1204,152.94495
1205,147.1097
1206,144.22978
1207,147.35047
1208,149.15798
1209,148.45289
1210,152.2539
1211,164.14679
1212,167.68473
1213,157.19663
1214,149.38288
1215,145.75022
1216,144.83609
1217,147.86511
1218,147.9598
1219,144.12076
1220,146.25299
1221,155.7552
1222,157.28889
1223,149.80398
1224,143.85981
1225,139.50788
1226,139.6976
1227,144.15338
1228,150.03505
1229,157.12801
1230,152.15327
1231,137.95891
1232,136.23937
1233,143.03643
1234,144.20907
1235,141.97588
1236,141.66397
1237,142.37496
1238,148.22636
1239,156.45836
1240,155.9622
1241,151.99629
1242,160.14276
1243,172.35284
1244,162.72028
1245,147.04136
1246,144.53364
1247,144.94113
1248,142.73265
1249,140.08241
1250,141.53137
1251,143.46923
1252,146.07435
1253,148.72774
1254,148.60133
1255,148.3406
1256,144.15143
1257,140.10716
1258,138.47139
1259,137.22616
1260,139.47669
1261,141.62323
1262,143.1586
1263,144.55687
1264,145.37622
1265,145.80432
1266,144.98448
1267,143.66409
1268,141.10059
1269,139.6763
1270,140.49711
1271,141.59645
1272,143.13638
1273,145.48878
1274,148.87865
1275,147.86807
1276,142.31772
1277,142.94684
1278,148.70618
1279,150.19503
1280,148.85724
1281,142.57136
1282,133.71612
1283,120.57934
1284,105.74315
1285,118.21233
1286,138.62423
1287,142.51655
1288,143.13546
1289,148.93193
1290,155.33115
1291,152.82981
1292,149.80541
1293,140.71186
1294,133.83988
1295,150.59023
1296,163.38772
1297,154.07643
1298,145.7141
1299,140.74512
1300,136.63606
1301,134.668
1302,135.39082
1303,140.98756
1304,143.93492
1305,143.31269
1306,139.43815
1307,132.27825
1308,131.09407
1309,134.41658
1310,139.34563
1311,145.16348
1312,144.70809
1313,141.79743
1314,139.1334
1315,136.53305
1316,134.74807
1317,133.08286
1318,132.50522
1319,131.98762
1320,131.57082
1321,131.36101
1322,132.82067
1323,133.01826
1324,127.90641
1325,125.69237
1326,131.12041
1327,136.77456
1328,142.83252
1329,143.32227
1330,136.84267
1331,133.3008
1332,132.35965
1333,127.79781
1334,120.99661
1335,120.47921
1336,122.57314
1337,125.00166
1338,127.51586
1339,129.00867
1340,130.37134
1341,138.10076
1342,147.44233
1343,175.77757
1344,193.95087
1345,161.18846
1346,142.05943
1347,161.39233
1348,167.17192
1349,148.66859
1350,137.1614
1351,134.00555
1352,132.48324
1353,132.27273
1354,133.09615
1355,134.46531
1356,132.49096
1357,129.43486
1358,128.54779
1359,128.02056
1360,126.78329
1361,125.42048
1362,122.67564
1363,121.10423
1364,125.22394
1365,127.6425
1366,125.63428
1367,126.92704
1368,133.48411
1369,132.77227
1370,124.62397
1371,127.15913
1372,136.68878
1373,136.74681
1374,133.03864
1375,126.34502
1376,119.03027
1377,117.40199
1378,116.37735
1379,119.56146
1380,122.30918
1381,122.94638
1382,126.89007
1383,139.00407
1384,143.39417
1385,136.48296
1386,132.69733
1387,131.73982
1388,130.98797
1389,130.34925
1390,123.42504
1391,114.58421
1392,115.49429
1393,117.65307
1394,122.02541
1395,125.49365
1396,123.25282
1397,121.03966
1398,118.90428
1399,119.67901
1400,125.02065
1401,127.93168
1402,128.57305
1403,126.86485
1404,123.86998
1405,128.43413
1406,135.17661
1407,131.13507
1408,126.07173
1409,122.85722
1410,121.07363
1411,126.1127
1412,128.54285
1413,125.10995
1414,122.05712
1415,119.48091
1416,120.45724
1417,124.00163
1418,122.29809
1419,118.53666
1420,122.33297
1421,127.38703
1422,118.81432
1423,111.75825
1424,114.34211
1425,116.86587
1426,119.23582
1427,121.3319
1428,123.05652
1429,124.5363
1430,125.83053
1431,128.12775
1432,130.82567
1433,126.64305
1434,121.45296
1435,127.28741
1436,130.44061
1437,119.30534
1438,112.19976
1439,114.14689
1440,117.93333
1441,123.88642
1442,126.92834
1443,128.11965
1444,122.51653
1445,114.82251
1446,123.66751
1447,132.8115
1448,127.60373
1449,123.14821
1450,121.19414
1451,121.09834
1452,123.92257
1453,124.30709
1454,122.67675
1455,119.89148
1456,116.62888
1457,114.40425
1458,112.41
1459,112.73665
1460,113.35888
1461,115.21098
1462,115.89263
1463,114.47548
1464,113.45749
1465,112.80303
1466,113.42812
1467,114.62867
1468,111.99136
1469,109.08293
1470,120.01002
1471,126.74715
1472,116.25091
1473,110.36151
1474,112.44012
1475,112.86976
1476,111.88457
1477,108.95162
1478,105.22758
1479,109.65063
1480,114.69421
1481,112.93963
1482,108.95319
1483,97.76115
1484,95.9245
1485,107.34277
1486,112.65049
1487,113.74905
1488,114.16962
1489,114.38947
1490,110.5255
1491,107.01471
1492,107.12476
1493,108.62828
1494,113.14309
1495,114.07752
1496,111.43314
1497,110.29794
1498,109.85695
1499,113.54659
1500,116.08067
1501,89.81048
1502,75.48586
1503,97.79563
1504,108.95775
1505,105.64245
1506,108.06421
1507,113.92472
1508,113.64489
1509,111.99116
1510,110.9948
1511,109.95349
1512,108.735
1513,108.17592
1514,108.61928
1515,111.75633
1516,116.74701
1517,114.03508
1518,109.26338
1519,108.76176
1520,108.58548
1521,109.58539
1522,108.52935
1523,104.19382
1524,104.87801
1525,109.10488
1526,108.77179
1527,107.21359
1528,110.18064
1529,112.88304
1530,114.33165
1531,115.37865
1532,115.82464
1533,114.51066
1534,112.05626
1535,105.96554
1536,99.4058
1537,108.56489
1538,115.02982
1539,112.57104
1540,111.74419
1541,112.9743
1542,115.15613
1543,117.84161
1544,115.48345
1545,112.97743
1546,117.68259
1547,117.36324
1548,105.03288
1549,100.83308
1550,104.42222
1551,111.76897
1552,120.52269
1553,109.32122
1554,100.01615
1555,106.19596
1556,108.01181
1557,102.84017
1558,100.25508
1559,99.35512
1560,105.4416
1561,112.19375
1562,104.19723
1563,98.05907
1564,96.81943
1565,100.09265
1566,107.87313
1567,106.55663
1568,101.81788
1569,98.692
1570,96.5916
1571,98.73786
1572,100.51216
1573,101.75547
1574,103.43522
1575,105.35783
1576,104.80873
1577,104.61599
1578,110.39068
1579,113.08177
1580,109.79618
1581,103.51067
1582,95.0084
1583,96.89496
1584,101.11895
1585,103.6159
1586,104.42735
1587,101.02039
1588,98.98289
1589,98.18746
1590,94.87146
1591,90.83081
1592,96.63294
1593,99.25438
1594,92.19663
1595,89.54958
1596,91.48591
1597,95.76701
1598,100.89563
1599,106.58582
1600,109.17042
1601,101.06899
1602,98.09624
1603,100.83637
1604,102.17682
1605,102.9765
1606,95.12265
1607,89.55813
1608,92.98939
1609,95.07027
1610,95.64248
1611,96.29793
1612,96.985
1613,93.86186
1614,91.8534
1615,93.80239
1616,95.19198
1617,95.99498
1618,93.89215
1619,90.80284
1620,92.06619
1621,93.29977
1622,94.44895
1623,95.71818
1624,97.09802
1625,92.99616
1626,87.93041
1627,95.64362
1628,99.55691
1629,94.8341
1630,92.73438
1631,92.61912
1632,91.15712
1633,91.29429
1634,108.25741
1635,107.35609
1636,75.60359
1637,74.70357
1638,91.57124
1639,93.40888
1640,93.41955
1641,92.37853
1642,93.80531
1643,98.31906
1644,91.72054
1645,80.719
1646,88.2796
1647,96.04438
1648,103.81255
1649,101.53103
1650,90.62596
1651,88.41097
1652,88.253
1653,88.83375
1654,89.80093
1655,91.42798
1656,92.82944
1657,94.10859
1658,93.76784
1659,92.78976
1660,89.87917
1661,87.65522
1662,86.14081
1663,87.87759
1664,90.2483
1665,87.68242
1666,88.00903
1667,93.84402
1668,93.42318
1669,89.33628
1670,97.36348
1671,102.07202
1672,89.79681
1673,82.90491
1674,81.5012
1675,83.13053
1676,85.83106
1677,91.45254
1678,93.70296
1679,90.18746
1680,87.67999
1681,85.68669
1682,86.83442
1683,87.35661
1684,85.59574
1685,83.51239
1686,81.16318
1687,79.90575
1688,79.74365
1689,84.91804
1690,86.39245
1691,83.21537
1692,81.6123
1693,80.85794
1694,86.63055
1695,89.29556
1696,86.11285
1697,82.62209
1698,78.96571
1699,80.03936
1700,81.33775
1701,82.63671
1702,85.60906
1703,89.86272
1704,86.68143
1705,83.67373
1706,86.27625
1707,86.96023
1708,85.6582
1709,82.7414
1710,79.93394
1711,81.11901
1712,82.55656
1713,84.3352
1714,86.72812
1715,88.83507
1716,81.94951
1717,77.38125
1718,76.78731
1719,78.87843
1720,82.19564
1721,79.93603
1722,78.17137
1723,77.45738
1724,78.26604
1725,79.93298
1726,84.11653
1727,87.06598
1728,86.58914
1729,86.25607
1730,86.01751
1731,87.32704
1732,88.4
1733,88.4
1734,83.92583
1735,76.15898
1736,76.37089
1737,79.12175
1738,87.49593
1739,86.99442
1740,79.45322
1741,77.32534
1742,77.70852
1743,84.65941
1744,84.38185
1745,78.14633
1746,75.92127
1747,75.36869
1748,78.97036
1749,83.09936
1750,87.66415
1751,82.78954
1752,78.1841
1753,79.02598
1754,80.53688
1755,82.58264
1756,82.1543
1757,81.76826
1758,82.49114
1759,81.14291
1760,78.24966
1761,77.2285
1762,76.50743
1763,76.14535
1764,76.79515
1765,78.12357
1766,76.26396
1767,77.99624
1768,89.11976
1769,88.14423
1770,80.1596
1771,80.94905
1772,80.09122
1773,75.48859
1774,75.47594
1775,77.54893
1776,75.60869
1777,74.58299
1778,75.06834
1779,74.75764
1780,74.19011
1781,74.06863
1782,74.84602
1783,76.79083
1784,77.4881
1785,77.65866
1786,76.68511
1787,76.62764
1788,77.48
1789,74.98287
1790,73.02462
1791,74.97517
1792,73.68803
1793,70.0286
1794,68.65571
1795,69.04112
1796,73.19337
1797,75.48881
1798,76.70401
1799,72.7914
1800,71.30375
1801,73.62823
1802,74.2923
1803,74.04663
1804,71.10699
1805,72.82537
1806,79.44346
1807,86.69431
1808,89.34186
1809,75.72198
1810,69.98101
1811,69.61269
1812,68.17663
1813,66.95109
1814,66.21358
1815,64.33991
1816,62.81185
1817,70.07258
1818,76.93956
1819,83.34261
1820,78.7426
1821,73.19132
1822,72.20507
1823,72.16345
1824,72.78021
1825,73.27786
1826,71.66874
1827,66.11132
1828,66.4893
1829,68.502
1830,65.78184
1831,63.4261
1832,61.44664
1833,63.80077
1834,65.00262
1835,61.16289
1836,66.43542
1837,76.27578
1838,72.30752
1839,70.15578
1840,70.52803
1841,69.99911
1842,69.2541
1843,68.50874
1844,67.54469
1845,66.42599
1846,74.78238
1847,76.43755
1848,66.23298
1849,67.11909
1850,71.63255
1851,76.99002
1852,75.01046
1853,67.03186
1854,65.42013
1855,64.21524
1856,63.09193
1857,67.97605
1858,73.96535
1859,73.71543
1860,73.12902
1861,72.2538
1862,71.4955
1863,73.59534
1864,81.23128
1865,75.5773
1866,68.93212
1867,83.5953
1868,82.75703
1869,69.21383
1870,63.32939
1871,62.06434
1872,68.34171
1873,76.83999
1874,82.23693
1875,69.91884
1876,65.75556
1877,67.39056
1878,67.77535
1879,67.49012
1880,66.23096
1881,67.33745
1882,67.73335
1883,63.95143
1884,62.35681
1885,62.18737
1886,65.46889
1887,66.54367
1888,65.15452
1889,70.39063
1890,72.47216
1891,65.51826
1892,66.53154
1893,71.45042
1894,81.57706
1895,77.9388
1896,63.62653
1897,64.14836
1898,65.0119
1899,66.02635
1900,62.09873
1901,59.65034
1902,64.60157
1903,68.17845
1904,70.05578
1905,62.81087
1906,60.81337
1907,63.48411
1908,66.765
1909,70.76049
1910,75.85359
1911,67.04959
1912,59.52625
1913,65.77261
1914,62.9755
1915,57.01134
1916,60.84012
1917,60.59889
1918,56.89556
1919,63.02393
1920,66.17258
1921,64.63837
1922,73.80032
1923,78.09238
1924,64.90834
1925,60.55564
1926,59.73958
1927,59.35513
1928,60.42375
1929,62.46126
1930,64.12917
1931,69.04909
1932,77.52189
1933,62.24697
1934,53.34585
1935,59.25806
1936,56.97585
1937,57.36207
1938,71.51651
1939,69.6046
1940,62.01855
1941,62.14738
1942,63.19126
1943,64.8
1944,64.8
1945,63.28439
1946,60.1871
1947,65.58113
1948,66.67562
1949,60.21538
1950,60.28961
1951,61.35305
1952,61.87048
1953,56.95429
1954,54.30097
1955,67.51073
1956,69.00593
1957,64.62157
1958,61.3801
1959,59.47851
1960,58.50257
1961,55.51693
1962,56.49189
1963,61.55747
1964,55.73673
1965,52.53734
1966,53.83773
1967,55.48041
1968,86.22404
1969,173.8423
1970,123.40541
1971,60.53132
1972,57.27275
1973,56.97293
1974,58.32583
1975,61.9797
1976,60.76502
1977,57.96845
1978,60.71205
1979,61.09002
1980,59.96153
1981,59.43833
1982,60.19762
1983,61.91667
1984,56.80949
1985,55.99426
1986,59.66309
1987,59.16893
1988,58.91471
1989,59.17707
1990,59.2
1991,58.89353
1992,58.10552
1993,49.23616
1994,44.68173
1995,50.73024
1996,50.71703
1997,53.42964
1998,65.40914
1999,57.98649
2000,50.59341
2001,58.10581
2002,59.90138
2003,58.15226
2004,51.02694
2005,50.60598
2006,54.12329
2007,62.71007
2008,60.589
2009,54.8
2010,54.8
2011,49.63536
2012,44.09358
2013,51.37628
2014,56.03419
2015,57.55742
2016,48.01259
2017,49.67618
2018,57.00379
2019,55.2784
2020,56.85634
2021,59.58403
2022,53.47172
2023,55.03867
2024,60.44667
2025,52.19873
2026,49.7391
2027,50.92702
2028,47.73055
2029,43.91065
2030,40.16594
2031,42.16606
2032,43.07779
2033,43.36825
2034,45.3707
2035,43.06977
2036,38.46042
2037,41.40077
2038,40.30355
2039,37.73065
2040,47.36482
2041,53.2953
2042,55.83517
2043,50.61058
2044,52.06325
2045,56.86792
2046,55.79496
2047,44.12179
2048,30.66272
2049,43.82176
2050,44.80799
2051,39.89233
2052,38.01028
2053,40.39949
2054,43.94916
2055,43.67999
2056,46.06092
2057,48.24264
2058,45.68249
2059,42.33018
2060,41.79213
2061,50.56075
2062,47.93851
2063,39.20059
2064,23.80391
2065,37.65962
2066,48.68066
2067,39.08035
2068,40.68966
2069,41.50735
2070,37.44616
2071,42.18454
2072,45.93633
2073,46.74951
2074,47.9447
2075,54.88338
2076,68.45214
2077,54.09702
2078,45.45794
2079,42.58217
2080,42.1744
2081,40.13194
2082,37.11692
2083,36.30043
2084,40.30301
2085,44.48809
2086,35.22378
2087,33.63199
2088,35.27995
2089,36.50753
2090,38.35943
2091,39.1526
2092,36.9677
2093,35.46359
2094,35.10306
2095,36.4702
2096,34.24767
2097,34.74035
2098,39.1203
2099,38.93108
2100,37.65673
2101,35.4981
2102,33.85276
2103,35.8484
2104,39.18073
2105,36.29805
2106,37.5749
2107,39.10598
2108,35.25795
2109,35.78906
2110,38.10963
2111,41.54936
2112,38.88956
2113,36.16932
2114,34.65409
2115,39.11886
2116,40.40913
2117,38.79117
2118,41.8269
2119,41.30572
2120,38.58969
2121,36.10304
2122,39.06845
2123,41.37894
2124,36.12325
2125,32.00584
2126,30.12495
2127,31.50963
2128,29.39841
2129,29.69803
2130,32.7681
2131,36.2358
2132,35.3269
2133,32.47588
2134,34.1423
2135,35.70864
2136,36.36267
2137,34.83335
2138,34.6
2139,36.48186
2140,41.07513
2141,39.03225
2142,37.55121
2143,36.82831
2144,37.10718
2145,36.26927
2146,33.76542
2147,27.62335
2148,28.30151
2149,28.97509
2150,26.73903
2151,31.32104
2152,37.27976
2153,43.35939
2154,40.27947
2155,42.20239
2156,44.52586
2157,38.7794
2158,36.15107
2159,35.36207
2160,36.34431
2161,39.18125
2162,38.85081
2163,35.81337
2164,35.95393
2165,35.24358
2166,34.99867
2167,37.39099
2168,31.26296
2169,28.38473
2170,32.75223
2171,43.39642
2172,43.3344
2173,35.62588
2174,30.54516
2175,32.62623
2176,35.16911
2177,33.191
2178,29.80689
2179,29.72849
2180,32.92579
2181,31.93502
2182,33.19345
2183,33.76197
2184,28.80243
2185,32.63487
2186,33.98018
2187,29.82527
2188,31.24473
2189,34.73993
2190,37.08882
2191,29.55702
2192,30.03034
2193,30.55462
2194,27.85143
2195,33.8048
2196,32.8719
2197,27.212
2198,23.79155
2199,31.22006
2200,35.8585
2201,30.0085
2202,34.06798
2203,33.82683
2204,30.45991
2205,29.60233
2206,28.19803
2207,28.82164
2208,33.25754
2209,45.872
2210,42.97455
2211,31.55219
2212,35.8524
2213,33.33364
2214,33.97162
2215,42.72543
2216,40.94926
2217,36.24394
2218,32.24691
2219,38.28452
2220,35.88218
2221,34.37809
2222,36.6101
2223,36.8981
2224,39.04832
2225,39.91162
2226,34.145
2227,34.27929
2228,42.90853
2229,56.17724
2230,37.69227
2231,34.25629
2232,35.23758
2233,32.92431
2234,35.53777
2235,35.82083
2236,33.53017
2237,28.75084
2238,-8.41747
2239,-14.58283
2240,31.15667
2241,34.92869
2242,35.71882
2243,35.15858
2244,35.01334
2245,31.17247
2246,31.98478
2247,36.49111
2248,37.07309
2249,34.69573
2250,31.67061
2251,28.97448
2252,28.24576
2253,27.61341
2254,28.09246
2255,31.15659
2256,34.49111
2257,32.62168
2258,27.17554
2259,24.83696
2260,30.82162
2261,34.41759
2262,33.08839
2263,36.74869
2264,32.47461
2265,28.00755
2266,29.18019
2267,39.43718
2268,38.12775
2269,34.28618
2270,43.97702
2271,22.39811
2272,17.9664
2273,30.54206
2274,37.16079
2275,35.6489
2276,32.6641
2277,30.55484
2278,32.17553
2279,29.55336
2280,30.88192
2281,40.63434
2282,34.14049
2283,31.10903
2284,31.36736
2285,35.06126
2286,33.91941
2287,34.93304
2288,35.23687
2289,29.16851
2290,31.28439
2291,32.6
2292,31.6528
2293,27.05667
2294,30.3417
2295,36.52815
2296,41.84866
2297,34.71989
2298,28.07217
2299,23.90273
2300,23.68695
2301,32.46438
2302,36.95263
2303,33.80114
2304,23.59415
2305,25.68049
2306,32.91878
2307,37.28315
2308,35.15871
2309,34.56159
2310,40.17398
2311,42.3747
2312,35.68827
2313,29.70692
2314,30.67304
2315,31.64225
2316,28.14976
2317,26.95144
2318,31.26043
2319,34.39515
2320,32.02572
2321,37.87747
2322,35.57438
2323,32.3366
2324,33.53486
2325,41.5008
2326,37.2742
2327,31.08341
2328,29.68975
2329,27.58195
2330,31.90729
2331,47.94547
2332,73.44744
2333,36.64892
2334,28.65798
2335,28.91678
2336,27.52096
2337,33.11057
2338,39.05148
2339,39.43082
2340,33.28152
2341,30.70895
2342,30.68583
2343,27.64599
2344,22.33739
2345,25.67226
2346,25.43398
2347,29.68377
2348,38.98126
2349,49.61028
2350,56.46679
2351,46.07778
2352,30.8691
2353,38.16997
2354,31.72527
2355,50.86152
2356,64.72138
2357,32.59811
2358,30.31142
2359,24.45118
2360,19.3965
2361,19.3857
2362,34.0454
2363,31.11836
2364,25.85141
2365,26.83909
2366,41.37072
2367,37.17181
2368,33.56112
2369,32.08037
2370,24.26594
2371,29.63057
2372,37.72295
2373,39.39074
2374,24.43209
2375,33.95347
2376,37.01544
2377,33.02398
2378,22.81143
2379,14.81221
2380,21.92565
2381,27.63057
2382,27.10448
2383,22.63582
2384,26.93083
2385,30.86747
2386,30.04471
2387,20.60808
2388,21.22584
2389,23.61924
2390,25.1379
2391,25.12394
2392,29.14617
2393,46.13299
2394,43.68197
2395,28.12128
2396,27.81135
2397,24.66321
2398,29.55536
2399,32.5543
2400,27.42515
2401,33.94827
2402,30.42796
2403,31.7323
2404,34.98692
2405,23.00765
2406,24.76426
2407,35.2243
2408,41.82918
2409,35.8372
2410,32.09499
2411,29.49442
2412,31.64084
2413,38.16107
2414,45.97049
2415,45.74495
2416,40.73907
2417,35.24716
2418,30.68744
2419,17.85116
2420,22.702
2421,24.72993
2422,22.583
2423,20.54025
2424,18.34376
2425,32.9191
2426,35.13458
2427,20.14317
2428,14.01407
2429,24.74322
2430,27.96861
2431,32.28716
2432,41.92774
2433,26.17681
2434,21.25749
2435,20.73172
2436,20.71479
2437,17.84695
2438,14.37397
2439,22.43808
2440,28.40374
2441,26.74908
2442,17.57764
2443,25.00247
2444,24.36418
2445,20.33376
2446,17.78492
2447,21.90547
2448,20.72763
2449,25.91686
2450,27.19072
2451,20.52959
2452,29.58334
2453,29.8946
2454,28.69943
2455,27.74089
2456,27.21725
2457,23.87419
2458,26.54385
2459,26.4636
2460,23.24803
2461,19.9895
2462,28.44562
2463,31.00663
2464,29.34974
2465,25.19445
2466,21.5472
2467,30.50194
2468,29.06895
2469,26.10757
2470,23.06522
2471,19.82076
2472,24.78892
2473,22.91651
2474,29.92302
2475,42.11779
2476,47.33631
2477,21.95818
2478,23.40264
2479,25.31162
2480,25.97018
2481,27.8101
2482,19.60015
2483,28.35987
2484,25.73272
2485,22.58839
2486,28.574
2487,23.24984
2488,27.23367
2489,27.92578
2490,22.45406
2491,17.76021
2492,37.48732
2493,23.85328
2494,26.98554
2495,57.82846
2496,81.86848
2497,25.09073
2498,20.38845
2499,20.1688
2500,23.76477
2501,24.22213
2502,15.52987
2503,23.33026
2504,23.5582
2505,28.45072
2506,32.87456
2507,30.43319
2508,22.61546
2509,22.6629
2510,26.08508
2511,30.08879
2512,30.29008
2513,22.34773
2514,30.67712
2515,25.92385
2516,26.09803
2517,28.38926
2518,25.93801
2519,28.22958
2520,27.33884
2521,25.49937
2522,21.70236
2523,17.47003
2524,17.59719
2525,30.89232
2526,26.54959
2527,23.90003
2528,20.2809
2529,13.18327
2530,22.23082
2531,22.12637
2532,25.06339
2533,23.94567
2534,17.03206
2535,10.05714
2536,24.24336
2537,30.79585
2538,24.19657
2539,18.60395
2540,22.7063
2541,31.74245
2542,26.28385
2543,22.20978
2544,21.21706
2545,25.02505
2546,29.61977
2547,21.47051
2548,29.92982
2549,19.87897
2550,20.05171
2551,22.02106
2552,13.74602
2553,15.5746
2554,13.79582
2555,21.09444
2556,25.39377
2557,19.38386
2558,7.3822
2559,15.05007
2560,16.50819
2561,21.10254
2562,21.4538
2563,23.1945
2564,31.16861
2565,31.00146
2566,27.35271
2567,23.40553
2568,19.79012
2569,17.18837
2570,16.42598
2571,18.4529
2572,21.30386
2573,14.17725
2574,16.86764
2575,21.08432
2576,20.51385
2577,25.4
2578,25.4
2579,25.98748
2580,20.32531
2581,26.53171
2582,37.92053
2583,27.8378
2584,21.59863
2585,45.68055
2586,29.00895
2587,17.32063
2588,18.87735
2589,19.10568
2590,23.72642
2591,31.84711
2592,23.88917
2593,20
2594,15.68987
2595,9.39721
2596,10.81121
2597,18.10592
2598,18.6
2599,21.67315
2600,24.57518
2601,25.52844
2602,24.08974
2603,19.79797
2604,11.2879
2605,16.14098
2606,14.63349
2607,18.98831
2608,24.28869
2609,18.30819
2610,25.5891
2611,23.8815
2612,17.46446
2613,16.81763
2614,19.29972
2615,21.91326
2616,23.24502
2617,13.31394
2618,25.73215
2619,21.80705
2620,21.10777
2621,19.91926
2622,14.09472
2623,10.76874
2624,24.5116
2625,21.18453
2626,22.59823
2627,20.0718
2628,16.73121
2629,26.46904
2630,46.28845
2631,13.72106
2632,28.7234
2633,18.0159
2634,18.57135
2635,21.14248
2636,21.26697
2637,21.49799
2638,15.87283
2639,22.44695
2640,14.4391
2641,13.38533
2642,16.20398
2643,15.85163
2644,18.60905
2645,33.90379
2646,12.55507
2647,17.05479
2648,17.65386
2649,16.16049
2650,15.95088
2651,22.09148
2652,31.22681
2653,26.41504
2654,22.23362
2655,23.81039
2656,21.28151
2657,16.36955
2658,13.15996
2659,17.48629
2660,27.71429
2661,24.79739
2662,13.2549
2663,19.20487
2664,19.97755
2665,16.34587
2666,12.48858
2667,14.24995
2668,20.84735
2669,17.4919
2670,26.44486
2671,22.2222
2672,29.62822
2673,23.54954
2674,16.23139
2675,16.2087
2676,17.48578
2677,18.48987
2678,12.32247
2679,16.52013
2680,19.73626
2681,13.81431
2682,12.66194
2683,13.27117
2684,12.00022
2685,17.49124
2686,19.10166
2687,21.04834
2688,20.54691
2689,21.52331
2690,13.88295
2691,12.85236
2692,17.13196
2693,18.63845
2694,28.01894
2695,28.94926
2696,12.95329
2697,15.41401
2698,19.58465
2699,17.04073
2700,12.49866
2701,16.48646
2702,25.11998
2703,19.93692
2704,18.15565
2705,12.44377
2706,9.19981
2707,20.21425
2708,26.26567
2709,23.86778
2710,22.99694
2711,24.24384
2712,-141.24389
2713,-750.82319
2714,0.64261
2715,16.47894
2716,16.13432
2717,17.07803
2718,12.22489
2719,13.09109
2720,19.48608
2721,17.88507
2722,-19.54479
2723,-149.11234
2724,28.31083
2725,12.64551
2726,11.71509
2727,10.78326
2728,13.11047
2729,19.70934
2730,23.10104
2731,19.6286
2732,16.16204
2733,15.69818
2734,12.80233
2735,6.46706
2736,29.63075
2737,34.48313
2738,21.10451
2739,14.15536
2740,13.50961
2741,14.02463
2742,16.4084
2743,10.22922
2744,11.6338
2745,14.54507
2746,13.17107
2747,24.25269
2748,21.5669
2749,18.3977
2750,20.38445
2751,21.69829
2752,21.40018
2753,19.47574
2754,21.59713
2755,62.44678
2756,20.28606
2757,24.31246
2758,18.81869
2759,19.63882
2760,6.68462
2761,11.5499
2762,20.13687
2763,15.89905
2764,14.57251
2765,23.28062
2766,19.04769
2767,17.19107
2768,7.75831
2769,18.80343
2770,7.90053
2771,10.32101
2772,14.97139
2773,14.10861
2774,12.24084
2775,14.88655
2776,21.20314
2777,20.32267
2778,9.44743
2779,9.89591
2780,13.49827
2781,9.27277
2782,11.4958
2783,12.65998
2784,17.33875
2785,9.24733
2786,7.46563
2787,9.98417
2788,10.6763
2789,10.83438
2790,11.6
2791,13.1667
2792,16.4047
2793,16.08057
2794,16.22249
2795,6.50973
2796,9.12103
2797,11.73367
2798,11.83232
2799,13.19034
2800,16.56881
2801,12.9226
2802,10.77712
2803,12.43104
2804,11.44381
2805,3.70569
2806,-0.19948
2807,8.02633
2808,7.67269
2809,13.01987
2810,14.30828
2811,13.35909
2812,22.75867
2813,14.05782
2814,17.35333
2815,20.69128
2816,12.90009
2817,10.13008
2818,9.31041
2819,6.62533
2820,3.22818
2821,4.45402
2822,6.34332
2823,-0.1939
2824,-0.44891
2825,15.12179
2826,11.63476
2827,20.60142
2828,17.15606
2829,13.24611
2830,20.643
2831,7.0935
2832,12.4182
2833,21.78037
2834,20.94169
2835,22.6708
2836,19.35302
2837,13.72997
2838,12.60372
2839,9.72689
2840,7.03368
2841,9.24987
2842,16.85492
2843,21.27541
2844,13.66204
2845,24.11746
2846,23.6986
2847,15.35987
2848,18.18359
2849,14.84538
2850,18.36745
2851,6.6774
2852,23.80861
2853,8.70908
2854,8.68042
2855,15.3558
2856,19.59155
2857,24.67163
2858,22.29107
2859,14.7917
2860,15.28612
2861,-6.83912
2862,-5.44623
2863,19.64668
2864,22.414
2865,12.45884
2866,11.36337
2867,13.68006
2868,12.95473
2869,14.4033
2870,11.341
2871,9.54529
2872,16.03557
2873,20.45162
2874,11.33723
2875,8.29642
2876,29.74599
2877,10.38838
2878,10.31693
2879,14.19966
2880,13.81082
2881,25.33579
2882,15.34379
2883,12.08027
2884,20.28932
2885,13.69653
2886,16.93175
2887,18.94959
2888,14.90298
2889,11.6661
2890,0.90908
2891,6.49605
2892,15.46854
2893,19.50202
2894,20.27329
2895,19.58704
2896,20.62287
2897,15.17951
2898,9.51337
2899,14.15517
2900,14.35051
2901,9.00063
2902,11.17812
2903,16.29098
2904,22.76749
2905,20.78638
2906,8.67301
2907,-2.327
2908,-5.08325
2909,12.35906
2910,16.23687
2911,15.1795
2912,16.15868
2913,16.98808
2914,12.35665
2915,14.42636
2916,13.81069
2917,11.87827
2918,15.55366
2919,15.78612
2920,22.39804
2921,15.79486
2922,17.78362
2923,35.31078
2924,11.06265
2925,8.91456
2926,9.03445
2927,5.17059
2928,7.22001
2929,19.55963
2930,13.33484
2931,9.12579
2932,14.5647
2933,9.79579
2934,1.73879
2935,7.50963
2936,14.62142
2937,11.12709
2938,13.75792
2939,27.22978
2940,16.65504
2941,8.00907
2942,13.25789
2943,9.04872
2944,10.37998
2945,11.88617
2946,12.24405
2947,14.29525
2948,18.25369
2949,9.51458
2950,10.11729
2951,13.58987
2952,8.59598
2953,5.1905
2954,10.34973
2955,18.10891
2956,17.78219
2957,21.43875
2958,12.10894
2959,13.33182
2960,14.62463
2961,15.46708
2962,13.76705
2963,11.35545
2964,5.61079
2965,10.20998
2966,14.95173
2967,8.24082
2968,12.65599
2969,15.21351
2970,8.71038
2971,15.20025
2972,17.06104
2973,11.29417
2974,11.10126
2975,17.16356
2976,14.72649
2977,12.09752
2978,17.77469
2979,17.19835
2980,11.87772
2981,4.93023
2982,10.4489
2983,12.2888
2984,10.9028
2985,8.17416
2986,11.77018
2987,10.36405
2988,9.82271
2989,7.42507
2990,5.12992
2991,13.52701
2992,11.20641
2993,26.9497
2994,18.41871
2995,27.27954
2996,12.04281
2997,19.43775
2998,25.9759
2999,25.41682
3000,10.26825
