Frequency,Density
0,181.8
1,181.8
2,181.8
3,181.8
4,181.8
5,181.8
6,181.8
7,181.8
8,181.8
9,181.8
10,181.8
11,181.8
12,181.8
13,181.8
14,181.8
15,181.8
16,181.8
17,181.8
18,181.8
19,181.8
20,181.8
21,181.8
22,181.8
23,181.8
24,181.8
25,181.8
26,181.8
27,181.8
28,181.8
29,181.8
30,181.8
31,181.8
32,181.8
33,181.8
34,181.8
35,181.8
36,181.8
37,181.8
38,181.8
39,181.8
40,181.8
41,181.8
42,181.8
43,181.8
44,181.8
45,181.8
46,181.8
47,181.8
48,181.8
49,181.8
50,181.8
51,181.8
52,181.8
53,181.8
54,181.8
55,181.8
56,181.8
57,181.8
58,181.8
59,181.8
60,181.8
61,181.8
62,181.8
63,181.8
64,181.8
65,181.8
66,181.8
67,181.8
68,181.8
69,181.8
70,181.8
71,181.8
72,181.8
73,181.8
74,181.8
75,181.8
76,181.8
77,181.8
78,181.8
79,181.8
80,181.8
81,181.8
82,181.8
83,181.8
84,181.8
85,181.8
86,181.8
87,181.8
88,181.8
89,181.8
90,181.8
91,181.8
92,181.8
93,181.8
94,181.8
95,181.8
96,181.8
97,181.8
98,181.8
99,181.8
100,181.8
101,181.8
102,181.8
103,181.8
104,181.8
105,181.8
106,181.8
107,181.8
108,181.8
109,181.8
110,181.8
111,181.8
112,181.8
113,181.8
114,181.8
115,181.8
116,181.8
117,181.8
118,181.8
119,181.8
120,181.8
121,181.8
122,181.8
123,181.8
124,181.8
125,181.8
126,181.8
127,181.8
128,181.8
129,181.8
130,181.8
131,181.8
132,181.8
133,181.8
134,181.8
135,181.8
136,181.8
137,181.8
138,181.8
139,181.8
140,181.8
141,181.8
142,181.8
143,181.8
144,181.8
145,181.8
146,181.8
147,181.8
148,181.8
149,181.8
150,181.8
151,181.8
152,181.8
153,181.8
154,181.8
155,181.8
156,181.8
157,181.8
158,181.8
159,181.8
160,181.8
161,181.8
162,181.8
163,181.8
164,181.8
165,181.8
166,181.8
167,181.8
168,181.8
169,181.8
170,181.8
171,181.8
172,181.8
173,181.8
174,181.8
175,181.8
176,181.8
177,181.8
178,181.8
179,181.8
180,181.8
181,181.8
182,181.8
183,181.8
184,181.8
185,181.8
186,181.8
187,181.8
188,181.8
189,181.8
190,181.8
191,181.8
192,181.8
193,181.8
194,181.8
195,181.8
196,181.8
197,181.8
198,181.8
199,197.2675507
200,251.3946808
201,305.5218079
202,322.4169861
203,323.579187
204,324.3830567
205,322.5999634
206,320.8168579
207,319.3274353
208,318.0862915
209,316.8451416
210,315.9024597
211,314.9710571
212,314.4600891
213,314.6154236
214,314.7707459
215,315.5568665
216,316.4893799
217,318.6060486
218,324.5153686
219,330.4246948
220,331.0015686
221,328.9009583
222,326.9704101
223,326.659021
224,326.347644
225,325.9542419
226,325.4868896
227,325.0195495
228,321.564801
229,317.9796814
230,315.1580078
231,313.5203735
232,311.8827209
233,309.3404602
234,306.6094482
235,305.1157104
236,307.0675903
237,309.0194519
238,307.294812
239,304.0137451
240,300.9995972
241,299.5925903
242,298.1855957
243,297.9196289
244,298.4671204
245,298.912323
246,295.6254516
247,292.3385803
248,293.3664246
249,299.2392883
250,305.112146
251,302.2952515
252,298.6911133
253,293.1726074
254,284.3137451
255,275.4548889
256,275.9050507
257,278.4936737
258,280.8965088
259,282.780249
260,284.6639862
261,283.4581451
262,281.0235473
263,279.5837585
264,283.0413666
265,286.4989563
266,285.5440979
267,281.9272156
268,278.8142273
269,281.4891541
270,284.1640747
271,284.1295471
272,281.7679352
273,279.4063172
274,279.3214447
275,279.2426758
276,279.8138886
277,281.1537048
278,282.4935364
279,281.5110992
280,280.3282104
281,279.0843811
282,277.7429871
283,276.4015778
284,282.3720825
285,289.6357056
286,292.4993774
287,285.8634583
288,279.2275543
289,280.1575531
290,283.1612793
291,285.6618714
292,286.6900574
293,287.7182617
294,289.1490662
295,290.7318359
296,292.4721985
297,294.8477539
298,297.2233032
299,297.3600769
300,296.4092957
301,295.765155
302,296.875061
303,297.9849609
304,298.1516907
305,297.7550659
306,297.7493164
307,301.0829468
308,304.4165588
309,303.3376221
310,299.128418
311,295.2795105
312,296.4714844
313,297.6634644
314,291.9039795
315,280.4542297
316,269.449469
317,270.8815277
318,272.3135956
319,274.2849487
320,276.7527405
321,279.1715332
322,275.7464539
323,272.3213898
324,270.9171448
325,271.5547424
326,272.1923462
327,271.5696808
328,270.9317108
329,270.2935516
330,269.6552033
331,269.0168549
332,273.1975433
333,277.5089386
334,281.2974365
335,284.4929382
336,287.6884522
337,283.8656372
338,279.7889648
339,275.7482025
340,271.7491089
341,267.7500031
342,267.4459412
343,267.2858948
344,268.2761017
345,270.5983215
346,272.9205261
347,272.8452393
348,272.6849884
349,272.6376495
350,272.7178253
351,272.7979919
352,270.5319428
353,268.2056305
354,267.0773376
355,267.2378662
356,267.3983917
357,265.6507843
358,263.8839142
359,262.1165222
360,260.3486053
361,258.6395355
362,262.2578674
363,265.8761902
364,267.5157471
365,267.3548431
366,267.2030334
367,267.2835449
368,267.364035
369,266.6868988
370,265.3981049
371,264.2567078
372,265.062677
373,265.8686523
374,266.959845
375,268.2501556
376,270.0500824
377,276.0213012
378,281.9925171
379,278.1948181
380,268.6675324
381,260.4885986
382,259.7615112
383,259.0344238
384,255.7327393
385,251.2059753
386,248.142926
387,250.8120514
388,253.4811798
389,256.1514587
390,258.8221619
391,261.0731079
392,262.125824
393,263.1785462
394,263.2080566
395,262.964978
396,263.6856201
397,266.4421326
398,269.1986389
399,274.1051269
400,279.3780273
401,281.9369995
402,280.2324463
403,278.527887
404,276.6721527
405,274.8041565
406,274.927417
407,277.3653778
408,279.8126709
409,289.0823669
410,298.3520752
411,308.3740357
412,319.0323425
413,328.765979
414,328.3589416
415,327.9518921
416,324.378949
417,318.9213013
418,312.0508301
419,298.3579346
420,284.6650513
421,278.3415924
422,274.9163544
423,272.0318939
424,270.6446716
425,269.2574524
426,268.3350311
427,267.5185394
428,266.8509308
429,266.4424347
430,266.0339508
431,263.3017425
432,260.3588745
433,259.1462006
434,259.8823486
435,260.6329071
436,261.9423828
437,263.2518646
438,259.6100983
439,252.4036774
440,246.9410889
441,252.2671417
442,257.5931946
443,257.4251526
444,254.8835358
445,253.509787
446,255.4786529
447,257.4475128
448,256.7217774
449,255.4084229
450,253.4948151
451,250.6201599
452,247.7455017
453,245.9615417
454,244.2357239
455,243.1455383
456,242.6521606
457,242.117511
458,241.1301697
459,240.1428223
460,241.8421845
461,244.9706177
462,246.4060242
463,241.9577209
464,237.5094299
465,233.0590423
466,228.6081238
467,227.3524475
468,231.5585815
469,235.7647125
470,234.9872223
471,233.9144409
472,234.6892456
473,237.1663696
474,239.3187897
475,238.4925964
476,237.6664032
477,236.7838654
478,235.8745117
479,235.0291107
480,234.3673737
481,233.7056366
482,234.6433044
483,235.88479
484,236.2840423
485,235.5387085
486,234.7948456
487,234.214798
488,233.6347534
489,232.9064331
490,232.0773041
491,231.870932
492,234.4427429
493,237.0145599
494,235.5483398
495,232.8919922
496,232.1649201
497,234.8228363
498,237.4807495
499,236.6474426
500,235.6501312
501,235.2456269
502,235.3287842
503,235.1371491
504,233.3065826
505,231.4760284
506,230.26073
507,229.2616547
508,229.3877838
509,231.7203369
510,234.0528961
511,233.3409241
512,232.4240143
513,231.4619903
514,230.461142
515,229.4951568
516,228.7440766
517,227.9929962
518,228.3584106
519,229.1099396
520,230.065094
521,231.4019317
522,232.7387604
523,233.4381775
524,234.1069885
525,234.3529968
526,234.2693451
527,233.7706116
528,231.2596008
529,228.748587
530,231.7344482
531,236.2569458
532,238.4394745
533,237.0148865
534,235.5868622
535,233.6583374
536,231.7298096
537,230.8957031
538,230.7279053
539,230.3405487
540,229.2492279
541,228.1578979
542,229.1495117
543,230.4934753
544,230.2831391
545,228.3500458
546,226.9264953
547,230.3744812
548,233.8224609
549,234.1970947
550,233.3556274
551,231.8275635
552,228.9648743
553,226.102182
554,226.8123901
555,227.6548584
556,227.1042908
557,225.5869568
558,224.6203827
559,225.6325348
560,226.6446899
561,229.3006073
562,232.2544739
563,233.035025
564,231.4305481
565,229.6885803
566,226.8157165
567,223.9428528
568,224.2656342
569,225.7029144
570,225.0738342
571,221.0132233
572,216.9743194
573,214.773523
574,212.5727265
575,213.5037109
576,216.1292908
577,218.097464
578,218.4364441
579,218.7754303
580,218.2494476
581,217.6558716
582,217.1586426
583,216.7344086
584,215.8787079
585,213.4166992
586,210.9547028
587,211.9814667
588,213.595459
589,214.5705109
590,214.9105011
591,215.2505219
592,215.5907135
593,215.9308991
594,216.9493835
595,218.1407532
596,218.1154328
597,216.5827606
598,215.1666656
599,214.8258728
600,214.4850769
601,214.5279358
602,214.6984314
603,215.5931763
604,217.555069
605,219.2168274
606,216.14422
607,213.0716156
608,213.607016
609,215.5712341
610,215.7761627
611,213.0417236
612,210.5304596
613,214.3780396
614,218.2256134
615,217.3790497
616,214.4702698
617,213.7919372
618,217.1304596
619,220.3469086
620,217.777298
621,215.2076782
622,214.2237
623,213.9665894
624,211.8676758
625,206.3793396
626,201.0766876
627,204.9379578
628,208.7992249
629,210
630,209.9999969
631,210.1853302
632,210.7007812
633,211.427298
634,218.6478211
635,225.868335
636,225.0903626
637,220.961908
638,219.020459
639,220.6556061
640,222.1569855
641,221.3819824
642,220.6069824
643,219.2001343
644,217.5630493
645,216.9549652
646,217.8171021
647,218.4652252
648,216.9987274
649,215.5322296
650,214.7326691
651,214.1284638
652,212.3022095
653,209.0202789
654,206.6619293
655,209.945813
656,213.2296906
657,214.8717804
658,216.1688141
659,216.5779175
660,216.1453156
661,215.3283813
662,212.9909485
663,210.6535187
664,210.0138611
665,209.5807465
666,208.3899353
667,206.6564484
668,205.8534485
669,207.5012329
670,209.1490204
671,210.3772919
672,211.5921662
673,212.2884003
674,212.7225434
675,212.5296722
676,211.226471
677,209.9948822
678,209.9079468
679,209.8210236
680,210.5914093
681,211.6352051
682,211.3612579
683,209.5335388
684,208.7989715
685,213.7628662
686,218.7267639
687,221.9608612
688,224.9235352
689,224.8601593
690,222.5060456
691,220.2236054
692,218.1298248
693,216.0360443
694,213.9410431
695,211.8460235
696,207.9982361
697,203.368988
698,201.5833588
699,204.0304504
700,206.061148
701,204.8368744
702,203.6126068
703,203.7615234
704,204.1990204
705,205.5833008
706,207.7720917
707,208.4571625
708,204.7778168
709,201.0984711
710,199.890976
711,198.7514557
712,198.2786865
713,198.1032684
714,198.6496643
715,200.2293335
716,201.7510346
717,202.8925842
718,204.0341339
719,201.2712189
720,197.8445435
721,198.3833069
722,201.8120117
723,203.4523712
724,200.9892731
725,198.6079132
726,198.8719727
727,199.1360321
728,198.8663177
729,198.4259521
730,197.8138367
731,197.0207214
732,196.419165
733,196.5073425
734,196.59552
735,198.5261566
736,200.5554199
737,200.5373657
738,199.566275
739,199.4050598
740,200.3767303
741,201.1730041
742,200.996228
743,200.8194641
744,200.0916687
745,199.2957275
746,197.0535583
747,193.9563782
748,192.782724
749,194.9077637
750,197.3435303
751,202.3048889
752,207.2662598
753,203.0144867
754,197.1636932
755,194.535672
756,194.0921661
757,194.0422882
758,194.7523163
759,195.431192
760,195.7864105
761,196.1416412
762,202.2150848
763,209.4126526
764,210.215625
765,206.4813385
766,204.1790985
767,204.7128845
768,205.129953
769,204.3287995
770,203.5276428
771,199.4314179
772,194.7107147
773,193.1713532
774,193.7952118
775,194.2939453
776,194.5614685
777,194.780658
778,194.6022034
779,194.4237427
780,195.0966248
781,195.9001618
782,195.2480163
783,193.7293243
784,192.7653107
785,192.6759247
786,192.3844544
787,190.9534027
788,189.5223572
789,191.8552613
790,194.5400726
791,193.4523071
792,190.5868133
793,190.2394592
794,193.0170532
795,194.9888672
796,194.0026886
797,193.0165009
798,190.7948761
799,188.5522156
800,191.2475708
801,195.5560272
802,198.0248413
803,198.8331604
804,199.1046936
805,198.1161652
806,197.1670898
807,196.7174927
808,196.2678985
809,194.3667419
810,192.2073944
811,190.5545319
812,189.2041382
813,188.10849
814,187.3878571
815,186.700354
816,186.1595551
817,185.6187592
818,187.6023499
819,189.6766418
820,189.5252838
821,188.622879
822,188.6798065
823,189.5827423
824,189.6854706
825,188.0592193
826,186.9806854
827,190.6871246
828,194.3935608
829,189.2430328
830,183.0016693
831,184.0125885
832,188.4474976
833,190.5448608
834,190.0014862
835,189.5763397
836,189.4857239
837,189.3363525
838,188.1576477
839,186.9789429
840,186.8
841,186.8
842,187.092157
843,187.5460449
844,188.8802795
845,191.3327179
846,193.8939422
847,196.8022644
848,199.5481323
849,198.1840454
850,196.8199585
851,193.6234985
852,190.0747681
853,188.3916107
854,187.7542816
855,186.6312653
856,184.9003449
857,184.7110993
858,189.17771
859,193.2303741
860,190.129248
861,187.028128
862,186.9146515
863,187.2797089
864,187.7061402
865,188.1627228
866,189.2777893
867,191.1052215
868,192.1601562
869,191.3373199
870,190.6665527
871,191.3069183
872,191.9472839
873,189.5640228
874,186.9095123
875,186.2
876,186.2
877,184.9923828
878,182.7929321
879,182.2742431
880,184.6583954
881,185.5440705
882,179.8554077
883,174.2177124
884,177.247345
885,180.2769806
886,180.800003
887,180.7999969
888,181.6366669
889,182.9234924
890,181.2008881
891,176.1424927
892,173.6479675
893,177.1449371
894,179.8858307
895,177.3996643
896,174.9135071
897,179.4602143
898,184.3433564
899,182.5826019
900,178.9872101
901,177.3167328
902,176.8555084
903,178.2466705
904,181.9386322
905,183.82659
906,181.0559723
907,178.5265381
908,177.8796753
909,177.2328155
910,174.7423554
911,172.1533691
912,171.7454865
913,171.9305237
914,172.9828583
915,174.5566101
916,178.4091644
917,184.8931641
918,187.5347076
919,181.4175873
920,176.1454498
921,175.7744965
922,175.40354
923,178.0653381
924,180.7563629
925,181.2775421
926,181.3703918
927,178.9954529
928,175.465097
929,175.5681397
930,178.9146759
931,182.0516358
932,184.8420715
933,186.6413666
934,185.0591797
935,183.1004242
936,176.6747864
937,170.2491486
938,172.573349
939,175.5551269
940,174.0809265
941,171.3770783
942,169.0296875
943,166.8839874
944,166.1233216
945,166.7767487
946,166.8709808
947,165.9369598
948,165.5352051
949,167.1239868
950,168.2946808
951,163.9930725
952,159.6914612
953,162.1913269
954,165.1855285
955,165.0558929
956,164.1196472
957,165.5274963
958,168.1505402
959,169.5472565
960,169.8284637
961,168.171051
962,163.4814728
963,159.8307648
964,159.1738342
965,158.5406128
966,158.0710968
967,157.6015839
968,157.4127167
969,157.2247986
970,160.056308
971,163.346817
972,164.4090363
973,164.6912475
974,165.5521118
975,166.7757599
976,168.1381653
977,169.6450836
978,169.7024628
979,167.2522644
980,164.9167664
981,162.9365814
982,161.0955383
983,160.2463806
984,159.4061646
985,161.2942932
986,163.1824249
987,158.5525086
988,153.0736725
989,155.3547516
990,159.9861755
991,161.9081024
992,162.3809753
993,163.0064056
994,163.7634582
995,163.6788696
996,162.4479309
997,162.0421967
998,163.4633484
999,163.6890411
1000,159.1386322
1001,155.1716736
1002,157.0688049
1003,158.9659332
1004,161.4234253
1005,163.891156
1006,166.3601776
1007,168.8293793
1008,166.4773682
1009,162.6763367
1010,158.4317169
1011,153.962851
1012,154.7209076
1013,159.5729919
1014,161.3705567
1015,159.56185
1016,157.4461578
1017,154.7791046
1018,152.8491669
1019,153.0397888
1020,154.3103699
1021,161.2720337
1022,167.5919373
1023,164.2521667
1024,160.9123962
1025,161.9994507
1026,163.2406738
1027,160.901828
1028,158.0357636
1029,154.4988861
1030,150.7707855
1031,147.8941101
1032,145.4072327
1033,146.051355
1034,148.826828
1035,151.0709137
1036,152.7946472
1037,153.6003296
1038,153.1212311
1039,153.5266205
1040,155.7317841
1041,157.0028839
1042,155.3720093
1043,153.740976
1044,152.1091339
1045,150.5711121
1046,150.1869202
1047,149.8027283
1048,151.2313477
1049,152.6729248
1050,157.6227051
1051,162.9116272
1052,159.877179
1053,155.1624237
1054,153.5647614
1055,152.9871033
1056,151.3671081
1057,149.24776
1058,149.3253418
1059,150.8675964
1060,150.1312622
1061,147.3342529
1062,147.1942139
1063,150.2824005
1064,150.2966553
1065,145.2753662
1066,142.5139252
1067,144.8328232
1068,147.7961029
1069,152.8233673
1070,156.1652313
1071,151.2317108
1072,146.9279907
1073,148.1863006
1074,149.4824066
1075,151.8068237
1076,154.1312408
1077,152.5072449
1078,150.7628967
1079,151.2153747
1080,151.8941376
1081,152
1082,152
1083,156.4830414
1084,162.2108459
1085,159.5887085
1086,153.7603638
1087,151.025943
1088,149.8595764
1089,148.9874634
1090,148.3066833
1091,148.3208466
1092,148.9047241
1093,150.1625671
1094,152.1099731
1095,151.9560577
1096,149.1306366
1097,147.4755493
1098,147.67052
1099,147.8982971
1100,148.1909271
1101,147.4802704
1102,144.2593903
1103,141.8
1104,141.7999969
1105,141.9842041
1106,142.9613922
1107,143.7306732
1108,143.2417877
1109,142.5643952
1110,140.1185303
1111,137.9630859
1112,141.0956573
1113,144.1938202
1114,143.5081635
1115,142.8225052
1116,145.2646027
1117,147.8128418
1118,144.7288605
1119,141.1984253
1120,143.4986145
1121,146.5405182
1122,144.6661041
1123,141.9169373
1124,144.6705566
1125,148.6985046
1126,145.403476
1127,139.9969055
1128,140.8613312
1129,143.9104797
1130,144.4514679
1131,143.9593781
1132,143.1341705
1133,142.149408
1134,142.2450195
1135,142.9347656
1136,141.9863861
1137,140.0145111
1138,139.0262878
1139,138.7303345
1140,138.2685562
1141,137.6762879
1142,138.1904144
1143,139.671962
1144,142.3100372
1145,146.0655213
1146,145.3148041
1147,139.7771088
1148,138.1725586
1149,141.1409485
1150,141.0968445
1151,137.2356445
1152,136.0426407
1153,138.5192414
1154,140.5978607
1155,142.0847046
1156,142.2756088
1157,140.3911529
1158,140.8430145
1159,145.3088531
1160,145.8540558
1161,139.2009644
1162,133.1519348
1163,128.2833466
1164,127.8810394
1165,136.7292511
1166,141.5821869
1167,137.7025757
1168,136.2985321
1169,140.5786011
1170,141.8719666
1171,135.9958222
1172,132.3414444
1173,134.2348862
1174,137.1580994
1175,142.7420898
1176,145.3275452
1177,139.9397766
1178,135.6512039
1179,134.3533783
1180,133.771167
1181,135.1696594
1182,136.1210602
1183,135.8212097
1184,135.3376907
1185,134.3375854
1186,132.9695541
1187,130.5678604
1188,129.6720383
1189,132.9763336
1190,135.3465958
1191,135.1462189
1192,134.2412887
1193,131.4343079
1194,129.6208939
1195,130.4233643
1196,130.7457809
1197,129.8424668
1198,129.577008
1199,130.8825775
1200,131.6805023
1201,131.2785507
1202,131.5556457
1203,133.3655029
1204,134.568016
1205,134.4674103
1206,134.9314972
1207,136.5421783
1208,135.9058746
1209,130.9702408
1210,128.6652023
1211,131.0840912
1212,132.6376495
1213,132.7384949
1214,131.3435089
1215,127.6099441
1216,126.5536896
1217,129.3807724
1218,131.2589783
1219,131.8651443
1220,132.5167114
1221,133.224324
1222,131.7969955
1223,127.9533936
1224,126.2986313
1225,126.9058777
1226,127.4610916
1227,127.9674332
1228,129.2409393
1229,131.1661773
1230,130.103273
1231,126.7574554
1232,127.3292511
1233,130.5756058
1234,130.5355225
1235,128.5053421
1236,128.1976883
1237,128.8071045
1238,131.1532944
1239,134.3038163
1240,133.5264267
1241,131.1875549
1242,132.0476028
1243,133.980867
1244,131.6091583
1245,128.0457627
1246,126.6493088
1247,125.7324616
1248,127.2569123
1249,129.1936249
1250,130.3112472
1251,131.3311767
1252,128.9256516
1253,126.2722595
1254,124.0146622
1255,121.8115891
1256,122.6289902
1257,123.4232101
1258,123.8321518
1259,124.1794403
1260,123.9748459
1261,124.4697006
1262,129.0757889
1263,132.1136871
1264,128.5290451
1265,126.8517868
1266,131.2583984
1267,132.1334091
1268,124.2378098
1269,119.9670441
1270,122.8398773
1271,125.2362137
1272,126.8788086
1273,129.2887818
1274,132.6786499
1275,133.1352158
1276,130.5656097
1277,128.1075516
1278,125.742102
1279,123.9950211
1280,122.6572357
1281,121.8611252
1282,121.346286
1283,123.4863937
1284,126.6802918
1285,127.0006973
1286,126.4852463
1287,125.8834488
1288,125.2645355
1289,127.9735168
1290,131.0699036
1291,127.4404541
1292,123.5889435
1293,123.0722641
1294,122.7155457
1295,124.0597122
1296,122.6735794
1297,106.0167175
1298,96.41607972
1299,112.0476456
1300,122.2501984
1301,118.9355774
1302,118.3115448
1303,122.5609253
1304,124.5582001
1305,123.5211487
1306,122.1224442
1307,120.3584076
1308,121.8492066
1309,125.7946869
1310,126.3973648
1311,125.1506836
1312,124.2023117
1313,123.3706955
1314,119.6454407
1315,115.1728485
1316,116.9593887
1317,119.6653549
1318,117.8208847
1319,115.8216675
1320,116.5510605
1321,117.0619904
1322,115.8108521
1323,115.0203888
1324,116.1679489
1325,116.827803
1326,116.2014923
1327,115.3125976
1328,113.9547806
1329,114.5460358
1330,117.5768158
1331,118.0570572
1332,116.2793381
1333,116.3757874
1334,117.631395
1335,115.9290985
1336,112.9976074
1337,114.2348557
1338,116.5395386
1339,115.6843048
1340,114.4264588
1341,118.7124222
1342,124.0254013
1343,141.0265396
1344,152.8072662
1345,138.4212158
1346,128.8173874
1347,132.7049789
1348,133.4676651
1349,128.6315613
1350,124.5134491
1351,121.2524033
1352,119.0994644
1353,117.8363724
1354,115.0562347
1355,111.4753463
1356,113.06828
1357,116.3351486
1358,113.9058792
1359,110.5316239
1360,108.9805054
1361,107.6
1362,107.6
1363,108.0153122
1364,110.4448837
1365,112.4053909
1366,113.1452667
1367,114.741243
1368,117.7025024
1369,116.2707413
1370,110.3447082
1371,106.7201935
1372,104.6024948
1373,110.9740906
1374,120.7212982
1375,115.8185028
1376,107.8676865
1377,107.9990067
1378,108.7064102
1379,110.6168778
1380,111.8542694
1381,109.836467
1382,110.1144211
1383,116.0651596
1384,118.2618332
1385,114.9657181
1386,112.5622147
1387,110.9663727
1388,110.9493774
1389,111.8009994
1390,111.1837402
1391,110.1185806
1392,107.442717
1393,104.587056
1394,103.5206299
1395,102.7604691
1396,103.9342377
1397,105.8646347
1398,109.921875
1399,111.568396
1400,109.4317383
1401,108.3447205
1402,108.2378235
1403,108.8220123
1404,109.7846497
1405,107.1752304
1406,103.5364349
1407,101.3534653
1408,99.43420408
1409,100.2914078
1410,102.0409165
1411,108.0449142
1412,111.1428513
1413,107.7099548
1414,106.3238236
1415,107.5045807
1416,107.0648895
1417,105.4538086
1418,104.5368149
1419,103.8919998
1420,108.2251633
1421,113.3867554
1422,106.6387787
1423,101.0985367
1424,103.2517593
1425,104.981601
1426,105.6279495
1427,106.4574387
1428,107.5353271
1429,107.8772858
1430,107.6615784
1431,106.7517914
1432,105.5647049
1433,106.0509934
1434,106.8127518
1435,108.2173401
1436,108.6142517
1437,103.6412186
1438,100.9330429
1439,103.3128647
1440,104.6993927
1441,104.9158692
1442,105.3310608
1443,105.8725708
1444,105.8342697
1445,105.6175354
1446,105.5003418
1447,105.2705002
1448,103.5345764
1449,101.4721237
1450,98.32389222
1451,96.86468048
1452,98.05954743
1453,98.36188964
1454,97.92713623
1455,102.5709366
1456,109.3136383
1457,106.4194702
1458,102.1666687
1459,101.0778442
1460,100.3055527
1461,100.8502884
1462,101.9025024
1463,103.8647156
1464,104.3433166
1465,103.4707031
1466,99.66168671
1467,94.53204498
1468,95.01707764
1469,96.44243927
1470,98.0815033
1471,99.54968719
1472,100.3150375
1473,100.1988083
1474,98.55779726
1475,97.21084136
1476,96.11618348
1477,95.56631927
1478,95.23772736
1479,97.62531126
1480,100.0611465
1481,97.75826875
1482,95.84430543
1483,95.1859497
1484,95.2088501
1485,96.1969696
1486,99.07184449
1487,103.2463806
1488,100.892363
1489,96.60542603
1490,94.41039124
1491,92.9236557
1492,95.34479676
1493,97.55737763
1494,99.31925507
1495,98.21627657
1496,94.24970246
1497,93.15102691
1498,93.37152405
1499,92.72753448
1500,92.10852356
1501,93.98496398
1502,95.80736694
1503,97.46403198
1504,97.05389709
1505,93.95961609
1506,93.35308838
1507,94.23769226
1508,93.76761475
1509,93.02063293
1510,95.3454773
1511,97.15518188
1512,96.93363494
1513,95.43659822
1514,92.0006134
1515,93.95050354
1516,99.60660858
1517,96.77241823
1518,91.66780396
1519,94.3390213
1520,96.29086915
1521,94.6243454
1522,92.61474457
1523,90.0578949
1524,90.49984741
1525,93.05821686
1526,94.74048462
1527,96.18737794
1528,95.09606172
1529,94.37417754
1530,95.26563111
1531,96.11263123
1532,96.89311524
1533,95.57527161
1534,92.8977417
1535,94.39932251
1536,96.86525574
1537,99.76935425
1538,101.4298172
1539,98.9710434
1540,97.10528563
1541,95.98699798
1542,95.81951447
1543,96.1552002
1544,94.45364532
1545,92.86959228
1546,96.23042297
1547,97.24448089
1548,92.64861756
1549,91.20197144
1550,92.77222137
1551,93.28165436
1552,93.3938797
1553,90.85190125
1554,88.28591767
1555,86.37579498
1556,86.1940979
1557,88.77991791
1558,88.36956787
1559,86.00720215
1560,91.09633331
1561,97.08529663
1562,90.89081268
1563,86.15204468
1564,85.25049438
1565,87.11302643
1566,91.73621063
1567,92.01617889
1568,90.66225282
1569,89.41526032
1570,87.76108246
1571,84.25928497
1572,83.36400909
1573,86.18971405
1574,87.05467987
1575,86.82848969
1576,89.17381134
1577,91.23765564
1578,87.84077453
1579,86.25551148
1580,88.18155212
1581,87.56579742
1582,85.07179871
1583,85.70367127
1584,86.98918762
1585,86.76219177
1586,86.63242188
1587,86.74598694
1588,84.35691681
1589,79.69798279
1590,82.68448334
1591,87.99758301
1592,87.54251556
1593,86.55243073
1594,83.93423462
1595,81.87385254
1596,80.39312592
1597,81.59051361
1598,83.75593414
1599,85.58746338
1600,87.10307464
1601,87.55949249
1602,86.1256897
1603,82.58635254
1604,81.35278778
1605,81.0100708
1606,84.21751099
1607,86.26930695
1608,83.86742706
1609,79.62705688
1610,73.33269043
1611,78.07310943
1612,87.00494842
1613,85.51885223
1614,83.63991241
1615,81.23233795
1616,80.78395386
1617,82.38995361
1618,82.54357147
1619,82.20490875
1620,84.3870636
1621,84.80093536
1622,80.20420685
1623,78.59848633
1624,79.74834748
1625,80.98861694
1626,82.41205292
1627,87.36232147
1628,88.93454437
1629,82.82944184
1630,81.3154953
1631,83.27489472
1632,82.34950561
1633,81.40340118
1634,85.44223785
1635,86.6027298
1636,82.79243012
1637,81.69324951
1638,82.1553772
1639,79.69349213
1640,78.22205353
1641,82.96447449
1642,84.62305756
1643,82.42404938
1644,80.22410889
1645,78.02379913
1646,79.6046936
1647,81.83744812
1648,85.7795044
1649,85.78936157
1650,82.42502899
1651,80.19325256
1652,78.36819763
1653,78.01974945
1654,78.52970581
1655,80.50540619
1656,81.12459564
1657,81.00830994
1658,82.40451813
1659,83.33149719
1660,82.05083618
1661,81.85832672
1662,82.79027099
1663,82.27735901
1664,81.53791351
1665,83.87052612
1666,84.35530243
1667,81.32111359
1668,77.47593384
1669,73.15549469
1670,74.73003235
1671,77.38711548
1672,82.1802948
1673,83.67322083
1674,81.80160522
1675,77.44701233
1676,72.98858643
1677,75.44798737
1678,76.00560761
1679,73.31038513
1680,71.46822968
1681,70.06119537
1682,75.61097412
1683,79.26102295
1684,76.32623291
1685,74.80685882
1686,74.4544754
1687,74.49936066
1688,75.1408371
1689,78.90403137
1690,79.07112885
1691,74.7173645
1692,73.07486725
1693,72.58424225
1694,76.70753937
1695,75.26857147
1696,63.36288528
1697,66.64055634
1698,78.08149109
1699,74.43125152
1700,71.35352325
1701,71.94395905
1702,74.67598267
1703,79.04779205
1704,75.98472748
1705,72.2339386
1706,70.22289429
1707,69.31632233
1708,69.55305481
1709,70.16970062
1710,70.90715485
1711,71.8552063
1712,72.4504364
1713,72.56901398
1714,72.9505661
1715,73.27416077
1716,70.89982987
1717,70.31876831
1718,72.81329117
1719,72.86764679
1720,71.80022964
1721,71.91915588
1722,70.7806076
1723,66.97269516
1724,67.42749329
1725,70.28511505
1726,74.40218353
1727,77.73505859
1728,78.92713928
1729,75.15408783
1730,68.11664886
1731,66.60471726
1732,67.80690384
1733,75.80800781
1734,75.27649689
1735,68.46557159
1736,66.82910614
1737,66.60397949
1738,69.23586273
1739,70.73377686
1740,71.33228455
1741,69.70046158
1742,68.01793671
1743,67.17903672
1744,66.07692871
1745,64.75787888
1746,68.08557663
1747,71.35373993
1748,72.07407074
1749,71.8738205
1750,70.91281128
1751,72.28522339
1752,73.88930054
1753,75.2122467
1754,73.92749176
1755,70.55800171
1756,71.81424866
1757,72.10632782
1758,67.40756988
1759,66.0904541
1760,67.29597473
1761,67.0693573
1762,66.27545319
1763,64.22365189
1764,63.90600891
1765,64.75136414
1766,61.7251152
1767,60.51173553
1768,64.38078766
1769,63.34871674
1770,59.47738266
1771,66.39922256
1772,69.9691513
1773,66.21437531
1774,64.83600616
1775,64.65107193
1776,66.5913063
1777,67.25101776
1778,65.79498367
1779,66.19625473
1780,67.07147522
1781,65.49224548
1782,66.02765808
1783,69.30953217
1784,68.4634491
1785,66.42898407
1786,63.87340622
1787,63.69965134
1788,65.89143753
1789,66.93279648
1790,67.6
1791,67.6
1792,67.03680878
1793,66.06095962
1794,61.76613464
1795,58.12545624
1796,56.53782959
1797,59.15124054
1798,63.82999878
1799,65.05268784
1800,66.08539276
1801,66.8194397
1802,63.03101654
1803,58.56195984
1804,59.90929642
1805,60.77918701
1806,61.14685822
1807,64.24225006
1808,66.14592438
1809,62.34217377
1810,60.07002945
1811,58.84229126
1812,61.0536766
1813,62.10217972
1814,60.62715759
1815,59.41363983
1816,58.47259216
1817,59.33403473
1818,61.4393692
1819,65.01030273
1820,63.43990402
1821,61.81736298
1822,63.78985291
1823,63.21890564
1824,60.87519531
1825,62.59198685
1826,63.67124939
1827,63.30075455
1828,61.40066986
1829,59.376091
1830,60.98346024
1831,59.66959076
1832,55.33951492
1833,56.53384781
1834,57.77478409
1835,56.9077507
1836,59.31812363
1837,63.30683212
1838,60.33064346
1839,59.22313767
1840,60.71210709
1841,57.69509659
1842,54.37568359
1843,54.25145722
1844,56.09313278
1845,59.32492599
1846,61.22225494
1847,61.20702896
1848,57.97143402
1849,56.25168839
1850,55.58723374
1851,58.07907868
1852,59.95445175
1853,61.32577362
1854,63.99571304
1855,65.11598434
1856,63.11899185
1857,61.39841614
1858,59.72279739
1859,57.72345657
1860,57.20369415
1861,57.95388794
1862,56.35617829
1863,55.66801376
1864,57.0449852
1865,59.63103332
1866,62.96537399
1867,68.22908325
1868,65.91368332
1869,57.38648529
1870,56.16149368
1871,55.37356567
1872,54.74582901
1873,55.08218994
1874,55.64414444
1875,55.89553375
1876,57.02906876
1877,58.78983002
1878,58.42465363
1879,57.33320389
1880,55.19262619
1881,57.47490692
1882,59.53778763
1883,57.52075958
1884,53.55742798
1885,49.15312958
1886,55.33753052
1887,58.12267074
1888,57.11238022
1889,57.8984375
1890,58.17443314
1891,56.78365249
1892,56.49161072
1893,57.57903061
1894,64.41451416
1895,62.62035446
1896,54.13431625
1897,55.37198257
1898,58.46544571
1899,64.04490509
1900,61.63485336
1901,58.34352036
1902,57.32788315
1903,55.02154617
1904,52.16498261
1905,49.87711716
1906,50.01145782
1907,52.30066528
1908,54.3476944
1909,55.10987701
1910,53.83660354
1911,55.57082825
1912,57.24425964
1913,56.60687637
1914,54.5046608
1915,51.95886612
1916,51.57598801
1917,51.4
1918,51.4
1919,54.88540344
1920,55.69287338
1921,52.49660721
1922,54.80929031
1923,56.69605255
1924,54.90404587
1925,56.88537979
1926,58.83335571
1927,52.6821312
1928,52.64749527
1929,56.53402405
1930,54.73781433
1931,54.04539871
1932,54.55890274
1933,52.59109955
1934,51.38659592
1935,51.90070038
1936,53.45266876
1937,55.38288269
1938,57.69906463
1939,54.5390953
1940,49.98551407
1941,51.27378845
1942,53.63002167
1943,56.42982712
1944,52.17354202
1945,48.61069336
1946,45.77151032
1947,48.02657547
1948,50.20585251
1949,51.75630951
1950,50.14766159
1951,49.5183342
1952,52.62288055
1953,49.90681839
1954,46.27944107
1955,46.66796264
1956,49.87962036
1957,53.68212128
1958,50.95928192
1959,49.502005
1960,48.88986587
1961,45.51478729
1962,43.8
1963,43.8
1964,45.65610199
1965,47.49854355
1966,49.18904419
1967,46.09754791
1968,54.6925087
1969,87.50053406
1970,74.15258789
1971,54.43638382
1972,48.57095718
1973,42.41655579
1974,38.82573853
1975,46.00297394
1976,48.05214539
1977,47.75790787
1978,48.93373718
1979,49.08445282
1980,48.57115097
1981,48.17875061
1982,48.57006988
1983,49.56153793
1984,47.20438004
1985,44.46206512
1986,41.31735229
1987,43.97669907
1988,45.77205963
1989,46.16560821
1990,42.96570664
1991,42.02586594
1992,45.17793045
1993,44.00657501
1994,43.20729523
1995,44.39069901
1996,42.54235992
1997,43.55214615
1998,52.63550263
1999,48.09638138
2000,43.11910629
2001,47.33659439
2002,44.84958725
2003,40.68126602
2004,38.43811073
2005,38.65022507
2006,40.76653595
2007,46.57912445
2008,45.22292099
2009,41.90530395
2010,44.81498947
2011,44.57449264
2012,43.43743286
2013,46.3505127
2014,47.23048401
2015,46.18887329
2016,39.95821915
2017,44.11278
2018,52.44911346
2019,44.08764725
2020,41.20291901
2021,41.67948456
2022,40.48359756
2023,45.54326859
2024,53.59903412
2025,49.2090004
2026,46.14786148
2027,44.02938919
2028,42.03159408
2029,40.1109108
2030,38.55487366
2031,40.42165451
2032,40.8110466
2033,40.05418587
2034,38.31872711
2035,37.91302261
2036,38.53020935
2037,40.00038528
2038,38.85786362
2039,36.04489136
2040,34.43919563
2041,39.03825683
2042,46.03240738
2043,38.93232727
2044,36.03508301
2045,36.57595901
2046,42.87958679
2047,41.89285584
2048,37.66610337
2049,39.54596558
2050,37.83452835
2051,35.74499893
2052,41.52557983
2053,40.67318726
2054,37.37458115
2055,37.23999253
2056,36.06419067
2057,34.18397331
2058,31.35432777
2059,25.95253982
2060,24.70741043
2061,38.73719177
2062,42.00000152
2063,40.80366745
2064,36.61685104
2065,37.97543488
2066,38.87737885
2067,36.03785133
2068,34.22681541
2069,33.69755096
2070,35.05127831
2071,33.39144096
2072,33.71347351
2073,37.37278595
2074,34.4202858
2075,36.68419876
2076,45.5038887
2077,33.51418266
2078,28.02056351
2079,28.84159698
2080,29.79306488
2081,30.511343
2082,31.02769318
2083,31.29985695
2084,32.17454262
2085,33.24446831
2086,33.51694756
2087,31.32555199
2088,30.10643539
2089,35.83515167
2090,36.68019104
2091,34.46011352
2092,28.58819389
2093,27.0317955
2094,25.99633331
2095,24.35575638
2096,22.09528427
2097,23.52861748
2098,29.68791695
2099,29.8
2100,29.58563614
2101,29.25094948
2102,30.0736187
2103,29.24132423
2104,28.01926727
2105,30.9019474
2106,30.94895249
2107,28.9782608
2108,24.58051376
2109,29.5836235
2110,33.51282616
2111,29.52274818
2112,30.55522079
2113,29.59330597
2114,24.77211571
2115,30.84665947
2116,31.1689331
2117,26.4779274
2118,34.06725311
2119,36.40700226
2120,34.6882061
2121,29.16230431
2122,26.80682182
2123,25.73822556
2124,24.77007256
2125,23.68738098
2126,25.62475967
2127,32.54813957
2128,29.11484299
2129,27.272369
2130,27.83362007
2131,28.52716026
2132,27.3687912
2133,26.08970909
2134,30.25576363
2135,30.19057388
2136,29.11927147
2137,29.53635979
2138,27.5959774
2139,25.91486969
2140,25.21892014
2141,29.26452675
2142,30.60161743
2143,29.0761982
2144,23.91723785
2145,23.50302582
2146,24.18489914
2147,20.69508553
2148,22.90819473
2149,25.40622635
2150,25.96524162
2151,27.70481873
2152,28.10289192
2153,27.23281059
2154,27.65279923
2155,29.98356018
2156,31.48124657
2157,26.43556748
2158,26.51456299
2159,26.83102722
2160,25.28751259
2161,30.49761238
2162,31.52369346
2163,28.54651108
2164,27.98426132
2165,27.13813706
2166,25.41395569
2167,21.47366028
2168,23.36812134
2169,25.60300369
2170,26.58921356
2171,28.69139938
2172,26.86499367
2173,22.88601379
2174,23.45053749
2175,27.02623177
2176,30.69569816
2177,32.24992867
2178,30.73958206
2179,27.79495773
2180,24.07421455
2181,25.06498108
2182,25.49373207
2183,25.03404541
2184,22.76682586
2185,26.67834663
2186,28.62942963
2187,26.34441605
2188,23.22160149
2189,25.89108276
2190,30.05907936
2191,25.36946259
2192,24.06160927
2193,22.97470226
2194,20.8406044
2195,22.7550518
2196,22.94360924
2197,22.51449814
2198,25.50739594
2199,26.52880287
2200,25.4419754
2201,21.73221969
2202,23.25212021
2203,21.98780213
2204,19.49031658
2205,22.49182968
2206,21.67022591
2207,22.59706192
2208,28.60699158
2209,27.55280075
2210,27.08180046
2211,27.42565689
2212,28.71571999
2213,25.98091469
2214,23.9316349
2215,24.79266548
2216,28.78620453
2217,28.67997284
2218,26.75626106
2219,28.48129196
2220,26.92382813
2221,24.19398956
2222,20.81309738
2223,15.48508854
2224,20.21047668
2225,27.53953361
2226,26.53037415
2227,25.64632378
2228,26.94752693
2229,29.77279129
2230,25.4403759
2231,25.43752556
2232,27.98188171
2233,32.17468834
2234,27.06134186
2235,23.21283646
2236,20.88369942
2237,19.14575882
2238,19.61257133
2239,22.09186706
2240,26.34576721
2241,25.0400692
2242,27.00590134
2243,28.73017082
2244,25.68005028
2245,26.98380432
2246,26.02083473
2247,23.74667931
2248,27.23852425
2249,24.3574234
2250,22.01608963
2251,22.99999962
2252,23
2253,23.57988243
2254,24.24249802
2255,24.38840943
2256,26.95352707
2257,26.91302185
2258,25.18570137
2259,26.20882912
2260,26.51891861
2261,28.68642731
2262,33.11535873
2263,34.57947846
2264,25.60224838
2265,18.32455177
2266,22.13561745
2267,30.13020821
2268,28.65495987
2269,23.76504059
2270,25.96750488
2271,24.75453072
2272,23.8432682
2273,24.61516838
2274,30.49847794
2275,26.3370285
2276,20.72864513
2277,17.3179142
2278,24.83199387
2279,22.77408104
2280,19.96259727
2281,21.53554192
2282,26.84868736
2283,25.13513107
2284,22.30041695
2285,24.51675491
2286,25.59601135
2287,26.54107323
2288,26.85687408
2289,25.52479401
2290,26.20531616
2291,25.69404488
2292,24.27778129
2293,23.68473244
2294,23.72715187
2295,24.10216522
2296,24.21621857
2297,21.83996468
2298,22.85304451
2299,23.8
2300,24.07634392
2301,26.30789223
2302,29.35263252
2303,26.9801796
2304,18.74083634
2305,24.55278015
2306,26.55989876
2307,26.14427032
2308,24.32388039
2309,26.11522636
2310,26.92682877
2311,28.25012093
2312,30.23109169
2313,19.31512184
2314,22.18761635
2315,24.62793388
2316,17.920298
2317,25.55954323
2318,22.71589737
2319,18.36747456
2320,18.94469128
2321,22.69581032
2322,24.01187477
2323,25.32198524
2324,28.07363586
2325,25.06762161
2326,25.91168632
2327,25.73542709
2328,21.41099853
2329,17.79762993
2330,20.83488617
2331,33.75637665
2332,54.65172577
2333,32.33131294
2334,23.79619675
2335,20.90604172
2336,19.87871819
2337,25.01511612
2338,18.87392292
2339,15.15207252
2340,18.63088264
2341,22.11142178
2342,26.32229462
2343,27.36047287
2344,25.1511467
2345,24.84797592
2346,22.37427673
2347,20.44429893
2348,20.31669788
2349,23.80909233
2350,25.81908379
2351,23.29771805
2352,19.50621414
2353,21.48353271
2354,21.02710571
2355,21.18186035
2356,21.98212738
2357,23.20239448
2358,26.09887276
2359,23.42734947
2360,18.41306457
2361,14.50311909
2362,21.98567428
2363,19.40174351
2364,17.77720203
2365,21.72295876
2366,28.3004322
2367,24.55632362
2368,23.00842552
2369,23.8896061
2370,19.75255508
2371,20.52196617
2372,25.02520065
2373,26.30767365
2374,15.62121982
2375,21.91762047
2376,26.49299622
2377,25.48375053
2378,18.34879169
2379,21.88690719
2380,22.10841446
2381,21.41571121
2382,20.5529602
2383,19.32022629
2384,18.08686371
2385,16.94638596
2386,16.2
2387,16.23837776
2388,19.17273464
2389,18.22460651
2390,17.06210384
2391,17.90227032
2392,20.222789
2393,27.59985199
2394,25.65652199
2395,18.07552566
2396,19.16026611
2397,18.60251656
2398,24.56431618
2399,28.29116363
2400,23.60650101
2401,21.58743935
2402,22.07906036
2403,24.38256226
2404,26.67119903
2405,25.27102394
2406,22.98350372
2407,21.68256416
2408,23.80790062
2409,29.30463333
2410,22.13206787
2411,16.22660446
2412,15.51126556
2413,18.67065563
2414,20.54491844
2415,30.00438728
2416,28.89521332
2417,26.36631622
2418,27.33487129
2419,19.35133171
2420,20.21060104
2421,22.47006531
2422,23.28807793
2423,21.06828461
2424,23.57855644
2425,22.78258438
2426,20.07177525
2427,18.45683098
2428,24.58592644
2429,23.24054451
2430,21.97645569
2431,20.5419239
2432,18.13193474
2433,14.1942028
2434,17.61448441
2435,19.87439499
2436,18.52793121
2437,13.49043751
2438,15.54265385
2439,20.78729115
2440,22.34654427
2441,19.77310104
2442,18.03369007
2443,18.77576218
2444,20.92835579
2445,20.67732048
2446,16.9056467
2447,13.26054344
2448,12.70552597
2449,13.76454582
2450,15.51020508
2451,17.44319611
2452,20.46111412
2453,22.21080551
2454,21.39911728
2455,23.42847214
2456,31.10789375
2457,26.80967331
2458,19.63891716
2459,11.1265646
2460,6.47483201
2461,11.02148685
2462,24.1045433
2463,21.10534134
2464,17.84991302
2465,15.50148258
2466,12.24059915
2467,22.31468544
2468,21.20218163
2469,18.02773952
2470,17.33478317
2471,20.60638676
2472,15.95874977
2473,12.91903572
2474,16.52899113
2475,22.57073708
2476,24.45966339
2477,23.01407356
2478,23.34764557
2479,20.27900009
2480,16.85850964
2481,17.91226254
2482,25.47829475
2483,24.98552628
2484,21.52794075
2485,17.46087647
2486,15.07557335
2487,18.14099999
2488,16.77432251
2489,17.51133232
2490,19.9458641
2491,22.4
2492,22.39999962
2493,16.63012142
2494,19.82962265
2495,33.4038372
2496,42.87744217
2497,20.33218002
2498,17.41352272
2499,19.74708557
2500,16.69805298
2501,11.26389599
2502,12.83630867
2503,21.77425938
2504,15.28350868
2505,17.97141247
2506,23.86272163
2507,23.6026928
2508,19.04235191
2509,22.19458694
2510,19.44562645
2511,17.68460693
2512,17.91041317
2513,14.23181896
2514,19.78474789
2515,15.85920162
2516,14.3700077
2517,15.88429489
2518,16.68613567
2519,14.55824661
2520,14.09681053
2521,12.73023472
2522,13.70421333
2523,17.37979698
2524,20.44330063
2525,25.85983582
2526,18.52091866
2527,16.30010529
2528,17.61383457
2529,16.62727928
2530,15.64027367
2531,13.70548935
2532,15.16056728
2533,18.31986351
2534,19.44620133
2535,15.27807388
2536,12.14390926
2537,15.76729069
2538,14.39885712
2539,12.66335983
2540,14.88678532
2541,20.25951672
2542,17.28210087
2543,15.27424393
2544,13.4530756
2545,17.36282768
2546,23.71603241
2547,10.42488708
2548,13.41052456
2549,13.46722603
2550,14.39050007
2551,15.14292831
2552,14.2943695
2553,14.79307327
2554,16.93221092
2555,20.52994347
2556,19.19654846
2557,14.9216898
2558,13.0206686
2559,15.35437012
2560,15.07295265
2561,11.47974071
2562,11.74081841
2563,14.00000019
2564,14.69059944
2565,18.36794243
2566,16.410569
2567,17.06482277
2568,15.99209805
2569,15.62326069
2570,17.50302544
2571,15.2
2572,15.2
2573,13.12106857
2574,12.73224888
2575,13.86940765
2576,15.04238243
2577,15.37782402
2578,18.23662281
2579,18.89374046
2580,15.88986931
2581,19.6181202
2582,25.3972496
2583,17.44379692
2584,12.89088974
2585,20.65488968
2586,14.56274338
2587,13.62361698
2588,17.99358787
2589,18.23228149
2590,17.34469299
2591,13.79188919
2592,9.673171996
2593,8.310407353
2594,9.357807064
2595,11.44094219
2596,13.1736166
2597,11.13788309
2598,13.37360992
2599,12.20733032
2600,16.19449711
2601,18.8880249
2602,13.01388245
2603,8.960810947
2604,12.36483974
2605,14.43376961
2606,13.811162
2607,14.6970787
2608,15.36400948
2609,12.09126892
2610,12.51170502
2611,-1.319822359
2612,5.389283419
2613,11.04483032
2614,15.39159069
2615,17.91974926
2616,14.7072401
2617,15.3921423
2618,18.27900696
2619,14.43678722
2620,14.73221893
2621,15.56226826
2622,11.79609737
2623,6.13858757
2624,13.35358887
2625,11.52149067
2626,13.62641659
2627,11.15703545
2628,10.07694206
2629,15.24889698
2630,20.55538063
2631,7.636179638
2632,18.67238274
2633,16.78099537
2634,11.8411706
2635,8.930342102
2636,9.933861352
2637,13.00000019
2638,13.22397079
2639,16.33802929
2640,15.80732384
2641,9.541626167
2642,13.32681007
2643,16.62539749
2644,13.08540401
2645,15.52034454
2646,10.83403892
2647,12.35159607
2648,8.508090401
2649,8.199595928
2650,10.4078928
2651,11.11808681
2652,8.729606914
2653,6.857634736
2654,14.00089474
2655,18.02077293
2656,10.46145096
2657,14.17435017
2658,17.07175789
2659,13.91322384
2660,14.00220261
2661,11.38783922
2662,11.212953
2663,12.49616623
2664,11.15509376
2665,-4.524106407
2666,-5.096610213
2667,13.02631206
2668,19.22796478
2669,11.00393734
2670,23.99450188
2671,14.42063312
2672,13.74517441
2673,8.819012164
2674,4.431390023
2675,6.860880423
2676,12.44416161
2677,12.21450195
2678,8.866483497
2679,6.726335907
2680,8.936263561
2681,10.1769825
2682,7.538063431
2683,6.928831101
2684,10.86673966
2685,12.95596237
2686,14.67062016
2687,12.19302139
2688,11.83672828
2689,13.06372261
2690,11.60014782
2691,12.09892149
2692,11.59587383
2693,7.846782398
2694,11.22103519
2695,16.26477757
2696,11.46598635
2697,8.912715531
2698,4.661501026
2699,9.171800041
2700,10.57539778
2701,10.54292565
2702,14.56725559
2703,9.258461476
2704,9.706901169
2705,12.2058527
2706,4.823017025
2707,7.788346863
2708,10.69924965
2709,7.562903977
2710,10.27173062
2711,15.46438713
2712,-13.44750329
2713,-80.85346222
2714,18.81614762
2715,11.13167706
2716,10.26568479
2717,10.13049278
2718,9.771271706
2719,11.85742817
2720,14.62152023
2721,13.81847324
2722,-141.2255127
2723,-828.2559371
2724,5.002528249
2725,9.583046629
2726,14.33431778
2727,9.255223656
2728,7.212838841
2729,14.33731499
2730,15.52775364
2731,7.228566027
2732,8.179596521
2733,9.781136131
2734,9.600145626
2735,10.50470505
2736,17.73301372
2737,16.53253574
2738,7.916865158
2739,7.115288639
2740,10.4
2741,12.13188219
2742,13.25936794
2743,6.77077514
2744,6.038367248
2745,11.49700642
2746,9.992453956
2747,16.06935577
2748,11.16606598
2749,9.101148606
2750,12.1998169
2751,19.73973465
2752,21.48988724
2753,13.2675745
2754,14.99436245
2755,24.29995499
2756,9.948648739
2757,16.90334644
2758,15.86965389
2759,14.37412205
2760,10.3139864
2761,10.27848015
2762,10.36647949
2763,8.704792976
2764,8.152690315
2765,7.823253631
2766,6.87542367
2767,13.12078018
2768,6.167211437
2769,11.32160044
2770,12.47117195
2771,8.478988267
2772,7.971421814
2773,3.744521678
2774,7.238949824
2775,13.7361824
2776,13.48968525
2777,10.00419998
2778,8.132009124
2779,6.182595492
2780,11.53728409
2781,10.76957102
2782,3.729960823
2783,8.169890832
2784,8.151607132
2785,7.114258003
2786,9.464780998
2787,10.68105564
2788,10.8094799
2789,7.193723488
2790,5.740663815
2791,9.922650719
2792,9.367084502
2793,13.42464218
2794,12.23604279
2795,8.988385867
2796,3.952292323
2797,7.057574701
2798,7.064632034
2799,12.0979229
2800,10.34844399
2801,9.256705093
2802,10.66966572
2803,7.906868744
2804,5.388251877
2805,9.147155571
2806,9.968830013
2807,3.512910557
2808,5.354521036
2809,8.897683811
2810,7.152866077
2811,8.907729531
2812,3.455972922
2813,9.653306771
2814,8.893078804
2815,11.40268784
2816,8.886476517
2817,7.86503954
2818,6.184015512
2819,4.232073212
2820,5.667123556
2821,8.58531847
2822,9.066786766
2823,7.02672882
2824,7.042728758
2825,12.90437088
2826,10.79316387
2827,13.17643852
2828,15.95605755
2829,11.97399006
2830,7.801384116
2831,6.877584409
2832,15.66365795
2833,13.35041523
2834,5.028576899
2835,11.17468262
2836,12.18412933
2837,7.893308258
2838,10.46098061
2839,9.816741084
2840,8.48629284
2841,8.267006397
2842,7.527985478
2843,11.79517956
2844,8.703032874
2845,13.69408455
2846,12.20425949
2847,5.042000103
2848,8.182977007
2849,12.95461788
2850,9.11613083
2851,4.900046062
2852,10.04130211
2853,3.77621944
2854,3.512843162
2855,6.370478153
2856,14.7542963
2857,12.58106995
2858,13.09406891
2859,6.475614166
2860,5.837111378
2861,14.82583294
2862,13.65200463
2863,10.34368334
2864,11.71365223
2865,10.25048113
2866,7.251583386
2867,6.418588543
2868,8.188671208
2869,8.409538841
2870,10.88838959
2871,9.531193733
2872,10.15155792
2873,6.949307251
2874,10.22287226
2875,9.645696689
2876,13.08745346
2877,13.44222946
2878,4.581239367
2879,10.6
2880,10.6
2881,15.5168953
2882,13.22781181
2883,12.46467705
2884,12.74650307
2885,10.61393347
2886,19.98982048
2887,17.45202942
2888,9.907934379
2889,7.851238251
2890,9.818183994
2891,3.338313389
2892,7.367575073
2893,7.265040779
2894,8.821152782
2895,13.25184307
2896,10.76852245
2897,8.229303169
2898,7.845858002
2899,11.89833903
2900,10.31574707
2901,4.900156116
2902,3.44178741
2903,4.995578623
2904,12.42777672
2905,11.43592043
2906,5.410767746
2907,6.259727478
2908,6.208222294
2909,9.847334862
2910,5.62234106
2911,3.343533659
2912,9.679339599
2913,10.28993292
2914,8.126107598
2915,7.973637771
2916,7.000000095
2917,13.03322105
2918,21.09589806
2919,3.733088014
2920,8.381846428
2921,10.09717369
2922,6.946041822
2923,7.352667331
2924,7.292169285
2925,7.77974596
2926,8.224445916
2927,7.213533497
2928,6.473490143
2929,9.000000096
2930,7.616237592
2931,3.243962145
2932,7.757357501
2933,8.255336856
2934,4.556464863
2935,5.550749111
2936,7.116786575
2937,7.40506773
2938,7.53947897
2939,10.21786595
2940,5.201174736
2941,5.647029829
2942,10.4368412
2943,8.92946825
2944,6.486608315
2945,9.713827275
2946,9.444054795
2947,8.336502838
2948,4
2949,4.76111803
2950,6.955275059
2951,6.250422048
2952,5.411985207
2953,3.244179201
2954,6.275682831
2955,9.255903149
2956,8.162653542
2957,7.84570427
2958,8.336382389
2959,6.222642994
2960,4.3175632
2961,7.621116544
2962,6.199999999
2963,5.286635589
2964,4.273524809
2965,7.291260052
2966,8.903129958
2967,7.391632938
2968,9.038245679
2969,8.382503319
2970,8.268871116
2971,12.13341656
2972,13.87457809
2973,9.264871882
2974,6.588601447
2975,8.948986246
2976,8.752267837
2977,10.54545088
2978,7.55435133
2979,7.668042374
2980,8.172826385
2981,4.381768322
2982,4.176754618
2983,12.19331799
2984,3.628026044
2985,3.511009956
2986,1.697890615
2987,9.455813311
2988,9.736264418
2989,2.840584659
2990,8.410237408
2991,7.443430138
2992,-0.38077246
2993,15.3869751
2994,7.993726349
2995,13.9779953
2996,7.774582958
2997,10.83719978
2998,12.73990383
2999,14.30871029
3000,8.305200576
