Frequency,Density
0,293.8
1,293.8
2,293.8
3,293.8
4,293.8
5,293.8
6,293.8
7,293.8
8,293.8
9,293.8
10,293.8
11,293.8
12,293.8
13,293.8
14,293.8
15,293.8
16,293.8
17,293.8
18,293.8
19,293.8
20,293.8
21,293.8
22,293.8
23,293.8
24,293.8
25,293.8
26,293.8
27,293.8
28,293.8
29,293.8
30,293.8
31,293.8
32,293.8
33,293.8
34,293.8
35,293.8
36,293.8
37,293.8
38,293.8
39,293.8
40,293.8
41,293.8
42,293.8
43,293.8
44,293.8
45,293.8
46,293.8
47,293.8
48,293.8
49,293.8
50,293.8
51,293.8
52,293.8
53,293.8
54,293.8
55,293.8
56,293.8
57,293.8
58,293.8
59,293.8
60,293.8
61,293.8
62,293.8
63,293.8
64,293.8
65,293.8
66,293.8
67,293.8
68,293.8
69,293.8
70,293.8
71,293.8
72,293.8
73,293.8
74,293.8
75,293.8
76,293.8
77,293.8
78,293.8
79,293.8
80,293.8
81,293.8
82,293.8
83,293.8
84,293.8
85,293.8
86,293.8
87,293.8
88,293.8
89,293.8
90,293.8
91,293.8
92,293.8
93,293.8
94,293.8
95,293.8
96,293.8
97,293.8
98,293.8
99,293.8
100,293.8
101,293.8
102,293.8
103,293.8
104,293.8
105,293.8
106,293.8
107,293.8
108,293.8
109,293.8
110,293.8
111,293.8
112,293.8
113,293.8
114,293.8
115,293.8
116,293.8
117,293.8
118,293.8
119,293.8
120,293.8
121,293.8
122,293.8
123,293.8
124,293.8
125,293.8
126,293.8
127,293.8
128,293.8
129,293.8
130,293.8
131,293.8
132,293.8
133,293.8
134,293.8
135,293.8
136,293.8
137,293.8
138,293.8
139,293.8
140,293.8
141,293.8
142,293.8
143,293.8
144,293.8
145,293.8
146,293.8
147,293.8
148,293.8
149,293.8
150,293.8
151,293.8
152,293.8
153,293.8
154,293.8
155,293.8
156,293.8
157,293.8
158,293.8
159,293.8
160,293.8
161,293.8
162,293.8
163,293.8
164,293.8
165,293.8
166,293.8
167,293.8
168,293.8
169,293.8
170,293.8
171,293.8
172,293.8
173,293.8
174,293.8
175,293.8
176,293.8
177,293.8
178,293.8
179,293.8
180,293.8
181,293.8
182,293.8
183,293.8
184,293.8
185,293.8
186,293.8
187,293.8
188,293.8
189,293.8
190,293.8
191,293.8
192,293.8
193,293.8
194,293.8
195,293.8
196,293.8
197,293.8
198,293.8
199,310.196933
200,367.5763367
201,424.9557434
202,443.6884277
203,446.0903198
204,448.0868164
205,447.1565064
206,446.2261841
207,447.5654846
208,450.8234985
209,454.0815064
210,448.5904236
211,442.7691284
212,441.0028015
213,445.6625793
214,450.3223572
215,450.3169861
216,449.2290588
217,449.1955261
218,452.5389648
219,455.8823975
220,457.9322937
221,459.3326965
222,460.6739868
223,461.4524414
224,462.230896
225,461.5350464
226,459.5098755
227,457.4846924
228,455.9811157
229,454.5002991
230,451.6129028
231,446.5439941
232,441.4750916
233,442.1493897
234,444.0220886
235,445.2762268
236,444.807782
237,444.3393311
238,440.6324463
239,435.5545959
240,431.4338135
241,433.0753113
242,434.7168152
243,437.5003906
244,441.0981873
245,444.4538696
246,438.9757568
247,433.4976318
248,431.0426331
249,431.9822876
250,432.9219482
251,432.5689453
252,432.0988403
253,429.6293701
254,423.6711914
255,417.713031
256,416.9827332
257,417.4533997
258,418.5861328
259,421.5687256
260,424.5513245
261,423.5457703
262,420.9541016
263,418.9592163
264,419.9021851
265,420.845166
266,421.003833
267,420.6893249
268,420.6016296
269,423.1192078
270,425.6367737
271,424.1743958
272,419.2937317
273,414.4130676
274,413.6144409
275,412.82677
276,413.9166687
277,417.2268067
278,420.5369751
279,419.202948
280,417.4680359
281,416.4
282,416.4
283,416.4
284,418.4126343
285,420.7812073
286,422.0999084
287,421.1519165
288,420.2039429
289,420.5583679
290,421.2697815
291,422.1222962
292,423.3877686
293,424.6532349
294,426.4937866
295,428.5513977
296,429.6018799
297,426.5928528
298,423.5838196
299,423.9864929
300,426.0465271
301,428.1657165
302,430.6233521
303,433.0809754
304,435.7878296
305,438.6435364
306,441.4578247
307,443.9183594
308,446.3788818
309,445.4022217
310,441.9872131
311,438.3494568
312,431.5949036
313,424.8403442
314,421.1004456
315,419.8282532
316,418.5257934
317,416.3776977
318,414.2296021
319,414.7750976
320,417.8001221
321,420.7894104
322,419.5149536
323,418.2405151
324,415.4195801
325,411.0360962
326,406.6526123
327,409.1212585
328,411.6731629
329,412.8467773
330,412.5276062
331,412.2084289
332,412.7441284
333,413.303009
334,414.7605103
335,417.2370239
336,419.7135437
337,417.4856689
338,415.0876282
339,411.9481995
340,407.9491028
341,403.9500061
342,403.8770264
343,403.9570618
344,403.888678
345,403.6484497
346,403.4082214
347,406.1857361
348,409.0701782
349,411.8048218
350,414.3702759
351,416.9357422
352,414.184491
353,411.2966492
354,409.3746582
355,408.4917419
356,407.6088257
357,403.3859863
358,399.1294251
359,397.4417419
360,398.3257019
361,399.2140625
362,400.5005798
363,401.7870849
364,403.0318787
365,404.2387024
366,405.4000061
367,405.3999939
368,405.4000061
369,403.7509522
370,400.7706116
371,398.0113403
372,398.1725281
373,398.333728
374,401.5818726
375,406.9850525
376,411.3783203
377,407.5050964
378,403.6318787
379,399.4518616
380,395.0919128
381,391.6104248
382,392.9838135
383,394.3572021
384,393.0472778
385,390.4605591
386,388.0874084
387,386.5506348
388,385.0138672
389,383.8903748
390,382.91922
391,383.8386475
392,390.1549438
393,396.4712463
394,396.3284546
395,394.4648498
396,392.861377
397,391.8074219
398,390.7534607
399,394.13479
400,398.2719909
401,399.7581421
402,397.0795532
403,394.4009644
404,398.3318115
405,402.798761
406,405.2751648
407,405.4376953
408,405.6100098
409,412.928186
410,420.2463745
411,426.4649841
412,431.7534546
413,436.1986206
414,431.3954895
415,426.5923462
416,425.7190979
417,427.1853272
418,426.8478699
419,417.8007751
420,408.7536926
421,403.5074585
422,399.7559997
423,396.9783386
424,396.8967407
425,396.8151428
426,394.8051025
427,392.3555969
428,391.1875794
429,392.2496521
430,393.3117187
431,394.3743713
432,395.4370728
433,394.8075318
434,392.2719055
435,389.867865
436,392.5686706
437,395.2694763
438,392.8766724
439,386.8167419
440,382.0218506
441,385.0536011
442,388.0853577
443,389.400769
444,389.9746887
445,391.1859131
446,394.2212524
447,397.2565918
448,393.4871094
449,388.2336853
450,383.8000793
451,380.6790283
452,377.5579712
453,376.5417542
454,375.6377625
455,377.6173645
456,382.30448
457,386.1875549
458,381.2508362
459,376.3141235
460,373.7938721
461,372.5589661
462,370.7900879
463,367.1655518
464,363.5410095
465,362.4721375
466,362.0600159
467,362.834967
468,365.6390503
469,368.4431396
470,368.1325623
471,367.6374329
472,369.7206421
473,374.1794617
474,377.5990478
475,371.4852112
476,365.3713745
477,364.1841736
478,365.3415283
479,365.5805176
480,363.18172
481,360.7829285
482,360.1217834
483,359.7907227
484,359.9159546
485,360.6612915
486,361.4154663
487,363.155603
488,364.8957397
489,364.9583618
490,363.8804993
491,362.9240417
492,362.5092346
493,362.0944214
494,363.7310913
495,365.9723816
496,366.0732239
497,362.4186035
498,358.7639709
499,360.3463623
500,362.174762
501,363.45625
502,364.2878296
503,364.9880493
504,364.9048462
505,364.821637
506,363.7526916
507,362.3373352
508,362.4128662
509,365.4118652
510,368.4108704
511,370.3962524
512,372.3134155
513,370.9134644
514,366.6598511
515,362.6155762
516,359.861615
517,357.1076538
518,359.6263855
519,363.9685303
520,365.9860779
521,363.6466248
522,361.3071655
523,362.7156616
524,364.3040955
525,364.7649841
526,364.3467346
527,364.2146972
528,365.4702027
529,366.725708
530,368.1126953
531,369.5364502
532,369.608667
533,367.5974854
534,365.6057068
535,366.4441956
536,367.2826904
537,365.5140442
538,362.1581055
539,359.679834
540,360.0156189
541,360.351416
542,361.6213562
543,363.0493164
544,361.3284546
545,356.117511
546,352.0370667
547,358.7648377
548,365.4926026
549,364.0237305
550,359.3115051
551,356.4860107
552,357.3279724
553,358.1699402
554,357.4688477
555,356.7106323
556,355.8526245
557,354.9253601
558,354.4387512
559,355.5352539
560,356.6317566
561,356.2998779
562,355.7091125
563,355.3194824
564,355.1505859
565,355.0641174
566,355.6555847
567,356.2470581
568,358.3432129
569,360.9641418
570,359.4522827
571,351.0772705
572,342.8325928
573,345.6259155
574,348.4192383
575,348.5756226
576,347.3051819
577,345.9370606
578,344.326886
579,342.7166992
580,343.6224548
581,344.7247986
582,346.1171631
583,347.729248
584,347.8315918
585,342.3133057
586,336.7950134
587,340.9442016
588,346.7205933
589,351.6461487
590,355.7260193
591,357.9622375
592,349.6275696
593,341.2929077
594,343.3975403
595,348.1630249
596,347.7955017
597,341.0687866
598,335.2
599,337.2447693
600,339.2895325
601,339.7360351
602,339.6507813
603,340.220752
604,341.7561401
605,343.077887
606,341.0294861
607,338.9810852
608,338.7670471
609,339.2794434
610,339.2160584
611,338.1906433
612,337.1739075
613,336.4043884
614,335.6348755
615,335.1027954
616,334.6750427
617,336.6310669
618,342.8800842
619,348.9539856
620,346.7269897
621,344.4999878
622,343.2711121
623,342.4997681
624,340.8224914
625,337.4780334
626,334.1982971
627,334.1124939
628,334.0266723
629,334.4732605
630,335.1601196
631,335.8779968
632,336.6511658
633,337.5028198
634,340.7692505
635,344.035675
636,346.8185242
637,349.3988098
638,349.2039368
639,344.4706177
640,339.9522095
641,339.0910889
642,338.2299805
643,338.5683655
644,339.3438171
645,340.0839783
646,340.7736755
647,341.178009
648,338.7625977
649,336.3471985
650,336.8014099
651,338.0961487
652,338.4058472
653,337.5421753
654,336.4353211
655,333.8427795
656,331.2502442
657,333.8009827
658,337.4326843
659,337.7786804
660,335.010022
661,332.8873352
662,333.3201966
663,333.7530518
664,331.3287109
665,328.556781
666,328.0565369
667,329.1833008
668,330.3579834
669,331.6588623
670,332.9597534
671,328.7953857
672,324.4565491
673,324.9034455
674,327.7687805
675,330.321167
676,332.3194092
677,334.174408
678,333.7397522
679,333.3050964
680,331.2874206
681,328.7649231
682,328.7979004
683,331.8440979
684,334.5401673
685,335.411029
686,336.2818848
687,334.6676514
688,332.6634888
689,333.8842041
690,337.5461487
691,339.7917175
692,338.3086243
693,336.825531
694,331.9957703
695,327.1073914
696,325.6604126
697,325.74776
698,324.5708008
699,321.5119354
700,319.4645111
701,325.3235169
702,331.1825257
703,328.8739807
704,324.848999
705,322.9526733
706,322.8651184
707,324.3938477
708,330.6136902
709,336.8335327
710,332.1373657
711,327.1410034
712,323.5376892
713,320.5556335
714,318.9804627
715,319.4192627
716,320.0672211
717,322.0868835
718,324.106543
719,323.9494141
720,323.4222351
721,323.5559753
722,324.1713867
723,324.0125732
724,322.0772888
725,320.1498779
726,318.4775055
727,316.8051208
728,316.399997
729,316.4
730,315.4989563
731,313.648349
732,312.6025024
733,314.4542114
734,316.3059204
735,316.3162567
736,316.2280243
737,316.3807251
738,316.6455688
739,316.4685944
740,315.6735901
741,315.0540009
742,315.4075409
743,315.7610809
744,315.2490784
745,314.6300049
746,315.4010285
747,316.9938629
748,316.695456
749,313.1537262
750,310.7376465
751,317.4709259
752,324.2042114
753,319.761261
754,313.3785767
755,310.4828033
756,309.9506042
757,311.6291565
758,317.5756409
759,322.8674377
760,321.3577332
761,319.8480285
762,320.9366882
763,322.5361481
764,320.6515625
765,316.2949005
766,313.1313537
767,312.3306671
768,312.0202881
769,316.8272095
770,321.634137
771,316.4096924
772,309.2841003
773,306.8774536
774,307.6795563
775,309.546521
776,313.38107
777,316.1616852
778,310.2725983
779,304.3835083
780,307.0831391
781,311.1008057
782,312.7120026
783,312.8906677
784,312.4102875
785,310.8907043
786,309.3709839
787,307.8504944
788,306.3299988
789,312.4199951
790,319.2215057
791,317.8089508
792,312.5256897
793,309.999826
794,310.8958252
795,311.6575806
796,311.9265442
797,312.1954956
798,311.4061524
799,310.5987976
800,311.82081
801,313.7057648
802,313.9863404
803,312.8187714
804,311.7046905
805,310.7161621
806,309.6815247
807,308.06297
808,306.4444214
809,305.588916
810,304.8691284
811,305.6709289
812,307.381427
813,307.2339661
814,304.3514129
815,301.6180237
816,299.5449554
817,297.4718964
818,301.4917602
819,305.7305298
820,305.1132019
821,302.8572022
822,303.2874054
823,306.086496
824,306.6850952
825,302.5291107
826,299.3013947
827,304.1830536
828,309.0646912
829,305.5732117
830,301.0504913
831,298.4318542
832,296.7121948
833,296.9906494
834,299.5263916
835,300.4062256
836,296.6003632
837,293.3035492
838,298.9250549
839,304.5465698
840,304.5535461
841,303.5555878
842,302.6156891
843,301.7079101
844,300.5998474
845,299.2373749
846,298.1566284
847,297.9748657
848,297.8795319
849,299.9711304
850,302.0627289
851,300.7972748
852,298.8864105
853,296.5080994
854,293.8677307
855,293.0878144
856,294.6365326
857,296.0040771
858,296.8244812
859,297.6498871
860,298.5619842
861,299.4740814
862,300.9372833
863,302.4887695
864,299.7549286
865,294.915094
866,291.8294434
867,290.6415985
868,290.8393219
869,294.4049438
870,297.6095062
871,297.7009857
872,297.7924713
873,299.7319794
874,301.8372925
875,297.5681641
876,290.9737366
877,289.4088867
878,291.9749115
879,293.5663757
880,293.4746765
881,293.3318726
882,292.9648651
883,292.6413208
884,299.7104614
885,306.7796173
886,302.7557892
887,296.4173279
888,294.4390564
889,294.8067139
890,293.255188
891,289.5763611
892,288.2961731
893,292.6213623
894,296.0276489
895,293.0810883
896,290.1345184
897,292.286145
898,294.6816528
899,294.9832825
900,294.7067078
901,293.5802338
902,291.9198425
903,292.6878357
904,296.4720947
905,297.1891388
906,289.9855316
907,283.6314881
908,283.9087097
909,284.1859314
910,285.4288208
911,286.7233154
912,286.6362732
913,286.1736847
914,285.364035
915,284.3457214
916,287.9698456
917,296.9548096
918,301.0520905
919,294.0081299
920,287.7136139
921,285.7661041
922,283.8185852
923,285.9138886
924,288.0481506
925,286.2288269
926,283.6290527
927,282.9265564
928,283.1123657
929,284.0349548
930,285.6152649
931,287.1608734
932,288.6491119
933,290.3485046
934,292.7683197
935,294.3918183
936,286.5693115
937,278.7467926
938,279.3266754
939,280.5380188
940,278.4617065
941,275.4781555
942,274.8766327
943,275.6229645
944,276.369513
945,277.1162964
946,277.1722748
947,275.9580414
948,274.9605682
949,274.7736542
950,274.5469024
951,273.7987915
952,273.0506836
953,273.0872253
954,273.1807953
955,272.976767
956,272.6958984
957,276.4868744
958,282.3887146
959,283.8746826
960,281.3438232
961,278.2270996
962,274.1940704
963,271.175824
964,271.0819763
965,270.6792938
966,268.1439179
967,265.6085327
968,267.6601349
969,269.7272309
970,269.6735657
971,269.2975067
972,269.2696838
973,269.3637482
974,270.7885193
975,273.0475556
976,273.6463715
977,272.5161896
978,271.2131439
979,269.6110931
980,268.4920471
981,268.869223
982,268.7589325
983,265.1736206
984,261.6073975
985,263.8731507
986,266.138916
987,262.3047028
988,257.6760284
989,259.6469299
990,263.6167236
991,265.8010651
992,267.030542
993,267.3967987
994,267.018277
995,265.9581726
996,263.9697357
997,262.4820862
998,262.1031097
999,262.0656922
1000,263.3928955
1001,264.3596619
1002,261.7036682
1003,259.0476929
1004,261.4234253
1005,263.891156
1006,264.6985077
1007,265.2683167
1008,264.8885437
1009,264.2233612
1010,262.9895233
1011,261.4682068
1012,259.8930298
1013,258.2756714
1014,256.9634521
1015,256.0115021
1016,255.7406555
1017,256.6931824
1018,257.2033264
1019,256.4408539
1020,256.1194214
1021,258.1220917
1022,259.8276001
1023,257.0603699
1024,254.2931305
1025,255.768515
1026,257.3916504
1027,255.3516388
1028,252.7721893
1029,252.5719391
1030,253.0499023
1031,254.9058899
1032,257.3927734
1033,258.2291687
1034,257.9420563
1035,258.6225311
1036,260.2504944
1037,259.6425873
1038,255.9056152
1039,254.8532379
1040,259.2635681
1041,261.3852905
1042,256.3967346
1043,252.0628723
1044,251.1989594
1045,250.6094513
1046,253.3948425
1047,256.1802338
1048,254.1961151
1049,252.1779053
1050,258.5764099
1051,265.7885803
1052,260.5153351
1053,252.7215607
1054,250.2922302
1055,249.6182861
1056,251.6144775
1057,254.8898315
1058,255.0433258
1059,253.1154968
1060,251.1870728
1061,249.2581055
1062,248.7228332
1063,249.8809021
1064,250.5633972
1065,250.4668304
1066,250.4
1067,250.399997
1068,250.7680389
1069,252.3148835
1070,253.1416901
1071,250.4330933
1072,248.1378296
1073,249.4929382
1074,250.8377777
1075,251.903125
1076,252.9684814
1077,251.6834107
1078,250.3266968
1079,249.4967132
1080,248.7209869
1081,246.8802826
1082,244.8427856
1083,246.3755798
1084,248.8996948
1085,248.687558
1086,247.4247497
1087,247.903064
1088,249.2638275
1089,247.7962585
1090,244.4896027
1091,243.3743164
1092,244.0555115
1093,243.629953
1094,242.0720215
1095,242.1436768
1096,244.2871033
1097,244.8067566
1098,242.7595398
1099,240.3515045
1100,237.2300812
1101,234.3868469
1102,232.2395965
1103,231.7313568
1104,236.5167145
1105,240.4736816
1106,240.8645569
1107,240.6453858
1108,236.7343262
1109,233.4073334
1110,235.5596893
1111,237.8446289
1112,242.5434875
1113,247.1708771
1114,243.9384857
1115,240.7060944
1116,241.6427185
1117,242.720816
1118,235.3490631
1119,227.3075195
1120,233.7994293
1121,242.1401306
1122,238.0653717
1123,231.7815735
1124,238.1781158
1125,247.5111755
1126,243.8774658
1127,236.5048767
1128,236.5695496
1129,239.2252564
1130,237.9087921
1131,234.95625
1132,234.4660797
1133,235.1554138
1134,235.972168
1135,236.8589844
1136,236.0470703
1137,234.1737885
1138,233.457901
1139,233.5565552
1140,232.2189789
1141,229.7512054
1142,229.7592712
1143,231.9322144
1144,233.5529053
1145,234.6400207
1146,233.1861053
1147,229.0328278
1148,229.8196289
1149,236.3500885
1150,236.6373596
1151,229.0139648
1152,225.2255829
1153,226.7115479
1154,227.9985718
1155,228.989801
1156,229.4474945
1157,229.050769
1158,228.7269806
1159,228.5284943
1160,228.7501404
1161,229.7431396
1162,228.8864746
1163,224.4153137
1164,222.0150513
1165,223.9039978
1166,225.8245209
1167,227.8140686
1168,229.381192
1169,229.9784088
1170,229.726358
1171,227.4356628
1172,225.4865326
1173,224.390329
1174,224.0729919
1175,225.7681366
1176,226.2637695
1177,223.5698883
1178,222.0024566
1179,223.4999481
1180,225.7930389
1181,230.2881897
1182,232.2843994
1183,227.2868225
1184,223.9147736
1185,225.1149017
1186,225.185672
1187,222.0834869
1188,219.9849792
1189,220.6858856
1190,220.5858642
1191,218.2815064
1192,217.0606415
1193,218.7648834
1194,220.6902954
1195,223.1980164
1196,224.3785828
1197,222.1704712
1198,220.6870056
1199,220.9882904
1200,221.0207489
1201,220.4178223
1202,219.8765198
1203,219.4743347
1204,220.0315735
1205,222.6473724
1206,223.1709107
1207,219.4462158
1208,217.103717
1209,217.4059051
1210,219.4385529
1211,224.5786987
1212,225.1647217
1213,218.105426
1214,214.2723755
1215,215.4832642
1216,215.7467651
1217,214.6361237
1218,214.3884705
1219,215.2977142
1220,215.9357391
1221,216.2389954
1222,215.4036041
1223,213.2795044
1224,212.8470398
1225,214.162735
1226,215.1133087
1227,215.7209168
1228,214.7399139
1229,212.4093689
1230,212.262149
1231,213.7829742
1232,212.1693024
1233,208.4157043
1234,210.4773194
1235,216.0603089
1236,215.1499084
1237,210.7824249
1238,211.9006042
1239,215.5592743
1240,217.1821136
1241,217.9956329
1242,223.380896
1243,230.299942
1244,224.3045898
1245,214.7343353
1246,210.8313294
1247,208.182666
1248,208.9336731
1249,210.2587952
1250,213.3159912
1251,216.5797638
1252,216.8951721
1253,216.9972198
1254,218.4899994
1255,219.9391541
1256,215.6478058
1257,211.5709839
1258,211.0598083
1259,210.6719635
1260,211.3880371
1261,211.9404693
1262,211.5310394
1263,211.0823456
1264,210.4678345
1265,210.6848846
1266,213.554303
1267,215.0995819
1268,213.3563995
1269,211.5437897
1270,209.5943695
1271,208.4397614
1272,208.5424255
1273,209.4120636
1274,211.261084
1275,212.8576874
1276,214.1938843
1277,214.1818726
1278,213.0505707
1279,212.3523132
1280,211.940686
1281,210.2411804
1282,207.8729156
1283,208.1588104
1284,209.4981903
1285,206.8451691
1286,203.0308288
1287,206.2741455
1288,210.915976
1289,212.1396057
1290,212.9653076
1291,209.2404541
1292,205.3756744
1293,204.2389832
1294,203.5199738
1295,207.242276
1296,210.290155
1297,209.5659454
1298,208.7285248
1299,207.4862793
1300,206.3922302
1301,205.66716
1302,206.0110718
1303,208.2912292
1304,210.0417999
1305,211.0788513
1306,209.1738159
1307,204.2967774
1308,201.7856751
1309,201.0588745
1310,202.0039551
1311,203.8739746
1312,206.1930664
1313,208.687912
1314,202.5042023
1315,194.0790833
1316,195.087149
1317,197.480893
1318,196.4125305
1319,195.2897583
1320,198.3115448
1321,200.5629669
1322,196.6010345
1323,193.7606384
1324,195.6384613
1325,196.3112152
1326,193.8059662
1327,194.4495514
1328,200.7163971
1329,202.2505707
1330,197.8611633
1331,194.0250519
1332,190.6787537
1333,188.2363159
1334,186.3529053
1335,190.4595276
1336,197.0553833
1337,194.9804993
1338,190.6854065
1339,191.2227173
1340,192.3757477
1341,194.1455017
1342,196.8136017
1343,210.8762695
1344,220.1898041
1345,205.6987457
1346,196.9522827
1347,204.4122589
1348,206.639151
1349,199.4901367
1350,195.4081817
1351,194.9874115
1352,193.2237945
1353,190.3818359
1354,191.7437622
1355,195.3246521
1356,191.5023041
1357,185.2847198
1358,188.1985321
1359,192.627243
1360,188.4401245
1361,183.8547668
1362,178.5762238
1363,175.3014771
1364,181.7451294
1365,185.6958008
1366,183.1590881
1367,182.8635162
1368,186.1420563
1369,186.5969116
1370,184.1630066
1371,183.2639923
1372,183.3698761
1373,184.8402984
1374,186.8533111
1375,185.3571808
1376,183.130954
1377,181.6023193
1378,180.6374695
1379,188.4916046
1380,194.0537842
1381,188.5313843
1382,184.0183167
1383,181.9993195
1384,181.3611664
1385,182.7434082
1386,184.4053436
1387,186.3203552
1388,188.6481354
1389,191.2029938
1390,186.7391876
1391,180.1351959
1392,181.5784302
1393,183.9896454
1394,183.1365051
1395,182.4291748
1396,182.6425873
1397,182.4638
1398,181.1825653
1399,179.9010376
1400,178.619043
1401,176.5627533
1402,173.7834534
1403,173.4220123
1404,174.3846527
1405,174.8492462
1406,175.1703125
1407,176.3662323
1408,177.6598572
1409,179.159967
1410,180.47435
1411,180.9032074
1412,180.2749939
1413,177.2712097
1414,175.6
1415,175.6
1416,178.9040558
1417,184.5965454
1418,182.8033081
1419,178.0746582
1420,177.3078095
1421,177.2002808
1422,180.7415924
1423,183.3223419
1424,179.8771912
1425,176.8249328
1426,174.7781586
1427,174.2404114
1428,175.7494598
1429,177.3203735
1430,178.9381683
1431,179.6313293
1432,179.9550781
1433,176.5590362
1434,172.6245193
1435,175.32565
1436,176.8654999
1437,172.2167908
1438,170.6660095
1439,176.0746918
1440,179.9442444
1441,182.0007629
1442,182.6013672
1443,182.2764557
1444,175.4878754
1445,166.7101837
1446,172.1787933
1447,178.1410034
1448,174.6691528
1449,172.2258911
1450,173.2029297
1451,174.3914124
1452,175.912146
1453,174.9332306
1454,171.8899475
1455,175.0014313
1456,180.656601
1457,176.9578766
1458,172.0366669
1459,173.2343689
1460,174.0733368
1461,173.4196533
1462,172.3365234
1463,170.4833222
1464,169.6000031
1465,169.6
1466,168.5460358
1467,167.0180542
1468,169.889508
1469,173.4169739
1470,174.0726013
1471,174.8352234
1472,176.037915
1473,176.158728
1474,174.4083191
1475,170.6542084
1476,165.1809204
1477,162.8989609
1478,161.9131836
1479,168.1058106
1480,174.4693909
1481,168.9863556
1482,164.5924072
1483,163.7145996
1484,162.6094376
1485,161.1821548
1486,163.5922302
1487,168.6456177
1488,164.6265121
1489,157.9213074
1490,159.6943253
1491,161.7765396
1492,163.0971619
1493,163.616803
1494,162.4055145
1495,163.0122742
1496,165.4362915
1497,165.2938385
1498,163.9708649
1499,162.455072
1500,161.1276733
1501,163.3352539
1502,165.4345215
1503,167.2016327
1504,166.4692932
1505,162.4909363
1506,161.8296356
1507,163.1565399
1508,164.3034088
1509,165.3842774
1510,163.6129684
1511,162.2000015
1512,162.2
1513,161.1444611
1514,158.4843475
1515,158.845314
1516,161.2852035
1517,159.085759
1518,155.645694
1519,153.5183457
1520,152.4800827
1521,156.1464386
1522,157.7146072
1523,155.9359253
1524,156.1129501
1525,157.6702164
1526,158.0877319
1527,158.1990265
1528,157.2064529
1529,156.7265854
1530,158.3980606
1531,158.774736
1532,157.2137711
1533,156.5323029
1534,156.4207398
1535,156.9452682
1536,157.6301193
1537,158.9704712
1538,159.9481629
1539,159.7246429
1540,159.4021149
1541,158.9548004
1542,159.092688
1543,159.5402695
1544,159.4059616
1545,158.9304077
1546,155.569577
1547,153.5306137
1548,154.6515564
1549,155.4864166
1550,156.0472214
1551,155.7917313
1552,155.2305984
1553,154.2444641
1554,153.4923767
1555,154.0541779
1556,152.9736893
1557,149.2635971
1558,148.6855041
1559,150.1479218
1560,149.8410522
1561,149.1256165
1562,147.6614624
1563,147.5298263
1564,150.9106415
1565,151.6409424
1566,149.7240067
1567,148.6261002
1568,147.8363144
1569,147.0460724
1570,146.8534256
1571,149.3385758
1572,150.1947159
1573,148.7253479
1574,146.5288254
1575,143.9276336
1576,147.5563538
1577,151.442984
1578,149.9710022
1579,149.5783951
1580,151.2778412
1581,150.9569428
1582,149.1431274
1583,147.6963272
1584,146.3999985
1585,146.3999985
1586,146.2054718
1587,145.5240784
1588,148.4773056
1589,154.7271011
1590,153.7666931
1591,150.5927521
1592,149.2275437
1593,148.0310654
1594,147.3480621
1595,145.8828491
1596,143.6048065
1597,144.8416458
1598,147.3489746
1599,146.2828354
1600,145.4515381
1601,145.679747
1602,144.3417297
1603,141.259079
1604,141.2240311
1605,142.3664307
1606,143.9532776
1607,145.7559616
1608,148.2722183
1609,148.5729858
1610,146.3985657
1611,145.0531036
1612,144.0225067
1613,141.7584702
1614,140.3467224
1615,141.8371262
1616,142.0960297
1617,141.0636017
1618,140.3726212
1619,139.8103363
1620,144.4043488
1621,146.1812653
1622,139.975679
1623,139.0946976
1624,143.1192154
1625,142.651886
1626,141.1923279
1627,145.6821076
1628,147.2865143
1629,142.3333206
1630,141.7091949
1631,144.3601562
1632,143.4533127
1633,142.023053
1634,142.2538467
1635,141.6801925
1636,139.7173172
1637,137.9736313
1638,136.3561829
1639,136.6177521
1640,137.6015014
1641,141.0715683
1642,141.6117126
1643,138.4868088
1644,136.4388199
1645,134.8175369
1646,136.6339355
1647,137.2371689
1648,134.3385986
1649,133.6867966
1650,134.9629211
1651,138.2244659
1652,140.9427399
1653,133.7415146
1654,130.6164917
1655,134.4516647
1656,137.5342804
1657,140.2088638
1658,140.5080399
1659,140.3314987
1660,139.0508331
1661,135.4781555
1662,129.5370239
1663,131.1808868
1664,134.9861847
1665,138.1352127
1666,140.7223495
1667,142.239444
1668,139.7814408
1669,134.9939255
1670,131.9193985
1671,129.3833176
1672,128.3311569
1673,130.1169479
1674,134.7959854
1675,133.5017486
1676,130.8089813
1677,130.9260956
1678,130.9567657
1679,130.8395813
1680,128.3152786
1681,124.5631867
1682,125.4099762
1683,126.6433883
1684,128.4042603
1685,128.6205765
1686,127.5634293
1687,127.3006393
1688,127.2338028
1689,127.4690018
1690,126.6094986
1691,124.3737824
1692,122.0495606
1693,120.0474106
1694,125.5844101
1695,128.7500442
1696,127.4533829
1697,128.0738953
1698,129.7251617
1699,124.3918961
1700,120.875502
1701,123.4734177
1702,122.8601196
1703,119.7880371
1704,121.569162
1705,123.1693374
1706,120.8034058
1707,119.7163208
1708,119.9530563
1709,117.2464508
1710,114.8831116
1711,120.9269379
1712,123.7443176
1713,122.2028244
1714,120.7482971
1715,119.3748337
1716,118.8999649
1717,118.6875016
1718,118.9250733
1719,115.5823593
1720,110.6050461
1721,113.2214401
1722,116.3337082
1723,120.4986175
1724,119.867926
1725,116.5340332
1726,117.7721802
1727,119.3025848
1728,121.0907074
1729,120.2167801
1730,117.5926468
1731,118.0635223
1732,118.3304153
1733,117.2556412
1734,116.8688339
1735,116.9883225
1736,119.9126785
1737,122.4
1738,122.3999985
1739,119.3292633
1740,113.8229843
1741,118.1923981
1742,122.0538147
1743,119.5371078
1744,118.7286697
1745,119.3282364
1746,116.6537857
1747,114.2256256
1748,114.3456787
1749,116.1758575
1750,119.4192657
1751,120.5426102
1752,120.1216995
1753,115.1907165
1754,115.1400085
1755,118.9908539
1756,117.1400528
1757,115.2
1758,115.2
1759,116.3047257
1760,118.2335571
1761,115.0935699
1762,111.9371643
1763,110.1267517
1764,112.5806137
1765,117.8942902
1766,117.7444611
1767,116.7746475
1768,114.5983078
1769,114.2596146
1770,114.9854904
1771,118.3216659
1772,118.178009
1773,110.7895767
1774,109.7119476
1775,111.6223434
1776,112.4711975
1777,113.86922
1778,116.1746048
1779,115.2074875
1780,113.3581833
1781,115.3018494
1782,114.9194687
1783,111.5160416
1784,114.7374161
1785,118.3993088
1786,114.2617065
1787,110.3061524
1788,106.5314102
1789,108.617131
1790,110.8938446
1791,110.4062058
1792,109.5664108
1793,108.4685791
1794,110.3452881
1795,112.4570587
1796,114.65531
1797,115.0767959
1798,114.5490006
1799,112.47043
1800,110.9146072
1801,110.1805603
1802,109.5384918
1803,109.1766831
1804,110.6465057
1805,110.0859619
1806,107.3897034
1807,107.524527
1808,107.8897964
1809,107.3989914
1810,105.5940659
1811,102.893042
1812,107.78181
1813,109.7895081
1814,105.6102813
1815,103.5262665
1816,102.5244446
1817,104.0012024
1818,103.2171616
1819,99.76936341
1820,103.5201935
1821,106.3739944
1822,100.5798035
1823,96.31007996
1824,93.10289916
1825,100.5263458
1826,105.7716675
1827,106.2656616
1828,105.4103699
1829,104.0645447
1830,102.8281067
1831,100.8000168
1832,97.95453795
1833,98.14182586
1834,99.98346708
1835,105.3095367
1836,103.7623718
1837,98.64270324
1838,100.0067871
1839,99.34600983
1840,95.87174835
1841,98.00416107
1842,100.6541016
1843,99.90873871
1844,100.1096909
1845,100.9797882
1846,99.78516236
1847,99.13765106
1848,99.51098785
1849,98.46202547
1850,97.39361572
1851,98.63953859
1852,98.30837404
1853,96.6877243
1854,94.94818115
1855,94.82602234
1856,97.82151336
1857,96.8438385
1858,95.40637817
1859,99.77993774
1860,100.4543518
1861,97.95370788
1862,94.27752228
1863,92.90621186
1864,96.1608719
1865,95.51264343
1866,93.94578552
1867,94.9483963
1868,97.12291107
1869,100.2579117
1870,99.80106811
1871,98.99241944
1872,97.86249085
1873,100.4931427
1874,101.9666611
1875,92.66524354
1876,91.51968232
1877,96.17312317
1878,95.57442321
1879,95.91383056
1880,97.67666015
1881,94.70780792
1882,91.45555878
1883,90.82523803
1884,92.38341216
1885,94.81983184
1886,91.66452484
1887,89.34367219
1888,87.95452117
1889,90.8322281
1890,92.92918396
1891,92.04414216
1892,93.99865873
1893,96.70878144
1894,97.46827849
1895,95.51718293
1896,91.46414947
1897,91.27527464
1898,90.17025298
1899,87.63413392
1900,89.51353759
1901,91.85648041
1902,92.87211762
1903,90.53338927
1904,87.41780701
1905,91.48512268
1906,92.72696686
1907,91.45518493
1908,88.96538237
1909,88.87037048
1910,92.69019013
1911,93.08881683
1912,92.6754074
1913,92.16549988
1914,91.7415451
1915,90.97495269
1916,87.01854248
1917,83.88892518
1918,81.46260833
1919,85.13435975
1920,87.55685578
1921,87.94040679
1922,87.35170288
1923,86.80000152
1924,86.80000152
1925,88.18076783
1926,89.73958435
1927,89.35513306
1928,87.82328491
1929,85.60471345
1930,85.73301315
1931,87.45644455
1932,90.92259064
1933,88.95475922
1934,86.51367034
1935,84.07167358
1936,87.23167115
1937,90.14664459
1938,88.34517059
1939,85.37571106
1940,82.62261811
1941,84.16854477
1942,84.8762497
1943,85.05156555
1944,86.34134978
1945,88.07355652
1946,90.26746827
1947,89.67202758
1948,87.43293304
1949,82.91076278
1950,81.98207855
1951,82.41222382
1952,84.48191987
1953,84.99999847
1954,85.18536073
1955,86.09191285
1956,85.03128051
1957,83.12431488
1958,82.47602082
1959,83.01948547
1960,84.28986359
1961,80.91478958
1962,80.60568237
1963,83.46318817
1964,80.87771606
1965,79.36120376
1966,79.75131913
1967,83.4440857
1968,94.21125641
1969,117.9059403
1970,99.09648439
1971,77.04404755
1972,74.95856171
1973,79.26990814
1974,83.87417068
1975,80.22030487
1976,77.08680191
1977,75.33690186
1978,80.8241066
1979,80.31784973
1980,76.11345291
1981,74.93624954
1982,76.96531448
1983,81.5358963
1984,77.6072998
1985,75.60000153
1986,75.6
1987,81.78446884
1988,82.36027527
1989,75.40759048
1990,74.56042328
1991,75.31940079
1992,77.68344574
1993,81.86974793
1994,83.26132812
1995,78.79069061
1996,77.56681366
1997,78.19715271
1998,81.48822632
1999,75.902845
2000,71.29396744
2001,76.1704361
2002,76.61101913
2003,75.37280807
2004,73.52550354
2005,70.82720337
2006,69.51351013
2007,75.06189041
2008,74.07678833
2009,70.66218948
2010,69.86864014
2011,69.5124649
2012,70.23509979
2013,75.79643326
2014,76.44387054
2015,74.20306625
2016,71.15402222
2017,71.15416412
2018,72.54341126
2019,70.28714294
2020,70.7699234
2021,72.82678223
2022,73.09253464
2023,74.78379135
2024,76.82333526
2025,72.69936295
2026,70.0608963
2027,68.77060928
2028,70.76840439
2029,71.98896027
2030,72.40087509
2031,70.00072785
2032,69.62232742
2033,70.72338104
2034,72.1918457
2035,71.93918762
2036,70.24488449
2037,66.23531418
2038,66.42132263
2039,69.18707428
2040,69.05326614
2041,68.11352463
2042,66.2062027
2043,60.71368713
2044,63.30013122
2045,69.78537369
2046,68.04181747
2047,67.23040161
2048,67.15205994
2049,68.22626724
2050,69.21326904
2051,69.51651153
2052,66.55900497
2053,66.96340713
2054,67.35447998
2055,60.75964127
2056,62.39672928
2057,66.07731934
2058,64.59512405
2059,64.89217529
2060,66.54430161
2061,70.32154999
2062,67.2636261
2063,63.52281647
2064,63.25270004
2065,61.13333817
2066,58.52131424
2067,55.81700134
2068,60.77830505
2069,62.85955353
2070,57.58001404
2071,58.44684677
2072,60.80136261
2073,64.18961487
2074,59.821212
2075,56.94866486
2076,56.40591431
2077,54.11712341
2078,53.28037644
2079,53.65143814
2080,50.25333786
2081,50.5902214
2082,53.10922165
2083,50.25150223
2084,52.72847061
2085,56.84414902
2086,53.43815231
2087,53.06338043
2088,53.92442245
2089,54.47001419
2090,55.53565674
2091,56.68323746
2092,57.63913116
2093,54.95897674
2094,52.54847183
2095,51.86489868
2096,51.30477295
2097,50.57554855
2098,49.61743546
2099,45.29726333
2100,45.55800247
2101,49.7490509
2102,48.92638168
2103,46.86198654
2104,44.38003464
2105,44.24276505
2106,49.9682106
2107,55.1547554
2108,49.79500122
2109,48.06574784
2110,47.82192612
2111,48.50987091
2112,49.0785286
2113,47.79464417
2114,43.9376915
2115,47.12269134
2116,48.8
2117,48.90427551
2118,50.56012879
2119,51.11528626
2120,50.40733414
2121,46.81549759
2122,45.99829483
2123,46.01301804
2124,45.32148094
2125,44.40145798
2126,46.267276
2127,52.77525101
2128,49.96236954
2129,49.01710815
2130,50.4991394
2131,48.41851959
2132,47.51581115
2133,47.30803909
2134,46.75256424
2135,47.80942688
2136,49.4770874
2137,51.14543762
2138,47.74560471
2139,44.34460754
2140,42.25675888
2141,42.47096786
2142,43.34797821
2143,44.529216
2144,43.83205948
2145,43.78614654
2146,43.6413559
2147,42.10583877
2148,41.68814659
2149,42.42490463
2150,44.66096649
2151,46.63595886
2152,47.8840622
2153,48.29062958
2154,46.89066925
2155,45.76312866
2156,46.08767777
2157,50.9931984
2158,47.65320434
2159,45.18277054
2160,47.84884186
2161,44.15923157
2162,40.74234314
2163,38.85523606
2164,45.74280395
2165,44.2179245
2166,40.91561279
2167,44.57445831
2168,44.84980164
2169,45.40600739
2170,47.37842712
2171,48.37598648
2172,44.93881455
2173,39.93111687
2174,44.72957077
2175,49.63388214
2176,50.83695374
2177,44.05485611
2178,44.80496903
2179,44.14807205
2180,41.4742157
2181,42.46498108
2182,46.08062744
2183,47.35932083
2184,37.58193741
2185,42.53636246
2186,46.51471405
2187,45.40252609
2188,45.5444725
2189,44.73531494
2190,44.28430481
2191,47.69493714
2192,44.3393158
2193,41.80521774
2194,43.370224
2195,43.12070618
2196,43.41024475
2197,44.09800034
2198,44.66807556
2199,44.90960083
2200,44.63437729
2201,43.63559723
2202,43.32464676
2203,44.89024658
2204,47.56343918
2205,48.56394272
2206,42.89944229
2207,39.04622002
2208,41.90809097
2209,46.85022049
2210,45.89158173
2211,41.95160599
2212,45.10509415
2213,45.12909241
2214,44.93163452
2215,45.7926651
2216,45.08817825
2217,42.47796325
2218,39.5781311
2219,40.44064636
2220,41.53808594
2221,42.07773819
2222,41.68381729
2223,38.37181168
2224,37.66552658
2225,38.08837128
2226,37.65587463
2227,44.25747376
2228,47.99029617
2229,46.95918655
2230,40.46056404
2231,41.48755951
2232,43.10402527
2233,39.77869492
2234,45.48621216
2235,46.81283646
2236,43.87745743
2237,38.80846367
2238,41.39852943
2239,44.48822403
2240,45.52769012
2241,43.78675918
2242,44.2585968
2243,45.64852295
2244,46.51998596
2245,43.56437531
2246,43.16032562
2247,44.97722168
2248,44.83172913
2249,42.40955811
2250,41.7888279
2251,44.56426773
2252,43.5440628
2253,41.17041245
2254,40.14745636
2255,44.08703766
2256,43.99681168
2257,42.35215034
2258,40.7040474
2259,43.48110657
2260,43.0486496
2261,42.13919678
2262,41.70382233
2263,43.02153015
2264,40.05857735
2265,37.76416359
2266,39.96285667
2267,40.14418564
2268,39.56369438
2269,38.46097565
2270,37.13949699
2271,41.46781464
2272,42.70287704
2273,41.91365051
2274,47.20863037
2275,46.04696579
2276,44.66681747
2277,44.61700211
2278,42.70164795
2279,37.63003731
2280,34.75641632
2281,37.39578285
2282,45.07032547
2283,43.64015121
2284,39.55330544
2285,39.40554962
2286,36.26967888
2287,37.34465103
2288,40.27625046
2289,40.57226791
2290,41.67375488
2291,42.44707794
2292,41.91391296
2293,37.61430893
2294,40.56024552
2295,40.78700714
2296,37.82398567
2297,37.97250214
2298,37.51565094
2299,38.10645409
2300,39.83684616
2301,40.1343853
2302,39.27176971
2303,38.21047859
2304,37.30292664
2305,36.25975723
2306,38.23959465
2307,41.10022469
2308,43.47611999
2309,41.68477364
2310,40.6552845
2311,38.79983902
2312,35.75069695
2313,42.47972031
2314,42.04772186
2315,38.13309898
2316,33.53816795
2317,36.83352852
2318,34.72835502
2319,32.6140728
2320,34.41993103
2321,40.121632
2322,42.85937386
2323,42.79021302
2324,40.16840897
2325,39.41690598
2326,39.30698013
2327,39.51479874
2328,39.85512543
2329,40.90902557
2330,39.78233681
2331,40.09318352
2332,43.21293106
2333,37.63282852
2334,35.9756958
2335,33.71812477
2336,30.1715168
2337,40.59538193
2338,43.46514893
2339,41.97800064
2340,38.60607414
2341,40.27067947
2342,41.08583374
2343,38.84803276
2344,34.76639977
2345,37.04017944
2346,37.78300934
2347,38.47631607
2348,39.0130352
2349,38.10197601
2350,38.26984749
2351,37.44407692
2352,36.47257691
2353,37.53728714
2354,38.88901215
2355,38.73174438
2356,38.95531845
2357,41.99533692
2358,36.35482598
2359,36.59648132
2360,36.38249245
2361,31.69776383
2362,36.12621536
2363,35.6953331
2364,35.28574028
2365,36.79317589
2366,38.16985741
2367,35.8506958
2368,35.28617859
2369,37.37552033
2370,40.89967575
2371,36.85238266
2372,41.08460541
2373,47.2945015
2374,44.97619171
2375,37.9119381
2376,37.52351685
2377,37.40328712
2378,34.10329743
2379,37.17991867
2380,36.44813919
2381,36.75286598
2382,38.29120026
2383,36.75028267
2384,34.51287079
2385,35.46746826
2386,35.74102631
2387,29.91917419
2388,39.03112411
2389,36.38478203
2390,31.67579231
2391,30.19697266
2392,27.10294762
2393,35.8035099
2394,37.16809463
2395,31.80639191
2396,30.25676269
2397,30.79748383
2398,39.14943466
2399,43.73674469
2400,37.04465332
2401,37.51059113
2402,40.23718147
2403,40.42256508
2404,37.34052925
2405,32.82885589
2406,33.63436508
2407,35.86276817
2408,36.8294838
2409,35.10581627
2410,36.19729309
2411,36.78111572
2412,34.25774841
2413,32.00807457
2414,38.41180496
2415,32.38097
2416,28.99573097
2417,27.86442108
2418,28.12530899
2419,29.06454925
2420,27.85959931
2421,30.28444443
2422,33.38300095
2423,31.36158905
2424,29.94956207
2425,28.89129219
2426,27.57345753
2427,27.00566025
2428,30.93456802
2429,31.34662094
2430,31.81569595
2431,32.56774711
2432,33.41872215
2433,33.57623215
2434,28.91643486
2435,26.41707001
2436,27.08521309
2437,29.64695167
2438,26.17397041
2439,29.81903877
2440,33.73046493
2441,34.89548302
2442,32.83981514
2443,26.12844772
2444,25.90149078
2445,27.84600448
2446,29.24151382
2447,30.50937615
2448,33.10303078
2449,34.10586739
2450,32.58589745
2451,29.26997834
2452,29.74649162
2453,30.78756332
2454,32.30069428
2455,33.81378136
2456,34.19853706
2457,28.94515534
2458,30.93378449
2459,32.96820106
2460,33.85542679
2461,34.08937683
2462,35.04667397
2463,32.78674088
2464,31.97504349
2465,32.13240776
2466,31.23988571
2467,29.32101173
2468,30.99844093
2469,32
2470,29.11686935
2471,21.60718613
2472,26.41508675
2473,26.39495392
2474,29.68861275
2475,32.97421074
2476,30.70644226
2477,29.74271622
2478,28.23088532
2479,30.62797012
2480,33.44894447
2481,32.03711472
2482,27.36871262
2483,32.88223762
2484,32.7330883
2485,31.02898102
2486,32.37448654
2487,29.63173637
2488,31.6168335
2489,32.39999962
2490,32.11666069
2491,31.69738197
2492,32.18247566
2493,28.92520485
2494,28.94236488
2495,33.4264389
2496,37.44825821
2497,30.73971558
2498,28.14535446
2499,27.47186584
2500,27.58084412
2501,27.27220841
2502,26.04328995
2503,28.64342041
2504,27.87760162
2505,27.19408989
2506,28.6420124
2507,30.97489052
2508,25.11159554
2509,29.89188118
2510,29.75746155
2511,29.2433506
2512,29.19758034
2513,25.68863716
2514,27.81181564
2515,24.1939476
2516,25.98303185
2517,31.0896637
2518,32.94812851
2519,28.5286663
2520,26.98724098
2521,20.82833996
2522,19.61500492
2523,25.80291557
2524,31.48203545
2525,28.85583725
2526,30.57156181
2527,31.4999939
2528,31.59308281
2529,30.96367646
2530,25.04164314
2531,29.5362751
2532,28.59436264
2533,28.59626465
2534,28.16102524
2535,21.85083084
2536,22.34569855
2537,26.66116409
2538,27.97590866
2539,27.49109383
2540,28.52926483
2541,33.91122971
2542,27.79098549
2543,30.68374291
2544,26.97817573
2545,24.0969696
2546,26.96746788
2547,22.23733063
2548,26.71578674
2549,25.33571053
2550,22.71187477
2551,22.11414337
2552,23.49669685
2553,20.83694096
2554,22.11212959
2555,26.44284363
2556,27.92180176
2557,24.02849922
2558,18.37186279
2559,24.87288818
2560,30.06923142
2561,26.63670082
2562,22.93497105
2563,23.33646507
2564,26.96860885
2565,26.8014576
2566,24.81056938
2567,24.53310242
2568,22.18814697
2569,20.34367199
2570,21.96797104
2571,24.6715683
2572,28.52875709
2573,21.02286949
2574,23.36118775
2575,26.81491318
2576,22.95235786
2577,19.88368187
2578,21.22899875
2579,23.45618019
2580,26.96456108
2581,28.24773522
2582,25.84657021
2583,22.57680359
2584,27.29833679
2585,24.75709763
2586,22.85945663
2587,24.2073986
2588,24.98035622
2589,22.26834927
2590,23.69217834
2591,29.61351814
2592,25.80351372
2593,26.8914032
2594,24.2118782
2595,17.28745842
2596,19.98113499
2597,19.81149025
2598,22.49009075
2599,23.84023895
2600,24.88551903
2601,25.73578262
2602,25.0897377
2603,21.12763538
2604,19.59582195
2605,23.70721092
2606,20.80129929
2607,19.7650383
2608,21.42217178
2609,20.57353516
2610,26.00327072
2611,26.51554947
2612,27.45612259
2613,21.8927124
2614,19.43024769
2615,23.81422921
2616,27.14208031
2617,21.66286278
2618,19.22905331
2619,21.33347836
2620,21.7266674
2621,21.53509254
2622,21.77839127
2623,20.95601711
2624,19.40994549
2625,26.40171699
2626,21.60532379
2627,21.49530945
2628,20.68051014
2629,19.52655067
2630,23.62842026
2631,18.47749653
2632,22.09875031
2633,20.07290974
2634,20.65503044
2635,21.41213684
2636,22.53379249
2637,24.09325294
2638,20.34656906
2639,30.72676353
2640,21.61227799
2641,15.18059025
2642,13.09504814
2643,15.81804428
2644,22.16406479
2645,27.29655151
2646,23.825214
2647,22.76560249
2648,20.84632416
2649,18.76048565
2650,16.86140518
2651,18.51357899
2652,22.2916153
2653,17.24159508
2654,24.21062927
2655,18.01677685
2656,24.93854904
2657,19.41042576
2658,17.76847668
2659,24.85057945
2660,24.05495567
2661,18.37025032
2662,20.81865845
2663,18.0836256
2664,21.78641739
2665,21.10692844
2666,20.13656769
2667,21.34909439
2668,20.83810597
2669,21.05426693
2670,21.75645962
2671,21.63524818
2672,18.36918106
2673,14.09323549
2674,17.16053924
2675,22.38260574
2676,21.19745674
2677,22.23479118
2678,19.06298447
2679,15.02547741
2680,18.72656746
2681,18.69206963
2682,17.49336376
2683,19.56536789
2684,20.42191849
2685,14.33260736
2686,20.10758533
2687,18.33787232
2688,22.60833816
2689,19.80883198
2690,17.02361622
2691,17.33935299
2692,17.7319582
2693,15.75170365
2694,15.3578743
2695,21.44006576
2696,22.86193008
2697,18.50431023
2698,19.20001812
2699,18.25326424
2700,16.81096192
2701,17.83542862
2702,18.77817097
2703,15.46307621
2704,16.96945686
2705,16.25547066
2706,19.98849144
2707,18.2190548
2708,18.90994415
2709,14.95118961
2710,12.39693756
2711,15.64657593
2712,65.78894958
2713,261.0334839
2714,29.60639152
2715,15.68325214
2716,20.91958694
2717,19.70066528
2718,19.45800495
2719,19.36534538
2720,19.38144035
2721,19.46659317
2722,25.54231796
2723,77.68378525
2724,26.16802368
2725,16.91645641
2726,18.11508827
2727,17.0485342
2728,16.31520309
2729,18.69831543
2730,22.04050331
2731,20.82863197
2732,14.58979836
2733,15.2113615
2734,13.40145664
2735,14.30470505
2736,20.72244415
2737,16.895191
2738,15.04943771
2739,14.35079117
2740,12.89864101
2741,13.03912926
2742,15.25483742
2743,16.26197071
2744,17.51232605
2745,16.42059879
2746,16.57861595
2747,20.13655968
2748,19.14130802
2749,17.1471283
2750,18.01527901
2751,21.11324463
2752,22.1815876
2753,19.73514843
2754,20.82327671
2755,30.8900734
2756,14.71735401
2757,20.20790463
2758,12.9482687
2759,16.50351143
2760,10.21841536
2761,14.27305184
2762,16.71284733
2763,13.85239677
2764,13.75269012
2765,15.21395531
2766,15.72457676
2767,9.281395435
2768,14.8477745
2769,16.32045708
2770,16.92270317
2771,17.47550144
2772,15.60002422
2773,15.69109554
2774,13.1805252
2775,9.738999939
2776,11.27847672
2777,15.00210037
2778,13.68457947
2779,11.3583622
2780,13.0209053
2781,13.26063919
2782,15.11316833
2783,11.31342239
2784,12.58307991
2785,11.08089247
2786,12.66506377
2787,12.84844417
2788,13.87583942
2789,15.49062557
2790,14.14456997
2791,12.36401024
2792,13.50235119
2793,12.77914124
2794,11.01409254
2795,12.69811192
2796,10.2733259
2797,12.73366928
2798,10.1493722
2799,14.85240555
2800,16.25862827
2801,13.50459709
2802,8.768123627
2803,10.91382713
2804,14.93047676
2805,13.67376194
2806,11.16602554
2807,11.50328445
2808,16.81027317
2809,9.929799748
2810,12.32101908
2811,16.14272881
2812,12.75887966
2813,16.0059124
2814,11.20949397
2815,8.798656082
2816,8.976264953
2817,11.18779669
2818,13.77385292
2819,13.5932579
2820,9.450097656
2821,7.683379268
2822,10.81877327
2823,12.08300095
2824,10.87141437
2825,10.90437059
2826,8.989745713
2827,11.33569632
2828,6.429803132
2829,13.37044373
2830,8.628845406
2831,10.02543545
2832,11.56363964
2833,12.6019968
2834,11.5965023
2835,10.77829428
2836,13.08507738
2837,14.15777569
2838,13.10780373
2839,12.4
2840,12.77052298
2841,13.69994907
2842,14.62233906
2843,15.064995
2844,15.81568699
2845,15.3301424
2846,9.402352121
2847,13.18306646
2848,15.50410299
2849,15.98285046
2850,9.638122654
2851,11.55452442
2852,12.91032562
2853,16.22237931
2854,10.10398693
2855,14.54095611
2856,16.42034378
2857,17.33648834
2858,17.46039562
2859,13.30779018
2860,13.81459007
2861,13.0580555
2862,8.874930573
2863,14.59528999
2864,16.55939503
2865,7.416717267
2866,9.349179364
2867,15.68546085
2868,12.4113287
2869,12.31302967
2870,9.947392465
2871,11.4965807
2872,11.50643654
2873,11.32771397
2874,15.06861668
2875,12.89139328
2876,19.1627327
2877,14.50703812
2878,12.95322876
2879,11.39915314
2880,10.42704048
2881,14.37133884
2882,13.86508904
2883,14.33532314
2884,16.99877167
2885,20.09054375
2886,16.35774422
2887,13.34254608
2888,16.02276526
2889,14.91733513
2890,11.02856798
2891,12.17401276
2892,10.08954267
2893,9.254622079
2894,13.40128097
2895,14.74185505
2896,11.47282429
2897,9.37069683
2898,10.5299407
2899,11.92130985
2900,10.85480595
2901,11.19916649
2902,13.86169491
2903,13.9749548
2904,13.60957413
2905,15.55499801
2906,12.10820847
2907,7.863651276
2908,12.76012344
2909,10.60874128
2910,5.396652448
2911,9.599999905
2912,8.85594349
2913,9.163047504
2914,12.10640774
2915,13.09726429
2916,17.62273369
2917,8.937530421
2918,-2.881260324
2919,8.319352341
2920,17.43156223
2921,14.14575977
2922,9.978889846
2923,12.68399582
2924,13.13915443
2925,10.83607921
2926,7.629448939
2927,7.059984779
2928,12.44209299
2929,12.68269157
2930,13.24419317
2931,13.23634281
2932,9.519119357
2933,9.606390606
2934,8.586742687
2935,10.88308372
2936,10.94500389
2937,12.14736595
2938,9.952972697
2939,17.89369717
2940,13.36493397
2941,11.20680294
2942,15.4289444
2943,13.07563839
2944,11.29119739
2945,7.908024788
2946,12.69512196
2947,9.432876682
2948,7.864820385
2949,11.4
2950,10.42110033
2951,8.105907059
2952,9.36798773
2953,8.717811252
2954,14.28743153
2955,15.79710751
2956,13.32530689
2957,11.95429583
2958,9.745938016
2959,7.715973662
2960,11.34646797
2961,12.32919235
2962,12.2
2963,9.536020662
2964,6.147049642
2965,7.927322864
2966,7.297034359
2967,8.614695335
2968,11.65293236
2969,10.81100044
2970,10.89377422
2971,11.70726452
2972,12.93559074
2973,11.75007439
2974,12.67846241
2975,13.90040531
2976,9.78066988
2977,5.278515112
2978,2.838587952
2979,6.735672378
2980,8.448550988
2981,9.624263191
2982,8.140679169
2983,6.7925344
2984,10.0483346
2985,7.76554451
2986,3.497046816
2987,9.679844477
2988,8.672528553
2989,2.554019165
2990,7.08110332
2991,11.08211813
2992,3.818241507
2993,8.781071186
2994,15.34375343
2995,13.84710694
2996,8.515051556
2997,11.30295096
2998,6.223782271
2999,11.5877882
3000,8.15419693
