Frequency,Density
0,265.5
1,265.5
2,265.5
3,265.5
4,265.5
5,265.5
6,265.5
7,265.5
8,265.5
9,265.5
10,265.5
11,265.5
12,265.5
13,265.5
14,265.5
15,265.5
16,265.5
17,265.5
18,265.5
19,265.5
20,265.5
21,265.5
22,265.5
23,265.5
24,265.5
25,265.5
26,265.5
27,265.5
28,265.5
29,265.5
30,265.5
31,265.5
32,265.5
33,265.5
34,265.5
35,265.5
36,265.5
37,265.5
38,265.5
39,265.5
40,265.5
41,265.5
42,265.5
43,265.5
44,265.5
45,265.5
46,265.5
47,265.5
48,265.5
49,265.5
50,265.5
51,265.5
52,265.5
53,265.5
54,265.5
55,265.5
56,265.5
57,265.5
58,265.5
59,265.5
60,265.5
61,265.5
62,265.5
63,265.5
64,265.5
65,265.5
66,265.5
67,265.5
68,265.5
69,265.5
70,265.5
71,265.5
72,265.5
73,265.5
74,265.5
75,265.5
76,265.5
77,265.5
78,265.5
79,265.5
80,265.5
81,265.5
82,265.5
83,265.5
84,265.5
85,265.5
86,265.5
87,265.5
88,265.5
89,265.5
90,265.5
91,265.5
92,265.5
93,265.5
94,265.5
95,265.5
96,265.5
97,265.5
98,265.5
99,265.5
100,265.5
101,265.5
102,265.5
103,265.5
104,265.5
105,265.5
106,265.5
107,265.5
108,265.5
109,265.5
110,265.5
111,265.5
112,265.5
113,265.5
114,265.5
115,265.5
116,265.5
117,265.5
118,265.5
119,265.5
120,265.5
121,265.5
122,265.5
123,265.5
124,265.5
125,265.5
126,265.5
127,265.5
128,265.5
129,265.5
130,265.5
131,265.5
132,265.5
133,265.5
134,265.5
135,265.5
136,265.5
137,265.5
138,265.5
139,265.5
140,265.5
141,265.5
142,265.5
143,265.5
144,265.5
145,265.5
146,265.5
147,265.5
148,265.5
149,265.5
150,265.5
151,265.5
152,265.5
153,265.5
154,265.5
155,265.5
156,265.5
157,265.5
158,265.5
159,265.5
160,265.5
161,265.5
162,265.5
163,265.5
164,265.5
165,265.5
166,265.5
167,265.5
168,265.5
169,265.5
170,265.5
171,265.5
172,265.5
173,265.5
174,265.5
175,265.5
176,265.5
177,265.5
178,265.5
179,265.5
180,265.5
181,265.5
182,265.5
183,265.5
184,265.5
185,265.5
186,265.5
187,265.5
188,265.5
189,265.5
190,265.5
191,265.5
192,265.5
193,265.5
194,265.5
195,265.5
196,265.5
197,265.5
198,265.5
199,283.7280426
200,347.5151901
201,411.3023453
202,430.590416
203,431.0746613
204,431.6532746
205,432.9130631
206,434.1728668
207,434.6449127
208,434.4509812
209,434.2570572
210,435.2784195
211,436.3456574
212,437.6384888
213,439.2888336
214,440.9391632
215,439.2789841
216,436.8505936
217,435.5550232
218,437.8876496
219,440.2202682
220,440.3525848
221,439.3800736
222,438.7127075
223,440.9507675
224,443.1888275
225,444.0452042
226,443.6557465
227,443.2662811
228,444.1834717
229,445.157692
230,442.9222031
231,435.7087708
232,428.4953232
233,427.9762802
234,428.8541031
235,428.9069367
236,426.6622772
237,424.4176254
238,423.75
239,423.7499924
240,422.6644745
241,415.0431976
242,407.4219437
243,407.2179642
244,412.3017884
245,417.2317352
246,416.5469666
247,415.8622131
248,413.701828
249,409.8844681
250,406.0671005
251,405.3907852
252,404.9990311
253,404.3215866
254,403.1456299
255,401.9696731
256,403.4244766
257,405.4835968
258,406.017334
259,402.2890854
260,398.5608444
261,399.2558975
262,401.7101212
263,403.3851471
264,401.2241516
265,399.0631562
266,400.6407623
267,404.4738846
268,407.7243423
269,404.2823486
270,400.8403473
271,397.185524
272,393.3478928
273,389.5102692
274,393.4278107
275,397.3661499
276,397.7395859
277,393.8974457
278,390.0552979
279,390.6574173
280,391.643158
281,392.553299
282,393.3423615
283,394.131424
284,398.6945725
285,403.9251633
286,405.8745118
287,400.7395783
288,395.6046524
289,396.7489777
290,399.6143723
291,401.699646
292,401.501915
293,401.304184
294,406.0617218
295,412.6895828
296,417.3900833
297,414.3216553
298,411.2532273
299,411.2498779
300,412.7354736
301,413.7640457
302,412.1784821
303,410.592926
304,413.7867127
305,419.8352585
306,424.9485092
307,422.0712662
308,419.194046
309,417.9419251
310,417.8426514
311,417.5379792
312,414.359375
313,411.1807556
314,406.1429062
315,399.5831528
316,393.2843552
317,394.2788391
318,395.2733307
319,395.4391251
320,394.8420792
321,394.2624207
322,395.7559052
323,397.2493973
324,397.3062286
325,395.9114838
326,394.5167389
327,389.1817017
328,383.7988129
329,383.4898605
330,388.6764451
331,393.8630447
332,394.0971603
333,394.1969681
334,395.5134506
335,398.2096634
336,400.9058838
337,395.0212937
338,388.826355
339,387.3055039
340,391.204628
341,395.1037445
342,391.013504
343,386.6119003
344,384.6674576
345,385.568306
346,386.4691696
347,386.9836273
348,387.4844055
349,388.4559403
350,389.9591446
351,391.462349
352,387.7850952
353,383.9747391
354,381.2749939
355,379.7700196
356,378.2650452
357,378.5481568
358,378.8493347
359,379.351387
360,380.0545349
361,380.7390137
362,379.7339325
363,378.7288284
364,380.2509537
365,384.0725403
366,387.7348175
367,387.3323059
368,386.929802
369,384.5772629
370,380.6504822
371,376.8156815
372,374.1962738
373,371.5768738
374,375.8426819
375,384.9152069
376,392.5058518
377,387.966919
378,383.4279861
379,380.7957916
380,379.2819214
381,377.6131821
382,375.0885773
383,372.5639801
384,366.8889389
385,359.7148361
386,355.6246643
387,363.6118317
388,371.5989914
389,371.5324249
390,368.4975357
391,366.4863434
392,367.3973465
393,368.3083572
394,369.2197876
395,370.1313248
396,372.3779907
397,377.4450836
398,382.5121918
399,385.1560135
400,387.3868484
401,388.75
402,388.75
403,388.75
404,389.2195206
405,389.7271271
406,390.6106873
407,391.9312515
408,393.2630616
409,402.81736
410,412.3716507
411,420.055748
412,426.1578369
413,432.0306168
414,435.3887558
415,438.746872
416,438.9149552
417,437.1839981
418,432.7261429
419,415.1006241
420,397.4750901
421,386.7929764
422,378.8415146
423,372.7834625
424,371.967453
425,371.1514359
426,369.5038223
427,367.6667099
428,365.1956482
429,361.6213684
430,358.047081
431,362.4344788
432,367.5436173
433,369.1440811
434,366.7924957
435,364.6259613
436,369.6388245
437,374.6516877
438,371.8696976
439,363.4758835
440,355.8937073
441,353.3330994
442,350.7724991
443,351.9322891
444,354.6993714
445,357.0686112
446,358.2991562
447,359.5297012
448,358.7391663
449,357.5078964
450,355.6053391
451,352.6280289
452,349.6507034
453,351.938179
454,354.5063553
455,352.8873367
456,347.3367996
457,342.4991837
458,345.481781
459,348.464386
460,347.6190415
461,344.737587
462,342.4539871
463,342.2480469
464,342.0421066
465,342.0819702
466,342.1849976
467,341.9456024
468,341.1208573
469,340.296135
470,338.3997345
471,336.4398422
472,334.4793472
473,332.5183029
474,331.1255951
475,334.9467468
476,338.767891
477,341.1202545
478,342.7736054
479,343.1188431
480,339.7067642
481,336.2946854
482,338.5321503
483,341.8427887
484,342.9162293
485,340.949379
486,339.0294571
487,342.3440018
488,345.6585617
489,345.4575959
490,342.8665695
491,340.9019165
492,341.7315369
493,342.5611496
494,339.4641343
495,335.2098312
496,333.8946076
497,337.7361221
498,341.577652
499,337.4833221
500,333.0162201
501,331.5132828
502,332.4487992
503,333.8623276
504,338.1267014
505,342.3910675
506,339.8806458
507,334.9893494
508,331.6444931
509,331.3320923
510,331.0197067
511,334.6120224
512,338.4672012
513,339.4654083
514,338.0058365
515,336.2694626
516,332.8270111
517,329.3845596
518,331.3696213
519,335.2316208
520,338.4040451
521,340.2839584
522,342.163887
523,342.1502838
524,342.0457764
525,342.8225479
526,344.286438
527,345.3389816
528,344.3973541
529,343.455719
530,342.0227585
531,340.4524536
532,339.8709412
533,340.8136749
534,341.7621384
535,343.5439224
536,345.3257217
537,345.9348145
538,345.8299408
539,345.1263275
540,342.502945
541,339.8795624
542,339.7694168
543,340.0844116
544,338.1073227
545,333.5897751
546,329.8583374
547,333.6427231
548,337.4270935
549,336.3898315
550,333.4446945
551,331.1067352
552,329.949028
553,328.7913208
554,330.2732315
555,331.8528519
556,329.7631226
557,325.1268005
558,322.4182587
559,326.6355591
560,330.85289
561,330.0710907
562,328.3831635
563,325.2352677
564,320.4851761
565,316.4789886
566,318.5913772
567,320.7037811
568,324.0708008
569,327.8753739
570,329.2166596
571,326.4672852
572,323.7302399
573,322.037323
574,320.3444061
575,321.467453
576,324.1142044
577,325.2081299
578,322.4538803
579,319.6996308
580,319.3033753
581,319.0913849
582,316.5864182
583,312.3440857
584,309.4943161
585,311.8289948
586,314.1636429
587,315.1362
588,315.8794785
589,315.7171478
590,314.654686
591,313.4816132
592,311.6743393
593,309.8670884
594,310.5172043
595,311.7936707
596,313.0704804
597,314.347702
598,315.4166718
599,314.564682
600,313.7126999
601,311.7408982
602,309.396553
603,310.155365
604,315.4865952
605,320.1947098
606,315.0737076
607,309.9526978
608,309.1117478
609,309.9657517
610,311.1399002
611,312.8489304
612,314.5579834
613,316.268013
614,317.9780503
615,316.271019
616,313.0627976
617,312.1460953
618,315.3562165
619,318.380539
620,312.5989151
621,306.8172837
622,305.8080292
623,306.9864655
624,307.2216263
625,305.7209091
626,304.3032532
627,306.9846954
628,309.6661301
629,312.1268234
630,314.4878845
631,315.8069305
632,315.2700196
633,314.7060242
634,313.3092041
635,311.9123764
636,316.3494034
637,323.2301559
638,327.5408173
639,327.6483994
640,327.4572678
641,322.1829453
642,316.9086304
643,311.7109527
644,306.541214
645,306.1178741
646,312.4761047
647,317.7544937
648,312.3629685
649,306.9714432
650,304.9154816
651,303.8365402
652,304.7773437
653,308.124054
654,310.8784333
655,310.014267
656,309.1500854
657,306.231247
658,302.8805542
659,300.4171982
660,298.7949371
661,297.958519
662,300.2310257
663,302.5035248
664,302.6534653
665,302.5451813
666,305.4670715
667,310.5591736
668,313.1462097
669,309.1351471
670,305.1240998
671,302.5823517
672,300.0875092
673,298.4568939
674,297.2630157
675,297.8717957
676,301.6727905
677,305.3203659
678,306.5156784
679,307.7109833
680,308.0824433
681,308.1911698
682,319.9324646
683,345.3900146
684,362.8777924
685,338.8203125
686,314.762825
687,310.4643555
688,309.2662125
689,307.0751953
690,304.1325607
691,303.531044
692,309.0926514
693,314.6542511
694,305.7420731
695,296.576355
696,293.2214051
697,292.4571381
698,293.0536042
699,295.6754761
700,298.0247956
701,298.2434158
702,298.4620361
703,299.4038086
704,300.4975586
705,300.3491821
706,299.1453552
707,297.043396
708,292.3347092
709,287.6260147
710,284.1942597
711,280.7976151
712,283.9959335
713,290.1354523
714,295.0583496
715,298.2396316
716,300.6659775
717,298.1414032
718,295.6168213
719,291.2135392
720,286.4908829
721,285.2628098
722,286.581543
723,287.9672623
724,289.5067062
725,290.9076767
726,287.826973
727,284.7462769
728,284.8342209
729,285.9351197
730,286.8218079
731,287.4827271
732,288.1677094
733,288.9392472
734,289.7108002
735,286.8188858
736,283.7308884
737,284.7830887
738,287.7625732
739,288.3492661
740,285.5888367
741,283.4356003
742,284.6509094
743,285.8662262
744,285.4097366
745,284.7464371
746,284.5695191
747,284.68013
748,285.0353699
749,285.8101196
750,286.5606613
751,287.1143875
752,287.6681061
753,286.3336716
754,284.6715012
755,282.4801025
756,279.9299545
757,279.2342911
758,282.1187897
759,284.7694931
760,284.9915085
761,285.2135239
762,284.4145737
763,283.4149094
764,284.5602722
765,287.2276154
766,289.0373077
767,289.1485138
768,289.2597351
769,289.3709946
770,289.4822693
771,287.8152237
772,285.8111496
773,285.6631241
774,286.7771607
775,286.4431458
776,283.4334641
777,280.8829803
778,282.1098786
779,283.3367691
780,284.2740326
781,285.1668472
782,285.0800095
783,284.4099884
784,283.6531067
785,282.7592392
786,282.252594
787,283.9296036
788,285.6066208
789,281.5555954
790,276.9690552
791,276.565155
792,278.1322174
793,278.5502014
794,277.5421982
795,276.8939514
796,277.5663452
797,278.2387467
798,278.6910324
799,279.1395569
800,280.3494339
801,281.8080292
802,283.2670746
803,284.7265396
804,284.6425934
805,280.9356232
806,277.5575943
807,278.3443909
808,279.1311798
809,279.5364533
810,279.8738403
811,278.449974
812,275.9742585
813,275.4565125
814,277.821106
815,279.3970871
816,277.4817505
817,275.5664291
818,276.0441132
819,276.6077881
820,275.906601
821,274.7786026
822,273.2903824
823,271.4845123
824,269.9998817
825,269.2093353
826,268.7205162
827,270.8675461
828,273.0145569
829,274.4580384
830,275.8148575
831,273.5601959
832,269.6004486
833,267.712616
834,268.1654282
835,268.5295792
836,268.6428452
837,268.8907623
838,271.4975128
839,274.1042557
840,274.0190582
841,273.452034
842,271.716156
843,269.3332596
844,269.0002594
845,271.2710343
846,273.0813217
847,273.422142
848,273.7716141
849,274.3399811
850,274.9083481
851,271.6609803
852,267.6800308
853,268.0002365
854,270.7316513
855,271.8959732
856,271.0988388
857,269.7347031
858,266.6582184
859,264.030632
860,269.1611634
861,274.2916947
862,274.4100266
863,273.7255402
864,273.8826752
865,274.4534073
866,274.9145813
867,275.2572327
868,275.8331146
869,276.9759445
870,278.1188507
871,279.262352
872,280.4058533
873,273.9900589
874,266.8961029
875,266.174408
876,267.7772141
877,267.6194458
878,266.0156822
879,266.1348381
880,269.2296448
881,270.7068405
882,265.0869865
883,259.5315285
884,264.9252014
885,270.3188553
886,269.9199448
887,268.3123703
888,264.9113159
889,260.5452881
890,259.0678749
891,260.7923317
892,263.585743
893,268.8772049
894,273.0491028
895,269.4810028
896,265.912899
897,263.6616974
898,261.4734993
899,261.7224083
900,262.6443062
901,263.5665322
902,264.4889755
903,263.4047852
904,259.8281975
905,257.7978287
906,259.7603569
907,261.3032303
908,259.5705605
909,257.8378983
910,258.0791435
911,258.4258881
912,259.4092903
913,260.5657768
914,259.554615
915,257.2402801
916,256.967228
917,259.0513687
918,260.7472954
919,261.5582772
920,261.9602051
921,259.9895096
922,258.0188065
923,257.4255676
924,256.8456154
925,256.5561447
926,256.3240166
927,256.25
928,256.25
929,254.0398255
930,249.8566513
931,249.0465431
932,253.8135376
933,257.3945198
934,256.9291725
935,256.3280411
936,254.1163216
937,251.9046021
938,248.3916473
939,244.7809029
940,243.5433045
941,242.9605789
942,245.2820969
943,249.2469788
944,252.4047203
945,254.7383881
946,255.1395607
947,251.9872399
948,248.7112847
949,244.9729729
950,241.7074166
951,244.6297073
952,247.5519943
953,249.0584335
954,250.4619675
955,246.5643883
956,241.2980118
957,243.0475426
958,248.4341507
959,249.4660683
960,246.5368271
961,244.5213852
962,243.9351883
963,244.043972
964,246.1555328
965,247.8663712
966,246.8099709
967,245.7535591
968,244.228302
969,242.7014847
970,241.9899445
971,241.4023552
972,241.8596993
973,242.6828118
974,244.3017349
975,246.4195786
976,246.1159439
977,243.2904663
978,240.6369896
979,238.2810211
980,236.6438179
981,237.2331581
982,237.8225403
983,238.4122315
984,239.0011559
985,239.355175
986,239.7092056
987,240.0634194
988,240.4176484
989,238.8677139
990,236.7410431
991,236.6162071
992,237.5619545
993,236.4124832
994,233.4552536
995,232.8022766
996,235.2878266
997,236.6315079
998,235.4472084
999,234.12043
1000,232.2244301
1001,230.8111611
1002,234.2497101
1003,237.6882553
1004,237.0509377
1005,236.3390884
1006,234.7960358
1007,233.1340713
1008,231.9280052
1009,230.8589668
1010,231.2894325
1011,232.4779663
1012,233.8669548
1013,235.4129639
1014,235.5406075
1015,233.9936867
1016,233.8516465
1017,236.2329407
1018,236.9551697
1019,232.9045487
1020,229.0626945
1021,226.3209457
1022,223.8168793
1023,224.8903771
1024,225.963871
1025,228.4219704
1026,230.9282837
1027,232.8113556
1028,234.6026497
1029,234.2561264
1030,233.3002014
1031,233.9021492
1032,235.2173271
1033,234.4687767
1034,232.3153915
1035,229.6170426
1036,226.3850403
1037,223.9009972
1038,222.4636955
1039,223.1980782
1040,228.3514557
1041,232.3959961
1042,232.9955864
1043,233.0809975
1044,230.441246
1045,227.9729157
1046,227.6127358
1047,227.2525559
1048,227.6078377
1049,227.9682312
1050,226.4655037
1051,224.7826614
1052,224.5000038
1053,224.5
1054,226.313488
1055,228.7204018
1056,229.5814133
1057,229.7018318
1058,228.8101998
1059,227.2438431
1060,226.6899223
1061,227.0516052
1062,224.4724617
1063,218.3202134
1064,216.8791809
1065,223.1557884
1066,226.4216766
1067,222.919178
1068,220.3650131
1069,220.8484039
1070,221.1477013
1071,220.5431061
1072,219.8646317
1073,218.5337181
1074,217.3401337
1075,219.8824654
1076,222.4247933
1077,223.3228645
1078,224.1708145
1079,225.6785469
1080,227.2542458
1081,222.0747032
1082,215.6468811
1083,216.7194748
1084,219.8746186
1085,220.0481148
1086,219.076725
1087,220.6851425
1088,223.6010475
1089,224.4553337
1090,223.969059
1091,223.2152519
1092,222.2421303
1093,220.185833
1094,217.0212936
1095,215.4644738
1096,215.9516144
1097,216.5333023
1098,217.2644501
1099,217.7500038
1100,217.7500038
1101,217.3319359
1102,215.8679047
1103,214.7211418
1104,214.5990639
1105,214.3618469
1106,213.6289597
1107,213.0346642
1108,213.2791024
1109,213.6178055
1110,214.8407364
1111,215.8725891
1112,213.4252663
1113,210.9988938
1114,210.8764572
1115,210.7540207
1116,209.8020783
1117,208.8219872
1118,212.0438614
1119,215.5988045
1120,212.6267319
1121,208.8243485
1122,209.2919197
1123,210.5192261
1124,212.1459694
1125,213.8652153
1126,212.7239914
1127,210.7579689
1128,209.7940865
1129,209.1793404
1130,207.4315949
1131,205.217186
1132,206.1645699
1133,208.6264878
1134,207.3543777
1135,204.0288086
1136,205.5564728
1137,210.1164437
1138,210.0457802
1139,206.716259
1140,206.7000694
1141,209.2912369
1142,209.7754555
1143,208.4173661
1144,207.6243363
1145,207.3772659
1146,207.0701866
1147,206.6993599
1148,206.6715698
1149,207.042614
1150,206.2674103
1151,204.0397949
1152,204.5746269
1153,208.9086685
1154,210.6032105
1155,208.3729401
1156,208.1914368
1157,211.2908669
1158,211.0136719
1159,204.9351692
1160,201.9628868
1161,204.693634
1162,205.6591454
1163,203.1751785
1164,202.5520668
1165,205.7831535
1166,207.2974129
1167,205.0591774
1168,203.5377503
1169,203.6621704
1170,203.6035576
1171,203.1055756
1172,203.1418343
1173,204.5120888
1174,205.1522141
1175,203.9057846
1176,202.5569
1177,200.935585
1178,200.5549164
1179,203.5499001
1180,204.7889443
1181,201.1678467
1182,198.7302322
1183,199.604805
1184,200.2172127
1185,200.0921974
1186,199.6059723
1187,198.1049118
1188,198.1561089
1189,202.536808
1190,204.4816818
1191,199.7226753
1192,196.859684
1193,199.115284
1194,200.0251885
1195,197.392086
1196,195.9589996
1197,197.5899925
1198,199.3662644
1199,201.5003624
1200,201.8050041
1201,197.7854843
1202,195.6559716
1203,197.792614
1204,198.9301643
1205,197.9240837
1206,197.2915268
1207,197.4173584
1208,196.8949585
1209,195.1322251
1210,193.5043144
1211,192.1184845
1212,191.3911782
1213,191.7693558
1214,193.0333214
1215,195.6821328
1216,196.6834564
1217,195.2951546
1218,193.798603
1219,192.1569023
1220,191.3065567
1221,191.4329148
1222,191.0255241
1223,190.0140496
1224,191.179802
1225,194.595562
1226,196.5763626
1227,197.2092896
1228,194.6921959
1229,189.4991341
1230,186.962616
1231,186.455677
1232,187.1543388
1233,188.6760636
1234,192.0160446
1235,196.4570618
1236,197.9171486
1237,197.7901878
1238,194.1901131
1239,188.9815865
1240,189.5010071
1241,192.2974892
1242,191.6666832
1243,189.8860436
1244,191.9918251
1245,195.1734238
1246,194.3945771
1247,192.7391586
1248,192.3909874
1249,192.2635803
1250,190.8831253
1251,189.3532371
1252,189.1310425
1253,189.0034752
1254,189.9933319
1255,191.0289765
1256,193.0724754
1257,195.1450577
1258,197.7009544
1259,199.01054
1260,189.1644859
1261,181.1592636
1262,183.9740944
1263,186.9363098
1264,190.5209541
1265,191.9046898
1266,186.2683296
1267,183.2802658
1268,186.869175
1269,189.4658546
1270,190.1071167
1271,188.3627243
1272,182.8446274
1273,182.3440933
1274,188.2506791
1275,190.3014107
1276,188.3742065
1277,186.9380646
1278,185.9096108
1279,187.0480309
1280,189.6207009
1281,189.7375374
1282,188.5791435
1283,184.2856903
1284,178.747879
1285,179.7959824
1286,182.7598305
1287,182.2814636
1288,181.121006
1289,184.3513298
1290,188.0928078
1291,184.9109268
1292,181.5055313
1293,181.7638664
1294,182.2444268
1295,185.0878525
1296,186.6957817
1297,181.3935242
1298,178.098362
1299,181.9803734
1300,185.3436279
1301,187.4152641
1302,186.5840683
1303,180.495018
1304,176.6134262
1305,175.7060051
1306,177.9601021
1307,183.407856
1308,183.0124779
1309,178.2104111
1310,177.5869026
1311,179.275116
1312,176.8549462
1313,172.8268051
1314,171.0700264
1315,169.8998718
1316,174.2872848
1317,179.491066
1318,181.8528061
1319,183.9651795
1320,182.7929344
1321,181.2468415
1322,176.6854019
1323,173.8014221
1324,177.9743614
1325,180.533638
1326,178.8373757
1327,177.4688034
1328,176.6854477
1329,176.25
1330,176.25
1331,175.7646599
1332,174.8496628
1333,176.0354157
1334,178.5204697
1335,178.5103951
1336,177.4634361
1337,177.8755188
1338,178.6612053
1339,177.1229439
1340,175.2885818
1341,174.8649636
1342,174.5567322
1343,175.3438187
1344,176.7422714
1345,181.2050972
1346,184.6718521
1347,185.3285408
1348,184.6672859
1349,181.6447296
1350,179.7002945
1351,179.04282
1352,174.9554253
1353,168.113678
1354,168.5935402
1355,172.9379921
1356,171.0141754
1357,167.0623207
1358,165.4825363
1359,164.2962761
1360,162.0954132
1361,160.1898804
1362,163.0930786
1363,165.2517166
1364,163.7992554
1365,162.2365151
1366,160.3868332
1367,159.5047379
1368,160.1657372
1369,162.3961754
1370,166.2322273
1371,165.6703148
1372,162.2290535
1373,162.9556198
1374,165.3394508
1375,165.8596916
1376,165.9922104
1377,164.3776932
1378,162.8977928
1379,165.5512162
1380,167.4088135
1381,165.4175644
1382,163.3111687
1383,160.92025
1384,159.7158318
1385,160.2474633
1386,159.3131333
1387,157.0523644
1388,158.0526428
1389,160.847023
1390,161.9081307
1391,162.4407081
1392,161.5528565
1393,160.5064736
1394,161.0396843
1395,161.7370606
1396,163.4710312
1397,163.4192047
1398,158.3476601
1399,156.1855545
1400,158.5892945
1401,159.6809044
1402,159.5472832
1403,160.2775154
1404,161.4808121
1405,162.5808144
1406,163.6510468
1407,160.1055298
1408,156.372921
1409,159.4534988
1410,160.9079704
1411,154.609127
1412,151.0346031
1413,153.5824547
1414,155.3571549
1415,156.1622124
1416,157.980587
1417,160.5314675
1418,160.3815308
1419,159.1725006
1420,157.7323761
1421,156.2537956
1422,156.7866059
1423,156.5596314
1424,151.5803147
1425,149.324173
1426,154.0371361
1427,157.2074356
1428,158.2853241
1429,156.2956734
1430,151.9815559
1431,152.1958084
1432,154.2192536
1433,158.8012085
1434,163.7536774
1435,164.1588478
1436,163.240242
1437,155.26717
1438,150.6246529
1439,153.4642144
1440,154.565155
1441,153.6180725
1442,152.422348
1443,151.068573
1444,151.78582
1445,153.1404038
1446,156.2397385
1447,159.2196503
1448,158.8127937
1449,158.9078636
1450,160.6719551
1451,160.535492
1452,157.4125481
1453,155.5535431
1454,154.7383804
1455,153.5381165
1456,152.1787033
1457,150.3460198
1458,148.6666527
1459,154.1107788
1460,158.2625084
1461,157.03685
1462,155.9572868
1463,155.139698
1464,155.9630661
1465,158.2809449
1466,157.8707543
1467,156.2336311
1468,154.5956764
1469,152.8974419
1470,148.936367
1471,146.4984398
1472,150.3251915
1473,153.5014877
1474,155.5527535
1475,154.8061676
1476,151.6590309
1477,149.873703
1478,148.6414795
1479,147.6511421
1480,146.9070358
1481,149.511486
1482,151.3702545
1483,150.8216248
1484,149.8753701
1485,148.3657455
1486,147.5060654
1487,147.0941086
1488,145.4097862
1489,143.3487625
1490,144.2971611
1491,145.1212731
1492,144.1583176
1493,143.0645485
1494,141.6880799
1495,141.0688782
1496,141.2066078
1497,143.1378403
1498,145.8940392
1499,141.2065087
1500,135.9814091
1501,139.9826469
1502,141.4723816
1503,135.2598763
1504,134.5143204
1505,140.8686409
1506,142.2993775
1507,140.778965
1508,139.9353676
1509,139.2524567
1510,139.5292244
1511,140.0581322
1512,141.5812493
1513,142.3900452
1514,142.1129494
1515,142.4927216
1516,143.3245011
1517,145.7983513
1518,148.7113075
1519,145.0523262
1520,142.2833672
1521,143.8110161
1522,143.6790695
1523,140.8998833
1524,140.2390785
1525,141.0733338
1526,139.8243942
1527,138.0157814
1528,138.2759857
1529,140.1601295
1530,148.6567841
1531,150.9586449
1532,143.9900475
1533,139.7268143
1534,137.2166367
1535,139.4763489
1536,142.7092171
1537,140.8941536
1538,140.5042992
1539,144.8350907
1540,147.6828728
1541,148.661377
1542,146.4389725
1543,142.5226479
1544,142.8489189
1545,143.3456116
1546,138.3043633
1547,134.6673432
1548,134.3871079
1549,133.9635849
1550,133.4027806
1551,134.7810021
1552,136.8852616
1553,134.7438736
1554,132.6114349
1555,131.7687302
1556,132.924839
1557,137.2813874
1558,136.5307999
1559,132.4529095
1560,130.0032826
1561,128.1430493
1562,130.9587231
1563,133.2324543
1564,134.0776596
1565,134.2884445
1566,133.8655892
1567,132.1103001
1568,129.8537503
1569,132.038702
1570,133.665081
1571,131.8294602
1572,132.2050114
1573,135.7371445
1574,133.6394863
1575,128.4088307
1576,128.3681793
1577,128.6376553
1578,125.2407741
1579,123.8193913
1580,126.2269401
1581,126.2721367
1582,124.571682
1583,125.7445564
1584,127.6148911
1585,130.026722
1586,130.0073338
1587,123.9032021
1588,122.1172638
1589,124.2478733
1590,123.0119229
1591,120.7492447
1592,120.6070328
1593,121.6262093
1594,126.1795959
1595,126.8940926
1596,123.6194115
1597,125.5752544
1598,129.4217243
1599,126.9863796
1600,125
1601,125.0000019
1602,125.8776626
1603,127.7329636
1604,126.704937
1605,124.5629425
1606,124.9160595
1607,125.3131771
1608,125.5991135
1609,126.7635059
1610,128.9093094
1611,127.1140766
1612,123.8218918
1613,124.730669
1614,123.9664288
1615,117.374258
1616,116.9398308
1617,122.9623356
1618,122.0425644
1619,118.7551689
1620,121.0521736
1621,123.0872383
1622,124.3800678
1623,124.7007561
1624,124.1258278
1625,124.7863999
1626,125.7438374
1627,125.5999336
1628,125.1480274
1629,123.9961186
1630,123.6640415
1631,123.9521923
1632,122.6773624
1633,120.587265
1634,113.9520378
1635,110.6497574
1636,113.1033592
1637,115.0996819
1638,116.8326607
1639,118.9582119
1640,121.151001
1641,123.4643784
1642,126.0354519
1643,128.9288826
1644,125.6029205
1645,119.8126297
1646,118.1739616
1647,117.3432732
1648,118.6476307
1649,121.3572102
1650,125.2725925
1651,127.6540051
1652,129.1024628
1653,124.7468853
1654,121.7317276
1655,121.0053673
1656,118.676405
1657,115.4785328
1658,116.8705978
1659,117.822834
1660,115.7854176
1661,116.3971195
1662,119.7462845
1663,119.9354363
1664,118.9914093
1665,114.6177616
1666,112.0011273
1667,112.7304993
1668,113.460146
1669,114.189949
1670,113.5798493
1671,113.3912335
1672,115.2909699
1673,115.0191193
1674,112.5333805
1675,113.3789482
1676,114.9663239
1677,114.5271454
1678,113.1150932
1679,110.0390244
1680,112.1059017
1681,116.7960148
1682,117
1683,116.4088173
1684,114.0609875
1685,111.3904934
1686,108.45397
1687,111.7260304
1688,115.3098622
1689,113.9868641
1690,113.1848354
1691,113.0377483
1692,112.0153771
1693,110.7829018
1694,111.5192032
1695,110.1592655
1696,104.8547497
1697,105.4929695
1698,109.326273
1699,110.063345
1700,110.4232388
1701,110.1280212
1702,108.1597405
1703,104.9104252
1704,104.112648
1705,103.696167
1706,103.400425
1707,103.0318985
1708,102.5880241
1709,103.8055611
1710,105.4843979
1711,107.5582619
1712,106.7955666
1713,102.2007256
1714,103.7388058
1715,107.4151631
1716,110.5314732
1717,111.3515396
1718,108.2333889
1719,106.1311302
1720,104.4968472
1721,102.8616009
1722,102.9408112
1723,106.6594773
1724,104.1927242
1725,98.23934556
1726,96.9994545
1727,96.87823296
1728,99.11338617
1729,104.1379662
1730,110.9964848
1731,106.5235806
1732,103.0990753
1733,105.4874668
1734,106.7581253
1735,107.2062111
1736,104.0136929
1737,101.181366
1738,100.8822899
1739,99.91555977
1740,98.41928863
1741,104.3577194
1742,109.1648006
1743,106.4683304
1744,105.0856667
1745,104.785881
1746,104.0898514
1747,103.6281128
1748,104.2283936
1749,103.3489799
1750,101.2467728
1751,105.1108894
1752,107.9938755
1753,104.5361729
1754,101.9132748
1755,99.95776939
1756,96.65602492
1757,95.22687721
1758,100.4979191
1759,101.8006249
1760,100.143034
1761,99.44892884
1762,99.2314148
1763,100.1366234
1764,100.138567
1765,99.53474047
1766,100.9235592
1767,100.5669041
1768,95.57945252
1769,96.23958398
1770,100.1714077
1771,96.09792138
1772,93.7959404
1773,95.46136666
1774,98.86988831
1775,102.95611
1776,101.2887211
1777,101.6224518
1778,105.262537
1779,103.26404
1780,99.59886551
1781,100.8136577
1782,101.5
1783,101.5
1784,98.73900795
1785,96.03709604
1786,98.01462556
1787,96.25086974
1788,90.77140236
1789,96.01940345
1790,100.6043262
1791,96.48988151
1792,95.36598969
1793,96.43332673
1794,95.35571098
1795,95.91450501
1796,100.6468544
1797,100.128973
1798,96.97000124
1799,95.74731255
1800,95.77293968
1801,97.76098251
1802,98.36537743
1803,98.61042595
1804,99.52906608
1805,97.90948487
1806,93.61998177
1807,90.24623871
1808,87.61224747
1809,86.99873734
1810,88.84866524
1811,92.37841226
1812,91.31385422
1813,90.551857
1814,90.70550346
1815,91.95138359
1816,93.69444275
1817,96.00187874
1818,94.07018852
1819,87.14381218
1820,86.77146531
1821,87.66303253
1822,88.43353844
1823,87.29621506
1824,84.82915306
1825,92.36594773
1826,95.30051231
1827,88.97122193
1828,89.27424622
1829,91.58068085
1830,90.03513527
1831,87.95653725
1832,85.32756424
1833,89.87644577
1834,92.63261986
1835,87.36848259
1836,86.09958649
1837,87.0097065
1838,87.31972313
1839,87.5
1840,87.50000191
1841,89.25259972
1842,90.08813095
1843,85.42962647
1844,85.86641693
1845,89.90615654
1846,89.84814453
1847,89.17645645
1848,87.62088013
1849,84.87922096
1850,82.61303139
1851,84.94913673
1852,86.00000191
1853,85.9999981
1854,84.67264557
1855,84.92565155
1856,88.35798264
1857,87.40141106
1858,85.12005997
1859,84.18286896
1860,82.06793976
1861,78.94213486
1862,79.33708
1863,80.81366539
1864,83.94314766
1865,82.6584053
1866,80.04498863
1867,78.63506699
1868,79.46447373
1869,82.12922287
1870,81.65106583
1871,82.83504105
1872,87.22919846
1873,84.87466622
1874,80.91891861
1875,79.03349495
1876,82.38465309
1877,89.45913696
1878,84.18258667
1879,81.76481819
1880,83.65356445
1881,81.17077065
1882,79.1860981
1883,82.18012428
1884,81.73004341
1885,79.7342186
1886,83.83611679
1887,85.40333748
1888,84.14047432
1889,77.54247475
1890,73.70899773
1891,77.66007614
1892,80.23867416
1893,81.72804642
1894,79.82930184
1895,80.96179581
1896,84.44487
1897,82.78502274
1898,80.78461075
1899,78.4070015
1900,78.26290322
1901,78.4198494
1902,78.10246467
1903,77.89247704
1904,77.79896355
1905,78.27559852
1906,79.84606361
1907,82.38962746
1908,79.00023651
1909,76.19861221
1910,74.76617813
1911,79.03808785
1912,81.26431465
1913,73.13767624
1914,76.42293739
1915,84.18144417
1916,83.54331398
1917,81.43864632
1918,78.08649826
1919,76.75521469
1920,73.12432289
1921,66.09253502
1922,74.04915428
1923,81.75
1924,81.75
1925,80.59935951
1926,79.12413597
1927,78.32319451
1928,77.61757851
1929,77.02945519
1930,77.83133125
1931,76.71625519
1932,73.50685692
1933,77.23825646
1934,77.78417778
1935,71.67918206
1936,74.00196648
1937,76.76426506
1938,74.83411217
1939,75.37235642
1940,75.86880875
1941,69.74950504
1942,64.86715984
1943,61.30940628
1944,69.04810333
1945,75.60494995
1946,80.92841911
1947,78.67176438
1948,75.86402893
1949,72.95691681
1950,71.13798523
1951,68.85208512
1952,64.97140026
1953,68.97293186
1954,74.54790116
1955,76.00485993
1956,75.21682358
1957,73.4621563
1958,73.13800812
1959,69.08882141
1960,62.68002701
1961,68.19698143
1962,71.71881485
1963,73.18004036
1964,71.23922157
1965,69.19399071
1966,67.24341202
1967,71.27041054
1968,70.37332153
1969,58.1679554
1970,64.23738098
1971,70.69698524
1972,65.80913067
1973,66.29040718
1974,67.60193729
1975,64.33955765
1976,63.5761137
1977,64.63601685
1978,69.37199688
1979,69.57365704
1980,67.08414459
1981,68.22864628
1982,69.37351418
1983,70.41452789
1984,65.17640114
1985,65.62392998
1986,72.01162529
1987,67.20145416
1988,65.68383026
1989,68.9634018
1990,65.50660324
1991,62.55307007
1992,61.40388107
1993,65.37583256
1994,69.29196453
1995,71.59302521
1996,69.56332016
1997,67.25070953
1998,66.42794228
1999,68.31464005
2000,68.67625618
2001,62.74541283
2002,59.40082645
2003,58.52983952
2004,62.98316193
2005,63.54147911
2006,63.08140278
2007,64.73270607
2008,65.81733608
2009,66.0406332
2010,63.39546299
2011,62.0623188
2012,61.84795761
2013,64.16518021
2014,63.0929432
2015,60.67258072
2016,61.99825192
2017,64.04575443
2018,65.45759487
2019,58.48970604
2020,56.85802651
2021,58.71759796
2022,60.87683964
2023,61.05709076
2024,59.74180126
2025,56.91488743
2026,59.27163982
2027,64.57938862
2028,62.58159256
2029,59.90243912
2030,57.12445164
2031,58.62454414
2032,58.66656971
2033,58.38092518
2034,65.89012528
2035,65.47849369
2036,60.02959347
2037,60.36372376
2038,59.41116619
2039,57.8792572
2040,59.21733666
2041,56.02277946
2042,51.00690079
2043,55.69563294
2044,55.02624798
2045,51.52063847
2046,51.68828583
2047,54.82394791
2048,58.90496254
2049,58.23358345
2050,55.04316235
2051,51.66206455
2052,54.18266487
2053,56.81787586
2054,58.7140379
2055,57.19991779
2056,58.28807545
2057,59.00995731
2058,54.4623127
2059,52.01397324
2060,51.55097103
2061,54.75488853
2062,55.24102783
2063,54.08345509
2064,50.87581348
2065,53.37718773
2066,55.06639576
2067,52.19306374
2068,52.89432049
2069,53.00367355
2070,50.97308254
2071,50.44857407
2072,49.26904488
2073,46.8972683
2074,48.4988432
2075,49.42145729
2076,49.25184822
2077,49.9214344
2078,51.2137909
2079,52.85886669
2080,49.63067055
2081,47.27705383
2082,46.20001412
2083,50.62267495
2084,49.56061745
2085,46.86156845
2086,52.14086247
2087,47.59003544
2088,40.08900642
2089,37.19054842
2090,40.26861763
2091,44.81214047
2092,48.39674187
2093,44.88051701
2094,43.82510472
2095,49.46458817
2096,46.28579712
2097,43.39364148
2098,42.02490712
2099,40.65539455
2100,40.53590965
2101,41.79720593
2102,46.59610844
2103,48.70690632
2104,48.62565422
2105,46.05183315
2106,43.12238121
2107,41.388587
2108,44.13717938
2109,43.28080654
2110,41.66711045
2111,40.63519287
2112,41.69632339
2113,41.63998795
2114,39.57376385
2115,39.99840355
2116,39.71917439
2117,38.70655251
2118,38.01661396
2119,37.96178532
2120,38.44945479
2121,39.65824604
2122,40.24786854
2123,41.01420117
2124,42.91592789
2125,42.39441967
2126,41.02819062
2127,39.12426186
2128,38.35247326
2129,39.44696236
2130,42.27521515
2131,42.7953701
2132,40.79004574
2133,38.43970776
2134,42.60576439
2135,42.86812687
2136,41.10545921
2137,37.97730446
2138,40.00502873
2139,39.75408554
2140,34.88243914
2141,36.61290789
2142,37.87398911
2143,39.26092816
2144,46.75536442
2145,46.45780182
2146,41.9865942
2147,36.57738399
2148,34.52127981
2149,34.20111895
2150,35.42396641
2151,35.82784987
2152,34.66845989
2153,32.38671351
2154,34.13666344
2155,32.47545862
2156,30.13845635
2157,31.89042759
2158,32.94660187
2159,34.72846413
2160,38.06105328
2161,32.29018641
2162,33.25855923
2163,39.93241119
2164,36.59404946
2165,37.27284718
2166,38.36960316
2167,34.85148239
2168,36.14690781
2169,38.79536915
2170,41.96532917
2171,39.73431683
2172,37.54337883
2173,36.28758621
2174,39.81586075
2175,39.45218468
2176,36.84176636
2177,32.42633772
2178,32.95793343
2179,34.36424255
2180,36.49034643
2181,43.03648281
2182,42.3208685
2183,38.9557848
2184,38.77865792
2185,35.48181915
2186,32.49174166
2187,30.86685276
2188,37.43185997
2189,38.70297241
2190,37.605896
2191,40.62572479
2192,38.71207237
2193,36.75
2194,36.75
2195,36.75
2196,37.77561093
2197,37.90250492
2198,30.06396342
2199,37.01806355
2200,42.03015232
2201,35.9661274
2202,36.95467091
2203,37.29877949
2204,36.79570198
2205,35.54507017
2206,32.92802143
2207,31.78466463
2208,33.93106794
2209,36.77155399
2210,38.40900231
2211,38.37317562
2212,34.78966618
2213,37.07499409
2214,37.91091633
2215,33.78514385
2216,37.13115501
2217,36.56497002
2218,33.96288967
2219,33.78319836
2220,37.85412598
2221,39.83303643
2222,37.66791439
2223,35.32791042
2224,28.33177376
2225,24.55234575
2226,37.34704018
2227,33.81847572
2228,31.01212931
2229,31.90940857
2230,36.061306
2231,40.3438139
2232,40.68875408
2233,32.91760254
2234,35.06666184
2235,37.16797638
2236,38.82947922
2237,40.6398344
2238,39.54897976
2239,37.43201065
2240,34.85688496
2241,31.41129398
2242,32.89649153
2243,35.38757181
2244,34.11668825
2245,34.4949379
2246,33.87975693
2247,32.72778321
2248,34.18271828
2249,39.76466274
2250,41.52094746
2251,36.23723889
2252,35.87288094
2253,34.66271973
2254,33.87186146
2255,35.14857674
2256,36.25797081
2257,35.84509373
2258,33.86994171
2259,30.39861584
2260,34.20945978
2261,34.88646889
2262,30.1153574
2263,31.57947731
2264,33.43576718
2265,34.49527932
2266,33.7623806
2267,34.83139277
2268,34.90912247
2269,34.87669373
2270,36.34500409
2271,33.05058384
2272,34.67850924
2273,38.95310879
2274,32.88594485
2275,34.44129181
2276,34.41250801
2277,30.83797979
2278,31.75882292
2279,32.13601065
2280,32.10935116
2281,31.70764303
2282,30.04728508
2283,31.6036706
2284,32.81611061
2285,29.86099386
2286,34.19647885
2287,33.74552775
2288,31.85781574
2289,35.18801499
2290,32.31229019
2291,31.47064638
2292,33.11109352
2293,36.07633972
2294,36.81787872
2295,35.01703978
2296,32.10979414
2297,34.337533
2298,33.84184694
2299,31.76829529
2300,29.41451597
2301,32.76183891
2302,37.70604134
2303,37.42283344
2304,30.67334509
2305,32.5361476
2306,35.37956905
2307,35.26348496
2308,31.05970001
2309,35.53806639
2310,34.02642393
2311,32.18755007
2312,33.14284229
2313,31.08675289
2314,31.83652115
2315,32.78785133
2316,32.30495262
2317,33.61560821
2318,33.86760044
2319,32.84284735
2320,30.73874045
2321,36.92808628
2322,35.17461491
2323,32.77136421
2324,34.69471645
2325,33.37958431
2326,37.27921486
2327,39.06278134
2328,33.99406004
2329,29.1009574
2330,35.38356734
2331,38.53965378
2332,31.30076361
2333,35.6366539
2334,31.42277384
2335,30.64093256
2336,37.63040161
2337,33.66480017
2338,34.34894562
2339,34.82518578
2340,32.5867157
2341,25.20948696
2342,27.5455761
2343,31.27598381
2344,33.13359976
2345,30.85982037
2346,33.53215409
2347,34.15844393
2348,32.22734261
2349,30.89871454
2350,23.16054392
2351,24.38824606
2352,31.28541804
2353,33.37681341
2354,26.15979481
2355,28.61991406
2356,34.3208785
2357,33.74873925
2358,32.2242775
2359,31.88134671
2360,32.50437689
2361,33.71149588
2362,33.13885117
2363,31.69788361
2364,31.17858696
2365,32
2366,31.99999952
2367,31.36267376
2368,31
2369,31.71651364
2370,34.9725256
2371,29.46486378
2372,28.87218619
2373,30.82362509
2374,30.23900128
2375,26.97562408
2376,24.24955178
2377,27.5861969
2378,37.89340592
2379,31.74016142
2380,33.11154842
2381,33.88535071
2382,32.46140004
2383,32.26878548
2384,29.98894215
2385,28.64984942
2386,27.29667998
2387,24.25
2388,24.25
2389,27.30145788
2390,29.34046269
2391,28.17254019
2392,25.65864515
2393,25.08796692
2394,23.94421387
2395,21.90958834
2396,19.58514405
2397,28.08882237
2398,27.73500204
2399,25.34651184
2400,26.47091484
2401,23.5588069
2402,30.53480482
2403,30.54359436
2404,25.59834051
2405,32.40474224
2406,27.57817507
2407,20.96372271
2408,18.42629004
2409,23.05668783
2410,23.64140701
2411,25.81437969
2412,27.10387278
2413,27.93637324
2414,30.66967297
2415,22.4073987
2416,22.31549168
2417,23.53368378
2418,22.33539534
2419,28.5969944
2420,28.82979965
2421,27.59281063
2422,26.38134623
2423,25.91464424
2424,22.77680445
2425,23.47647524
2426,25.90887881
2427,28.5722642
2428,30.14382792
2429,30.79982996
2430,28.40189839
2431,23.85481024
2432,19.63188791
2433,24.94782591
2434,32.608078
2435,34.51369381
2436,30.16812897
2437,22.41522265
2438,26.16446352
2439,25.61905051
2440,25.35560656
2441,26.73511219
2442,28.7117157
2443,28.75
2444,27.0485096
2445,26.10889149
2446,26.22168732
2447,23.44823933
2448,21.96167469
2449,26.26405096
2450,27.02967978
2451,20.04157639
2452,22.02704859
2453,25.07161045
2454,23.99858141
2455,21.89777899
2456,22.11330366
2457,20.91935301
2458,26.90101528
2459,27.34937048
2460,23.91858769
2461,22.04792357
2462,25.23891258
2463,27.76104927
2464,28.04679394
2465,26.04583454
2466,22.90010643
2467,24.6990509
2468,25.49961043
2469,24.70063496
2470,23.2330432
2471,22.75449133
2472,25.75942898
2473,26.92087173
2474,23.70325661
2475,17.3414464
2476,11.74066556
2477,19.37016821
2478,19.13088584
2479,19.72095585
2480,21.29254627
2481,22.21836043
2482,24.02937889
2483,18.23848605
2484,17.54503679
2485,21.4818716
2486,25.21750498
2487,18.56230235
2488,27.05206919
2489,28.47423744
2490,26.91145659
2491,26.50654459
2492,25.29381228
2493,23.30071735
2494,21.57204342
2495,16.76412583
2496,15.02508617
2497,31.07103014
2498,23.36901856
2499,19.34748459
2500,17.32183457
2501,18.67714119
2502,23.79964876
2503,13.64288759
2504,21.54486466
2505,25.24261141
2506,21.05917025
2507,14.74411011
2508,24.71985578
2509,20.04239416
2510,21.43310404
2511,21.89162398
2512,19.93583489
2513,21.44886351
2514,20.22395277
2515,22.67070198
2516,21.93873262
2517,19.59865761
2518,19.91394377
2519,24.41524744
2520,19.82316637
2521,20.84724713
2522,22.45246649
2523,22.10830498
2524,22.33411312
2525,18.64102149
2526,20.20549345
2527,22.62508488
2528,24.56315756
2529,25.210248
2530,22.12585593
2531,26.14424086
2532,29.39437008
2533,23.98684502
2534,16.4866426
2535,20
2536,20
2537,20
2538,22.8011427
2539,24.71040011
2540,23.13491106
2541,19.09755778
2542,21.16520739
2543,17.16546607
2544,18.89930439
2545,20.32777786
2546,17.64011407
2547,21.77765226
2548,25.09502697
2549,27.08193493
2550,24.52572966
2551,19.78084087
2552,17.69369388
2553,22.68073559
2554,22.13493871
2555,21.67396402
2556,17.86679221
2557,16.2993381
2558,21.28755999
2559,21.4959259
2560,24.77047205
2561,19.46992636
2562,17.46637368
2563,20.92058134
2564,24.40131855
2565,18.55100059
2566,18.91446495
2567,23.65860081
2568,23.73888779
2569,20.22576952
2570,17.61688185
2571,17.04278564
2572,19.34871388
2573,22.00217581
2574,21.53631544
2575,20.34297323
2576,19.38747001
2577,15.21077418
2578,14.58015656
2579,16.88663793
2580,20.77373839
2581,18.08938122
2582,14.11302519
2583,22.17274952
2584,21.54040146
2585,20.71030474
2586,23.50976706
2587,21.78484726
2588,18.9679389
2589,22.76104164
2590,31.3189354
2591,19.68773222
2592,17.9263413
2593,17.58597279
2594,17.15022826
2595,20.01982355
2596,28.42464399
2597,21.00269938
2598,21.68680525
2599,19.11892414
2600,20.56035376
2601,20.69489527
2602,14.93963814
2603,15.76005078
2604,15.9728024
2605,15.07172155
2606,17.12767601
2607,20.42474842
2608,22.57479119
2609,22.44577027
2610,20.74046231
2611,19.24631548
2612,20.07015324
2613,18.79597473
2614,18.98038912
2615,19.81715965
2616,17.08512449
2617,19.22544384
2618,19.88507557
2619,15.77753615
2620,19.04999209
2621,23.62829876
2622,21.93764925
2623,15.35165978
2624,15.99585605
2625,20.48280621
2626,15.36237097
2627,15.00839615
2628,17.1515925
2629,14.45574915
2630,7.527887121
2631,15.65312958
2632,11.12656164
2633,7.712768078
2634,11.90323377
2635,15.36741448
2636,14.41629339
2637,12.39822483
2638,13.34217739
2639,18.09976626
2640,18.10366202
2641,20.63407564
2642,20.29453564
2643,18.06505871
2644,16.54774785
2645,15.34439659
2646,15.99527216
2647,15.3535018
2648,15.98069811
2649,17.59954501
2650,18.14802695
2651,15.96921396
2652,15.79959107
2653,27.10715914
2654,14.6935668
2655,12.3541944
2656,14.95323634
2657,14.4064126
2658,15.75024414
2659,16.50929308
2660,11.48076129
2661,15.64359355
2662,14.11333824
2663,11.16463614
2664,16.15436554
2665,19.17079258
2666,18.18857574
2667,15.48069596
2668,12.96420622
2669,12.00437617
2670,15.29590416
2671,12.41090274
2672,11.57441211
2673,15.86014629
2674,18.42404652
2675,18.60145235
2676,18.64913464
2677,13.43114901
2678,17.17564321
2679,14.65792012
2680,14.8094697
2681,15.15707612
2682,15.76106024
2683,15.85577202
2684,13.51369905
2685,9.768555165
2686,14.0272429
2687,19.3363831
2688,12.81094909
2689,8.792761326
2690,11.57324695
2691,16.74233413
2692,17.87242127
2693,15.43584418
2694,15.75791621
2695,9.762932062
2696,19.09391523
2697,13.97898698
2698,11.28844929
2699,11.9144907
2700,15.34926748
2701,16.79655433
2702,14.69545841
2703,16
2704,15.82819462
2705,11.81202233
2706,16.64740729
2707,15.95767713
2708,16.77673602
2709,15.85669589
2710,12.80153131
2711,13.06164217
2712,11.54089332
2713,-14.08983326
2714,5.853051066
2715,14.81965042
2716,14.64175272
2717,11.89181042
2718,13.03728175
2719,14.16212821
2720,12.85389972
2721,12.21992517
2722,5.674810171
2723,-29.90194655
2724,10.85134482
2725,13.77281404
2726,8.983975411
2727,12.21548498
2728,17.6680758
2729,14.85273099
2730,9.918581963
2731,11.92854953
2732,15.1989913
2733,18.40112495
2734,10.25655484
2735,15.45205403
2736,8.907514811
2737,7.070783437
2738,8.714885115
2739,10.01537764
2740,9.592475891
2741,9.182970526
2742,11.21047664
2743,14.17693829
2744,11.56051016
2745,15.42704606
2746,9.471701146
2747,11.36223149
2748,10.21279621
2749,10.12643564
2750,7.000228821
2751,6.479696334
2752,9.499999881
2753,9.222978473
2754,8.356928349
2755,8.091058493
2756,10.9119842
2757,6.794071198
2758,7.562740446
2759,8.707717059
2760,14.97270751
2761,12.05515695
2762,4.37429921
2763,7.158940017
2764,13.29568505
2765,11.28488827
2766,15.89324904
2767,12.469805
2768,14.17535186
2769,11.87428558
2770,8.483105213
2771,9.58500457
2772,10.53570783
2773,12.65949083
2774,12.63167572
2775,13.67909146
2776,16.46020222
2777,16.1806674
2778,12.10144043
2779,7.955204726
2780,8.429421425
2781,14.23484063
2782,13.77170801
2783,12.64585853
2784,11.08164072
2785,8.904704332
2786,9.748939278
2787,11.39208388
2788,14.09479904
2789,10.44917989
2790,5.856542766
2791,10.26835155
2792,14.26988602
2793,18.17177963
2794,11.0176158
2795,13.21081233
2796,12.27820253
2797,12.24999976
2798,16.86131001
2799,13.88793707
2800,10.27599025
2801,7.806034207
2802,8.009961367
2803,9.134701132
2804,8.264685155
2805,8.390213609
2806,12.21168852
2807,13.44620609
2808,9.600856065
2809,8.622104764
2810,6.402866207
2811,8.333520532
2812,13.26830053
2813,8.570390703
2814,12.39518666
2815,13.8338933
2816,11.11867523
2817,10.49694931
2818,12.26332021
2819,7.764808655
2820,6.326076746
2821,8.845568061
2822,8.571299911
2823,10.64068031
2824,11.1000998
2825,7.195612192
2826,10.39422703
2827,5.137510478
2828,8.583968638
2829,13.94975364
2830,5.88903749
2831,10.24085307
2832,9.258519172
2833,10.00249601
2834,11.75437212
2835,8.208653569
2836,9.442854404
2837,11.30278015
2838,11.36059427
2839,10.22969294
2840,12.26050043
2841,13.97934747
2842,13.53810573
2843,16.8375125
2844,16.29010677
2845,15.0443666
2846,13.32310867
2847,15.49216676
2848,13.86987114
2849,12.5966363
2850,10.18328571
2851,6.829581976
2852,6.516013265
2853,12.54196191
2854,9.403676153
2855,8.75
2856,11.0762887
2857,5.858093619
2858,3.051977098
2859,6.545194626
2860,7.72184825
2861,6.225399375
2862,8.656336784
2863,7.660063744
2864,7.710033537
2865,11.05787754
2866,9.990652324
2867,9.343328238
2868,10.51888144
2869,11.65734077
2870,7.902550101
2871,5.233428836
2872,12.77422094
2873,14.25938201
2874,12.40591776
2875,13.66508031
2876,5.959130351
2877,10.72094941
2878,10.08191502
2879,4.505081237
2880,10.33775711
2881,11.68194592
2882,16.80251241
2883,15.01948666
2884,10.63527787
2885,9.369403839
2886,4.559043825
2887,9.434962988
2888,10.99999988
2889,13.4173789
2890,11.00648976
2891,10.27367914
2892,11.5142796
2893,10.69075584
2894,10.95032012
2895,5.830113172
2896,5.066105604
2897,7.716572404
2898,9.358283996
2899,17.61335325
2900,18.17944861
2901,8.377279043
2902,5.447765827
2903,7.000000001
2904,7.449763656
2905,8.434090137
2906,8.790544986
2907,8.499999999
2908,9.475077212
2909,7.613005878
2910,5.268162265
2911,10.82478988
2912,7.625235319
2913,4.856790095
2914,11.45935536
2915,14.37045002
2916,14.26251793
2917,2.373504579
2918,-3.869707941
2919,7.199963331
2920,6.522691667
2921,4.691836029
2922,9.384895325
2923,7.125850439
2924,4.364085376
2925,7.587023974
2926,8.256253959
2927,6.60735178
2928,6.789534331
2929,6.620187402
2930,8.999999882
2931,9.702666761
2932,12.40073395
2933,10.91757333
2934,6.793371439
2935,6.830835938
2936,3.605815411
2937,10.05506778
2938,9.25
2939,8.264888286
2940,4.796769262
2941,6.849149823
2942,6.555922747
2943,7.750000119
2944,7.06393397
2945,5.092438281
2946,7.855754495
2947,10.11281228
2948,10.38425863
2949,9.702688097
2950,8.566456556
2951,7.180643738
2952,6.89503187
2953,11.52375579
2954,4.796107054
2955,1.836148441
2956,9.404022813
2957,7.012344361
2958,13.51194477
2959,10.32106829
2960,10.79228759
2961,8.385095001
2962,8.256528736
2963,5.915994883
2964,4.336422742
2965,3.318652049
2966,8.068163156
2967,7.180611491
2968,4.702192724
2969,2.096253872
2970,5.146236897
2971,7.840493441
2972,6.813554406
2973,9.632287503
2974,8.606030822
2975,5.729757995
2976,6.508054375
2977,5.940084637
2978,10.00052464
2979,7.747420415
2980,7.490262032
2981,7.609835506
2982,5.595188856
2983,5.759331822
2984,9.722633957
2985,4.88754946
2986,7.253164291
2987,12.72989321
2988,11.28388357
2989,6.889544845
2990,4.618109882
2991,3.046532381
2992,9.982744456
2993,4.913458616
2994,1.946863229
2995,5.422779054
2996,7.718228579
2997,10.36050058
2998,4.350159973
2999,1.576323971
3000,4.907618523
