800,196.3447746365273
801,187.39431715483806
802,204.48928797920598
803,239.79709429820105
804,273.71114436416246
805,286.4748474727985
806,265.1906139428356
807,220.67885509579173
808,168.8669832358337
809,125.43041162974077
810,97.37955448694993
811,80.85682693970921
812,71.32464502330913
813,64.73542565643402
814,60.88458662157973
815,61.35554654559019
816,67.7497248802647
817,79.95554188308415
818,93.52641859801224
819,103.34477683638943
820,104.78503915794317
821,103.06362885186718
822,112.4739699179845
823,147.63548704805544
824,217.11260560710434
825,297.8397516149107
826,356.4493517275332
827,359.9208332189628
828,301.75462396286093
829,221.1001524143685
830,161.5888475920292
831,162.97113905980768
832,222.4304569091637
833,310.7762317412653
834,398.432894649246
835,463.9648772005912
836,512.1246114195837
837,552.9205297698627
838,596.205065137061
839,647.2776508115203
840,706.4987204711306
841,773.9827081642252
842,850.7580482925641
843,943.44017559444
844,1060.729525127841
845,1211.3005322537083
846,1403.30063261929
847,1643.8302621415714
848,1939.8898569908142
849,2295.759853574149
850,2684.590688519289
851,3059.702798658307
852,3374.1166210115225
853,3591.3725927714386
854,3708.1911512868173
855,3727.792734046783
856,3653.607778665066
857,3493.2867228642917
858,3258.830004460382
859,2962.4080613470123
860,2619.2013314802025
861,2260.160252862939
862,1921.455263529915
863,1638.896801532348
864,1425.8153049228767
865,1260.0212117405463
866,1116.2049599958882
867,971.1669876560518
868,820.4877326300648
869,669.4096327541356
870,523.294125777069
871,389.6986493457498
872,281.5346409907088
873,212.48053811178215
874,194.71077796384088
875,218.13779764260835
876,255.6730340705799
877,279.8069239829656
878,269.41590391379214
879,226.33541018202777
880,157.55287887782288
881,70.35374584879901
882,-20.000553313540877
883,-89.67258328735807
884,-114.39690903391602
885,-77.83209581095616
886,-4.976709185984873
887,65.69268495052711
888,96.28252037199854
889,79.23023050269694
890,51.47624840478966
891,53.52000676541684
892,118.92393788391018
893,230.01547365904662
894,346.1520455764021
895,426.7730846957784
896,454.7550216386935
897,458.572286575989
898,471.9533092154561
899,526.0325187896178
900,625.3163440434982
901,758.6892132225457
902,914.8355540606008
903,1089.1457937679224
904,1293.7403590193462
905,1543.3696759424474
906,1851.4141701058543
907,2212.2842665075786
908,2606.4503895634425
909,3014.012963095609
910,3413.6224103211407
911,3779.179153840665
912,4083.6736156271054
913,4301.34621701449
914,4430.557378686832
915,4491.077520667091
916,4503.417062306204
917,4485.796422272186
918,4447.556018539317
919,4395.916268377396
920,4337.647588341066
921,4267.980394259219
922,4170.245101224475
923,4027.1721235827154
924,3825.5718749227344
925,3570.444768065905
926,3271.941215055962
927,2940.211627148832
928,2586.666414802563
929,2224.135987667294
930,1865.550754575319
931,1523.4811235312154
932,1208.747501702037
933,931.6002954075975
934,702.0899101108062
935,521.7067504080878
936,381.04122001985706
937,269.933721781088
938,179.37765763193056
939,106.53142860841035
940,50.700434833197505
941,11.11307550644051
942,-15.780251103322371
943,-37.3241476681942
944,-61.13621780986978
945,-93.55706610851666
946,-133.5502981115951
947,-177.43052034260654
948,-221.55434030976903
949,-264.6133665146299
950,-308.538208460599
951,-355.4964766614394
952,-406.6317826496488
953,-457.059738984819
954,-499.70695926189
955,-527.6120581193682
956,-538.9946512474398
957,-539.221355396061
958,-534.1857883829452
959,-529.1495691015025
960,-525.7783175287077
961,-524.4606547328967
962,-525.6082028815163
963,-530.554585248774
964,-541.8644262232574
965,-562.1833513154543
966,-592.0879871652542
967,-621.0609615493304
968,-634.8899033884809
969,-619.7944427549319
970,-577.6602108795105
971,-529.7578401588398
972,-498.57796416237943
973,-502.35821763946296
974,-538.7012365262653
975,-598.9566579526763
976,-674.2911202491232
977,-750.9252629533657
978,-809.5257268171554
979,-830.4601538129082
980,-801.9961871402666
981,-746.0244712326003
982,-693.363651763475
983,-673.7603756530189
984,-692.5782910742764
985,-731.1750474594392
986,-769.8932955060627
987,-792.7006871832073
988,-796.651875737507
989,-781.7485156991897
990,-748.327262888035
991,-702.5377744192665
992,-655.4027087093764
993,-618.1037254819021
994,-597.4474857731566
995,-587.3406519378459
996,-579.319887654683
997,-565.3488579319237
998,-543.0472291128062
999,-513.952668881002
1000,-479.6688462659513
1001,-439.4114316481464
1002,-386.7200967643821
1003,-314.3215147129158
1004,-214.93935995859465
1005,-83.8323083379164
1006,66.56796293598927
1007,216.79177526840613
1008,347.66944867814163
1009,458.06130179272805
1010,572.647651843623
1011,718.1288146615279
1012,914.0651046717194
1013,1141.1868348894513
1014,1367.0743169154393
1015,1559.85786093135
1016,1706.1677756953995
1017,1814.3343685379768
1018,1893.937945357322
1019,1953.3988106152956
1020,1996.297267333166
1021,2024.9336170874503
1022,2041.3681600058535
1023,2043.3911947632205
1024,2024.763018577567
1025,1979.103927206148
1026,1902.134214941605
1027,1796.2341746081383
1028,1665.0840975577612
1029,1513.424273666591
1030,1359.684991331209
1031,1231.9165374650565
1032,1158.2991974949
1033,1144.3232553573416
1034,1143.9689934953913
1035,1104.0466928550813
1036,979.4766328821461
1037,794.3390915187429
1038,607.8243452002334
1039,478.85266885203237
1040,429.1943358864646
1041,421.239618199721
1042,412.0587861688564
1043,368.0521086488061
1044,307.6498529695127
1045,267.2722849330421
1046,282.21966881079425
1047,356.2222673407632
1048,458.41034172482614
1049,556.1341516260927
1050,625.6939551663108
1051,675.0400089233226
1052,719.1225679285762
1053,771.9118856646564
1054,833.8582140629205
1055,895.6518035011286
1056,947.7629028011615
1057,986.2317592267736
1058,1019.288618481396
1059,1056.793724705989
1060,1109.237320476952
1061,1191.959646804069
1062,1322.530943128515
1063,1518.1814473209106
1064,1782.7013956794017
1065,2101.7010229278294
1066,2459.5005622139233
1067,2839.30024510753
1068,3219.65030159892
1069,3577.810960097122
1070,3890.702447428308
1071,4129.674988834246
1072,4261.538807970752
1073,4253.044126906241
1074,4089.381166120311
1075,3798.8201445023406
1076,3415.7912793501873
1077,2975.5447863688805
1078,2519.480879669407
1079,2091.8697717675004
1080,1736.4016735825062
1081,1472.9267944362964
1082,1290.3953420521939
1083,1175.657522553971
1084,1116.403540464904
1085,1103.5035987068368
1086,1128.5878985993277
1087,1183.2266398588035
1088,1258.4000205977936
1089,1344.6582373241945
1090,1432.611484940553
1091,1524.3199567434622
1092,1643.883844422906
1093,1817.9233380617352
1094,2062.538626135154
1095,2332.799895510214
1096,2561.8073314454195
1097,2685.0211175903223
1098,2693.1314359851913
1099,2631.1984670607017
1100,2546.6223896376905
1101,2478.093380926932
1102,2441.031616528975
1103,2447.0772704340125
1104,2503.2605150217914
1105,2579.7815210615663
1106,2629.010457712109
1107,2604.7474925217393
1108,2518.6527914284034
1109,2455.076518759799
1110,2503.1188372335473
1111,2719.359907957385
1112,3050.029890429414
1113,3417.9689425383986
1114,3751.177220564079
1115,4031.694879177545
1116,4273.322071441646
1117,4490.208948811438
1118,4694.565661134673
1119,4895.682356652327
1120,5102.609181999169
1121,5317.9562822043645
1122,5518.793800692134
1123,5675.88187928242
1124,5760.51065819165
1125,5750.320276033446
1126,5627.130869819479
1127,5373.132574960289
1128,4991.625525266165
1129,4519.539852948063
1130,3996.855688618578
1131,3461.563161292923
1132,2943.302398389971
1133,2469.5535257333268
1134,2065.336667552425
1135,1725.3319464836914
1136,1424.0294835717177
1137,1135.8893982704867
1138,856.7818084446208
1139,616.3768303706911
1140,447.3245787385313
1141,370.0951666526289
1142,356.4587056335022
1143,366.12530561915446
1144,362.0950749665626
1145,344.40812045316125
1146,336.14454727841985
1147,360.5244590654074
1148,430.2879578624106
1149,543.1451441446079
1150,695.606116815743
1151,880.43097320985
1152,1077.3498090930243
1153,1263.2227186652035
1154,1416.2197945620046
1155,1526.6011278565857
1156,1590.9868080615506
1157,1606.2469231308642
1158,1574.3615594618332
1159,1503.5008018971039
1160,1402.1547337266875
1161,1276.333436690038
1162,1125.0869909781486
1163,946.2954752356745
1164,739.1589665631182
1165,511.88754051902106
1166,276.4312711221901
1167,44.960230853968824
1168,-166.64550933945975
1169,-339.07588004475656
1170,-452.9708133790464
1171,-506.12024298754295
1172,-530.7041040411095
1173,-563.0523332338034
1174,-629.4848687803842
1175,-709.5316504138009
1176,-769.0326193826404
1177,-776.8077184485173
1178,-737.0668918834963
1179,-677.1200854674262
1180,-624.5072464852619
1181,-598.2783237243639
1182,-605.8232674717656
1183,-653.7120295113837
1184,-739.8645631212548
1185,-836.6008230706739
1186,-911.5207656173552
1187,-937.7643485045392
1188,-926.381530958075
1189,-904.2622736834801
1190,-896.8465388629484
1191,-902.7742901523652
1192,-897.3554926782617
1193,-855.3901130347422
1194,-773.4381192804194
1195,-686.5494809352676
1196,-633.7141689774926
1197,-640.862155840332
1198,-684.6434154088765
1199,-730.1679230168265
1200,-744.5456554432112
1201,-712.2065909091307
1202,-626.2707090744225
1203,-481.10799103432146
1204,-297.958419316079
1205,-124.91197787558849
1206,-11.028652093922574
1207,21.63157122607663
1208,3.878703863312694
1209,-27.297243818076822
1210,-42.54626286519124
1211,-43.46834573279011
1212,-39.45348627973544
1213,-39.231679765352965
1214,-45.26292284581723
1215,-56.807213570467866
1216,-72.64455137814548
1217,-81.48493709346076
1218,-62.13837292305834
1219,6.8751375481388095
1220,128.82558936073474
1221,272.93297618465476
1222,404.6772903230012
1223,497.92852271591255
1224,557.5266629444413
1225,595.4616992344872
1226,622.5336184607058
1227,640.4824061505024
1228,646.9180464879882
1229,639.6405223180082
1230,620.5098151501588
1231,594.7559051628596
1232,567.6987712074188
1233,542.0383908121439
1234,516.4347401864616
1235,489.21779422507643
1236,457.1275265121312
1237,412.48390932540315
1238,346.8269136405288
1239,258.86650913524136
1240,187.2126641936211
1241,184.12534591039912
1242,294.5345200952379
1243,480.7601512770889
1244,653.272202708511
1245,724.450636370073
1246,683.1354129747233
1247,602.1564919722077
1248,558.3238315535182
1249,585.6873886553349
1250,636.2171189645142
1251,652.5629769225761
1252,597.7449157302344
1253,505.33288735192764
1254,424.1668425203843
1255,394.8267307412025
1256,404.8525002974566
1257,420.914098254294
1258,412.40147046361017
1259,383.87456156868575
1260,363.88331500887034
1261,380.3376730242835
1262,429.5575766605398
1263,471.83296577347573
1264,465.7637790339122
1265,398.03995393243895
1266,308.811426784192
1267,244.2381327336807
1268,234.1700057596172
1269,255.2369786797608
1270,273.28898315579863
1271,258.9459496982272
1272,210.20780767125325
1273,134.78448529771958
1274,41.34590966405085
1275,-51.29799327479304
1276,-118.4372986903345
1277,-136.62208287559588
1278,-111.6524232400734
1279,-76.82839830472767
1280,-66.18008769691733
1281,-90.87757214535668
1282,-127.88093347502581
1283,-151.39025460207085
1284,-144.91561952870688
1285,-114.32711333807674
1286,-68.77482218911973
1287,-17.39883331139208
1288,30.760765000088213
1289,66.67388339005993
1290,84.37043144819472
1291,97.57031771434777
1292,127.92344968377802
1293,193.82973381242664
1294,277.3090755221565
1295,337.55137920606103
1296,335.3865482337478
1297,273.9544849566737
1298,196.6150907134488
1299,147.8882658352013
1300,148.31390965091668
1301,184.23192049283716
1302,239.32219570182133
1303,294.16463163276785
1304,322.76912366000397
1305,298.24556618274255
1306,213.5938526305108
1307,127.71387546860387
1308,113.1355262035595
1309,221.14869538864514
1310,393.9332726293396
1311,538.8191465888594
1312,578.2362049936692
1313,555.9043346390208
1314,573.7434213944998
1315,725.8733502095947
1316,999.3640051192506
1317,1306.6352692494675
1318,1562.2270248229033
1319,1766.039153164471
1320,2002.9015347069599
1321,2359.8640489966783
1322,2852.9765746990925
1323,3398.388989604484
1324,3905.011170633621
1325,4323.652993843427
1326,4688.634334432683
1327,5044.135066747722
1328,5407.205064288153
1329,5717.904199712566
1330,5902.692344844285
1331,5910.149370677094
1332,5779.365147381011
1333,5572.479544308037
1334,5345.332429997956
1335,5116.65367218408
1336,4891.733137799096
1337,4674.000692980831
1338,4451.006203078083
1339,4202.319532656464
1340,3911.1005455041904
1341,3605.609104637975
1342,3344.7950723088543
1343,3185.2983100080546
1344,3126.7286784728713
1345,3117.0360376925437
1346,3103.380246914139
1347,3068.9311646484675
1348,3039.748648675977
1349,3044.272556052667
1350,3098.9927431160195
1351,3201.769065490931
1352,3348.8213780956394
1353,3531.2695351476887
1354,3729.9333901698774
1355,3924.322795996224
1356,4093.337604777933
1357,4214.267667989383
1358,4264.102836434104
1359,4229.222960250774
1360,4128.977888919222
1361,3989.9974712664334
1362,3838.111555472564
1363,3695.4699890769625
1364,3583.1526189842007
1365,3516.4592914701025
1366,3476.069852187793
1367,3429.8741461737372
1368,3349.3620178538004
1369,3234.633311049305
1370,3099.1478689830965
1371,2957.5055342856213
1372,2834.646149000986
1373,2761.589554593069
1374,2765.75559195158
1375,2825.314101398175
1376,2883.2249226925524
1377,2885.0478950385386
1378,2836.7428570902302
1379,2796.539646958083
1380,2822.2581022150316
1381,2918.9380599026445
1382,3036.829356537206
1383,3124.4218281158883
1384,3159.645310122871
1385,3156.68963753549
1386,3131.9546448303754
1387,3098.9201659896207
1388,3066.736034506903
1389,3044.112083393682
1390,3027.9881451853344
1391,2995.1940519473264
1392,2920.719635281386
1393,2799.5647263316696
1394,2666.8791557909444
1395,2562.502753906767
1396,2502.2353504876537
1397,2445.926774909276
1398,2345.496856120659
1399,2177.4054226503376
1400,1984.0123026125893
1401,1818.637323713605
1402,1720.11031325769
1403,1682.411098153474
1404,1690.9095049200987
1405,1729.785359693442
1406,1779.188488232303
1407,1818.3687159246238
1408,1831.0858677937013
1409,1819.229768504385
1410,1789.170242369304
1411,1750.577113355077
1412,1727.8302050885195
1413,1749.3793408628808
1414,1835.4643436440401
1415,1965.515036076742
1416,2106.4512404908055
1417,2227.9527789073527
1418,2315.219473045023
1419,2358.6411443262023
1420,2352.5576138832366
1421,2314.6487025646693
1422,2271.15423094144
1423,2245.5740193131405
1424,2243.7478877142003
1425,2264.545655920143
1426,2303.887143453783
1427,2337.572169591471
1428,2332.9605533692975
1429,2265.3321135893184
1430,2167.866668825789
1431,2099.3840374313586
1432,2108.74403754332
1433,2167.666487089802
1434,2212.201203796003
1435,2186.1280051903923
1436,2096.1867086109505
1437,1979.2471312113466
1438,1870.789089967182
1439,1793.282401682185
1440,1762.7968829944202
1441,1791.6423503825026
1442,1860.938620171799
1443,1936.255508540622
1444,1988.2428315264497
1445,2031.670405032104
1446,2103.518044831966
1447,2236.455566578152
1448,2425.4427858067174
1449,2646.439517943849
1450,2874.805578312029
1451,3082.1607821362522
1452,3238.2449445501697
1453,3316.837880602294
1454,3325.199405262165
1455,3286.9293334265203
1456,3222.4174799254506
1457,3125.3336595285928
1458,2976.667686951261
1459,2761.619376860617
1460,2498.3185438818346
1461,2220.025002604225
1462,1955.3885675874008
1463,1698.9790533674077
1464,1430.3862744628714
1465,1136.940045381125
1466,859.060180624334
1467,659.3764946956289
1468,584.558802105219
1469,579.4269173765097
1470,548.8806550522168
1471,418.1698297004623
1472,233.11425592088926
1473,83.4837483507381
1474,39.82812167096199
1475,68.39719061229334
1476,100.46076996132979
1477,81.68867456659973
1478,28.81071934465581
1479,-19.69328071388736
1480,-33.87351053828752
1481,-21.630154971611773
1482,-1.3033987647122558
1483,10.8865734298397
1484,7.179577063761826
1485,-18.09457230089356
1486,-62.79605898572299
1487,-97.4750671899601
1488,-86.68178098447243
1489,-17.856384305734537
1490,51.26093905013295
1491,49.45000543336937
1492,-56.079368653439815
1493,-194.92736654939836
1494,-279.69017142932717
1495,-264.4859662978106
1496,-200.24993398323386
1497,-151.50925713183642
1498,-153.78311820179624
1499,-184.30769945726024
1500,-213.43518296247203
1501,-222.43775057580388
1502,-211.42858394388168
1503,-182.56686449568406
1504,-147.46977343664366
1505,-131.66449174276204
1506,-160.9472001547383
1507,-229.81507917210365
1508,-293.5803090473655
1509,-306.6160697801497
1510,-263.2945411113669
1511,-200.2179025173773
1512,-154.589333204156
1513,-136.45001210150986
1514,-131.83711785723426
1515,-126.64482883133678
1516,-116.43832309025129
1517,-103.87477840104475
1518,-91.59437222567067
1519,-80.29528171517995
1520,-69.51068370399662
1521,-60.0227547041668
1522,-62.96267089963112
1523,-94.51960814049198
1524,-164.01674193732651
1525,-237.14124745545814
1526,-262.55629950927687
1527,-206.03407255657294
1528,-117.48374069284546
1529,-72.57847764564758
1530,-118.17145676893415
1531,-191.95585103743906
1532,-205.81183304101978
1533,-112.58657497906461
1534,15.840751345132958
1535,86.24297452996143
1536,49.07392358107427
1537,-47.695572083021034
1538,-143.1176826254141
1539,-198.69057778523347
1540,-214.4744268721097
1541,-194.53339876064092
1542,-151.09666188488518
1543,-107.20338423283101
1544,-86.04773334092715
1545,-96.32087628859881
1546,-132.01797969275867
1547,-185.76520970235288
1548,-239.85773199293362
1549,-268.58271176119524
1550,-249.90531371957331
1551,-201.37670209082899
1552,-163.57504060264
1553,-169.45249248222717
1554,-196.13122045098135
1555,-196.77238671909072
1556,-138.721152980208
1557,-60.31368040610687
1558,-21.891129641364387
1559,-61.004660798042096
1560,-135.2864334504011
1561,-184.92060662962103
1562,-177.15833881850995
1563,-146.25378794627977
1564,-136.43011138326983
1565,-169.44346593574664
1566,-227.41400784066718
1567,-288.6588927604789
1568,-340.8942757779496
1569,-383.7233113909697
1570,-417.24215350740815
1571,-436.21895543995015
1572,-430.6048699009716
1573,-391.62904899743444
1574,-327.52964422575496
1575,-257.46080646673727
1576,-200.23268598048162
1577,-170.74143240133526
1578,-182.14519473283508
1579,-238.53712134268426
1580,-300.51435995773136
1581,-315.5740576589633
1582,-256.68736087652724
1583,-177.54541538475314
1584,-147.61236629719497
1585,-197.99435806168367
1586,-279.02153445541444
1587,-331.40803858002255
1588,-328.02701285669355
1589,-287.4605990212767
1590,-231.59693811940633
1591,-178.05617050169712
1592,-140.34743581885778
1593,-130.62187301690756
1594,-146.84762033234983
1595,-177.8098152874063
1596,-211.74559468523148
1597,-234.16509460516318
1598,-229.41945039799248
1599,-187.96079668122547
1600,-126.49226733438627
1601,-68.76299549433315
1602,-33.08411355057251
1603,-23.16975314062438
1604,-40.191045145345925
1605,-74.9201196843569
1606,-100.45910611138424
1607,-89.60613300971818
1608,-54.4453281876049
1609,-50.125818673710455
1610,-127.33273071257281
1611,-248.39018976009538
1612,-313.3013204790277
1613,-239.9502467344846
1614,-86.59309158948054
1615,26.396022699518653
1616,13.795974687043781
1617,-58.25235625698042
1618,-83.35508994281736
1619,-7.319345356563645
1620,92.06975934424918
1621,117.52310683495307
1622,37.342580628113865
1623,-79.24493492218244
1624,-156.42255461603963
1625,-162.68739240347168
1626,-108.69456138015994
1627,-9.657173783205508
1628,90.2606590130872
1629,129.98282650139117
1630,65.68821904555261
1631,-49.745272115247644
1632,-130.2277548623606
1633,-119.7873361935417
1634,-56.346122218848905
1635,4.1807818434481305
1636,28.40527167091932
1637,23.37024384104916
1638,0.3385958352337184
1639,-29.659773957197103
1640,-55.85396623498127
1641,-68.54808078097267
1642,-70.22221645818172
1643,-71.02447120584657
1644,-77.90694203551902
1645,-78.6757250271803
1646,-54.26991532535794
1647,1.1733928647026914
1648,52.43310628090694
1649,56.638132608079104
1650,1.7483804817820783
1651,-70.99624050791499
1652,-116.27281981268425
1653,-117.84744592222887
1654,-88.25320636055221
1655,-42.17118768225919
1656,-2.7734754689190595
1657,1.9538456746086013
1658,-46.5453078762057
1659,-120.5510187619584
1660,-178.27936863571085
1661,-190.17143815944655
1662,-157.80630700050278
1663,-87.94205382807377
1664,-1.2477563096745143
1665,62.400508892311336
1666,64.71366612410384
1667,12.584640743967611
1668,-52.47664087437988
1669,-92.418251338353
1670,-98.71626223314706
1671,-74.99974411836592
1672,-29.78276652470231
1673,12.266602049372523
1674,23.321294140916507
1675,-5.468756674254109
1676,-50.25461577827991
1677,-84.45034750806735
1678,-91.89901515206475
1679,-66.07168094710687
1680,-4.647406075238905
1681,63.295749339411486
1682,93.34672623373808
1683,59.017466608758696
1684,3.599913532667415
1685,-13.019988856105556
1686,31.53770465411435
1687,88.00994035125404
1688,100.95866560247123
1689,59.310828857098386
1690,-4.043620350421406
1691,-56.130731397621275
1692,-79.950552571132
1693,-66.61613106381628
1694,-15.989512971935255
1695,38.023256707683686
1696,53.39513408041603
1697,18.000076356627687
1698,-24.106958145581302
1699,-24.688009997664267
1700,20.93288134208342
1701,76.14667753119647
1702,105.30234134569037
1703,93.54983668269051
1704,35.820128563034814
1705,-59.40981686613486
1706,-136.66703232883447
1707,-130.92954941767493
1708,-32.67039859138822
1709,76.56139082769005
1710,111.72379065605855
1711,70.13277385150832
1712,15.703314515514649
1713,3.182387895640204
1714,17.529970387899084
1715,16.82703953908822
1716,-20.897425950886827
1717,-62.74844622672572
1718,-67.19204027546584
1719,-20.429225924244747
1720,55.79798016192399
1721,136.87756248234837
1722,192.67150670280716
1723,189.63679965770825
1724,107.19142935220407
1725,-17.805615035715164
1726,-132.73834315316162
1727,-196.4427634702888
1728,-189.8708832782986
1729,-99.27070868743431
1730,35.37575537500197
1731,125.90450516655619
1732,100.21653813156445
1733,5.4568529030366335
1734,-62.461550695474216
1735,-43.075671648035495
1736,25.84749225547057
1737,90.45994442115807
1738,122.4816894528758
1739,124.97873315396646
1740,102.41108252896083
1741,54.31874578527095
1742,-22.508267665154563
1743,-118.51794720419002
1744,-176.47928100592617
1745,-128.94325603510333
1746,26.891141954468367
1747,191.9269284214115
1748,264.81712003830944
1749,235.07773469315725
1750,156.18879149083295
1751,76.3523107545052
1752,11.96731402704063
1753,-29.993175927630546
1754,-48.99813512317269
1755,-56.82453834952776
1756,-66.28335917161621
1757,-83.75956992808824
1758,-110.29814173007526
1759,-143.32604445998732
1760,-160.93424677032817
1761,-134.5377160825392
1762,-56.05541858587367
1763,37.78068076371346
1764,105.4436182446234
1765,129.35543137067634
1766,114.05615889212459
1767,69.50284079664289
1768,33.95551831030025
1769,56.436233898484716
1770,150.70603126683181
1771,248.0819553620886
1772,271.08605237298616
1773,209.239369731049
1774,116.62195611140578
1775,45.88386143356183
1776,23.173136862139472
1777,64.2048348075914
1778,156.54100892689712
1779,222.02771412421316
1780,177.99000655151485
1781,46.62694360919977
1782,-50.69741605334548
1783,-14.551012537188399
1784,96.51621530666671
1785,164.86632987777102
1786,128.8973948266912
1787,50.38247505545314
1788,4.964636717934809
1789,20.277947220252827
1790,82.08447522111965
1791,170.42029063214522
1792,242.2474646181472
1793,247.01206959740102
1794,171.0971792418859
1795,72.21586847749222
1796,12.950213484182314
1797,6.1932916961577575
1798,27.223181801970895
1799,51.961963744619425
1800,63.6867187216003
