800,133.51179714801037
801,109.21699628266833
802,105.03452193347948
803,118.27467823653569
804,136.8437685424651
805,148.51809541276089
806,144.86396061619234
807,130.50966512525702
808,112.90750911267969
809,99.41879194792637
810,94.492812193801
811,98.9178676030806
812,113.25225511516874
813,137.37627085280292
814,165.86121011883733
815,190.78136739301408
816,204.21103632882478
817,202.48750975039366
818,192.7500796493914
819,183.81403718202273
820,184.0946726660368
821,194.15627557777225
822,207.33113454926206
823,216.68253736537918
824,216.3917709609923
825,206.49012141821368
826,188.91187396364876
827,165.60531296570116
828,139.3817219319135
829,114.55238350635591
830,95.57457946704744
831,86.61859072342668
832,88.70869731384664
833,100.92817840311909
834,122.32731228011835
835,150.95837635536554
836,181.65864715873067
837,208.61040033710742
838,226.15091065216257
839,232.47345197811046
840,229.99629729952358
841,221.34571870920263
842,208.85998740605464
843,193.1503736930299
844,174.18714697507494
845,151.98057575716302
846,131.17092764230802
847,125.00246932966729
848,147.65346661263175
849,211.0441843770077
850,301.27988659917537
851,387.99983634432647
852,440.59829576473567
853,439.3965260980367
854,399.28478766556145
855,341.9193398707157
856,288.51244119736293
857,249.49034920829035
858,224.24732054364722
859,211.68361091947372
860,210.2014751262377
861,215.5791670274084
862,222.73693955806993
863,226.66104472355255
864,226.91673359813103
865,230.30625632371812
866,244.26586210861205
867,274.7787992262856
868,315.1173150141749
869,351.9606558725427
870,371.97706726334764
871,369.0567937091455
872,354.54007879204437
873,342.3071651526607
874,345.3682944891407
875,364.19370755617456
876,389.6336441640997
877,412.2783431779462
878,424.8880425166317
879,427.9129791520663
880,423.50338910838764
881,413.8495074611419
882,401.0415683365809
883,387.0898049109164
884,374.0344494096389
885,364.1157331068698
886,360.81388632473136
887,368.0291384327429
888,389.5217178472594
889,423.6718520309387
890,460.84976749221823
891,490.82568978484596
892,505.2298435074299
893,509.4024523030039
894,514.8637388586394
895,533.0839249050914
896,566.8432312164277
897,602.0118776097588
898,622.5300829449297
899,614.1880651242573
900,581.8160410923356
901,541.4242268357993
902,509.16283738317
903,495.4620868047041
904,496.4321882122731
905,505.95335375927607
906,517.9557946405512
907,526.7797210923691
908,527.1053423923804
909,513.6128668596521
910,485.0025018546967
911,452.66445377952914
912,430.48892807776247
913,431.59612923471286
914,454.7462607775378
915,485.91952527540525
916,510.6561243396718
917,517.2162586241011
918,504.44012782509526
919,473.6579306819567
920,426.59986497716636
921,374.44612753670845
922,338.1369142303811
923,339.08241997216646
924,390.76283872059867
925,470.7683634791756
926,546.6891862967823
927,586.8054982681278
928,582.9274895342296
929,554.3953492829005
930,522.1292657492595
931,503.5994262162858
932,498.77601701536514
933,502.1092235268643
934,508.0892301807544
935,513.1462204572344
936,516.2703768873616
937,516.6018810537298
938,513.2409135911712
939,505.22765418743984
940,491.5522815839686
941,471.25497357660606
942,445.315907016402
943,417.3652578103829
944,391.23320092238646
945,369.83991037388114
946,350.9455592448194
947,330.4403196745243
948,304.27436286257034
949,271.29785906969846
950,234.40097761874858
951,196.79388689562438
952,162.0567543502293
953,136.1697464975041
954,125.97302891839172
955,138.12676626088978
956,170.40112224108634
957,208.3562596442207
958,236.6423403257777
959,242.8295252125772
960,231.11797430389015
961,211.58784667258806
962,194.22930046627698
963,184.16249290848464
964,180.14758029983932
965,180.44471801928375
966,183.23406052528298
967,186.08576135707517
968,186.36997313593383
969,181.44684756641436
970,169.24653543767818
971,148.33918662476572
972,117.3149500899417
973,76.4939738840203
974,34.386405147721234
975,2.012390113044603
976,-10.08792589535551
977,-5.044398458756405
978,-1.3368840629646002
979,-18.23524009686662
980,-67.10932485100966
981,-125.6289975161144
982,-162.53411818161112
983,-148.08454783414345
984,-86.86014835607602
985,-17.240782523957023
986,20.943685993004692
987,1.3533926344844076
988,-53.86152804937592
989,-111.65094239641985
990,-140.2147176308663
991,-129.85272186171824
992,-89.44482408113072
993,-28.420894162796685
994,42.709197139700336
995,110.335578194552
996,160.23837649338748
997,179.49771865294497
998,171.46373041679908
999,150.8165366570247
1000,132.44626137595333
1001,125.59302770789327
1002,126.15695792086262
1003,128.08817341836948
1004,125.36679474114862
1005,112.94294156897922
1006,92.38673272244705
1007,68.00828616476429
1008,44.06771900356762
1009,21.53514749277565
1010,-3.289312965609497
1011,-34.505547819639105
1012,-74.00344336553826
1013,-111.95288674587027
1014,-134.50376594763475
1015,-128.28596980038674
1016,-94.90938797431954
1017,-53.5639109783624
1018,-24.47943015826604
1019,-22.125837694651636
1020,-36.693026601089514
1021,-51.96089072212271
1022,-52.29932473132976
1023,-34.12822412933383
1024,-5.0574852418340015
1025,26.88299478240151
1026,55.183317973507656
1027,78.1735855425577
1028,95.11389788356792
1029,105.4743545755282
1030,111.00505438443724
1031,115.12609526534288
1032,121.25757436440108
1033,129.79958802093097
1034,134.2522317694893
1035,127.16560034194481
1036,102.89978766956847
1037,71.60488688511941
1038,51.36099032494894
1039,60.11818953111833
1040,99.99657525350449
1041,147.9262374519294
1042,178.52726529829124
1043,171.47974717870602
1044,134.44377069565053
1045,84.76942267010782
1046,39.58678914375196
1047,10.015955381089952
1048,0.5270058716487256
1049,15.290024332152825
1050,54.18509370870561
1051,102.14229617899582
1052,140.73171315448417
1053,152.6434252826166
1054,135.797512449044
1055,99.15405377981006
1056,51.96312764362301
1057,5.604811654040532
1058,-23.750817328269477
1059,-19.323683193297256
1060,30.846289420564062
1061,102.41917512875625
1062,154.5450478028306
1063,147.16398057269544
1064,78.12604582888707
1065,-3.6686847751498135
1066,-45.690140320792125
1067,-11.188250621953557
1068,69.90705377719314
1069,150.10584160452345
1070,184.4781808622447
1071,170.42413882919936
1072,139.5037820631769
1073,124.21717640319912
1074,140.07438697186626
1075,162.83547817763974
1076,162.60051371719237
1077,115.33955657771003
1078,41.952669039230386
1079,-15.990087323027183
1080,-17.718651636332652
1081,40.197036271903926
1082,112.7270358764672
1083,151.62140595668097
1084,124.18020459874788
1085,57.4734891981243
1086,-7.0786835381532
1087,-30.946257589092056
1088,-13.929177617399546
1089,17.02261103289493
1090,34.44916233879121
1091,24.44052960069712
1092,-0.913234555224335
1093,-26.512078174646376
1094,-39.31594997274624
1095,-38.14479933179973
1096,-26.108576298815024
1097,-6.5172315831514425
1098,12.46928344585649
1099,17.981016761297724
1100,-3.0619843189397216
1101,-54.44967312980225
1102,-115.11200365663353
1103,-159.8989305328414
1104,-167.48040903746187
1105,-147.51639509279812
1106,-124.64684526200472
1107,-123.12171674671663
1108,-149.06096738463202
1109,-185.824555647132
1110,-215.26244063687045
1111,-223.08458208539196
1112,-208.0109403507231
1113,-171.55147641497933
1114,-116.8361518819529
1115,-64.12492897474112
1116,-43.747770533316725
1117,-85.54464001214365
1118,-186.72550147776747
1119,-296.2703196064358
1120,-359.25905968167353
1121,-338.3416875918974
1122,-265.63816982800745
1123,-190.43847348099007
1124,-158.11256623952795
1125,-167.75041638759285
1126,-188.1819928020377
1127,-188.05726495021736
1128,-158.46620288758095
1129,-126.29877725527513
1130,-121.65495927775555
1131,-165.04472076037928
1132,-236.96803408702
1133,-307.54487221767704
1134,-348.93520868607993
1135,-358.38901759729015
1136,-349.85627362532796
1137,-337.4669520107691
1138,-327.1010285583634
1139,-311.55847963465385
1140,-282.50928216558714
1141,-237.07341363413252
1142,-194.15085207790253
1143,-178.0515760867729
1144,-210.14556480050305
1145,-279.41279790637236
1146,-354.6432556367836
1147,-404.64691876691904
1148,-414.5037686123487
1149,-392.67378702668066
1150,-349.4069563991834
1151,-294.96325965242613
1152,-239.54268023992518
1153,-193.345202143777
1154,-165.7308098723097
1155,-158.3894884577221
1156,-168.92122345374446
1157,-194.76600093328307
1158,-228.59380748607327
1159,-257.3846302163456
1160,-267.8084567404767
1161,-254.2552751846597
1162,-232.4250741825781
1163,-221.63784287305134
1164,-237.16357089772828
1165,-266.77224839876544
1166,-286.7838660164816
1167,-274.70841488707447
1168,-232.99588664027397
1169,-187.14627339705112
1170,-163.39956776730287
1171,-172.82576284755123
1172,-195.86485221864677
1173,-209.31682994345647
1174,-196.2516905645898
1175,-169.17942910209786
1176,-149.20004105118824
1177,-155.25352237994593
1178,-180.51986952705556
1179,-201.34907939953155
1180,-194.2911493704396
1181,-158.59607727663388
1182,-124.59386141650066
1183,-124.86450054769193
1184,-176.54799388488027
1185,-250.92434109750866
1186,-310.83354230753866
1187,-324.2755980872207
1188,-294.7105094568524
1189,-240.37827788254253
1190,-179.34890527399693
1191,-125.4223939822823
1192,-88.63874679762193
1193,-78.83796694717785
1194,-96.06005809282942
1195,-123.00502432899339
1196,-140.6428701804125
1197,-135.23360059995503
1198,-113.0872209664467
1199,-85.25373708246843
1200,-61.65315517218551
1201,-42.79548187916771
1202,-24.47072426422892
1203,-2.66888980326803
1204,21.420013614908385
1205,41.43597769072221
1206,50.81899371597501
1207,47.75905257599152
1208,39.82614475176342
1209,35.68026032206399
1210,41.23138896558703
1211,51.35951996307267
1212,58.104642199401496
1213,54.54674416572561
1214,42.54581396155663
1215,28.521839296874532
1216,18.714807494217894
1217,14.524705490759516
1218,12.581519840407054
1219,9.355236715855426
1220,5.1758419106772635
1221,7.7033208413704415
1222,25.36765854942678
1223,62.478839703369886
1224,108.07684860081645
1225,147.68166917049894
1226,168.59328497431852
1227,171.53167920935084
1228,163.366834709881
1229,150.91873394941285
1230,139.55735904268113
1231,133.4626917476471
1232,136.68471346751176
1233,149.01340525266824
1234,163.6787478027345
1235,173.35072146849052
1236,174.02930625386762
1237,171.18448181790882
1238,172.00622747672423
1239,183.28452220544568
1240,209.81934464016558
1241,255.7106730798805
1242,323.41848548842427
1243,397.0927594963887
1244,449.3934724030314
1245,453.7506011782116
1246,411.02412246426684
1247,352.17401257794154
1248,309.5702475122489
1249,299.3628029383726
1250,306.64165420754034
1251,312.9467763528919
1252,305.96814409135004
1253,294.7857318254628
1254,293.0895136452764
1255,311.85946333015454
1256,344.78555435063026
1257,378.7077598702308
1258,401.28605274730035
1259,410.64040553681116
1260,412.0407904921758
1261,410.78717956704713
1262,409.1595444171144
1263,405.997856401882
1264,399.982086586464
1265,392.83220574334155
1266,392.04818435413654
1267,405.7899926113678
1268,436.32760042020163
1269,466.93097740019766
1270,476.9600928870441
1271,452.0949159342854
1272,413.98541531504634
1273,397.00155952374735
1274,431.5033167778056
1275,505.880655019344
1276,583.8635419168877
1277,629.9319448670267
1278,631.535830996123
1279,597.8151671619562
1280,538.8099199554053
1281,467.6400557020952
1282,401.9955404640459
1283,359.9263400413165
1284,352.0624199736376
1285,371.1037455420337
1286,407.1402817704475
1287,449.86199342734835
1288,487.4388450273327
1289,507.65080083272915
1290,501.5578248551774
1291,481.649880857216
1292,468.99693235384984
1293,482.3689426141282
1294,514.2558746626855
1295,540.6776912813111
1296,538.6543550104707
1297,511.40582815087146
1298,487.0520727649655
1299,494.21305067847607
1300,537.2687234819168
1301,585.8390525320992
1302,606.9939989536233
1303,587.0335236403662
1304,553.7475872569757
1305,540.3561502403354
1306,568.3491728010376
1307,620.3366149248486
1308,670.8484363741372
1309,698.2245966893588
1310,700.3450551904552
1311,681.3597709783062
1312,646.4687029361467
1313,609.6118097309791
1314,588.8890498149776
1315,600.7103814268958
1316,639.0557625934489
1317,682.2551511306992
1318,709.0085046454515
1319,714.1957805365873
1320,708.816935996454
1321,704.4119280122122
1322,705.2107133671689
1323,705.1132486421375
1324,697.319490216747
1325,679.609394270783
1326,658.9729167854985
1327,643.5000135449045
1328,639.5906401371067
1329,648.8647519555634
1330,672.0923042003924
1331,708.1332518796426
1332,747.9775498105555
1333,780.6251526208507
1334,796.4760147499564
1335,794.220090450277
1336,775.5473337884232
1337,743.4376986464431
1338,711.881138723058
1339,700.3676075348721
1340,725.9170584175881
1341,773.7894445272032
1342,807.6647188412135
1343,792.6728341598046
1344,730.5837431070195
1345,656.3073981319394
1346,605.313751509857
1347,591.0127553434231
1348,600.5143615638062
1349,619.4485219318376
1350,638.0851880391438
1351,653.9943113092777
1352,665.3758429988393
1353,671.3497341985967
1354,672.9359358345882
1355,671.38439866923
1356,666.0050733023982
1357,651.007910172526
1358,619.7328595576764
1359,570.7398715766212
1360,520.9588961898917
1361,491.3798832008597
1362,496.2427822567679
1363,518.7975428497721
1364,533.3541143180009
1365,519.5124458465634
1366,488.6324864685739
1367,463.8141850661814
1368,464.7974903715585
1369,485.0323509679256
1370,505.6787152905272
1371,509.80653162762246
1372,500.95574812148334
1373,494.56631276933695
1374,504.7181734243677
1375,525.2512777966513
1376,535.5555734541249
1377,516.0910078235265
1378,472.5875281913377
1379,432.56508170471534
1380,423.34361537241966
1381,448.5930760657375
1382,487.4434105193959
1383,518.2045653324567
1384,531.3464869692398
1385,532.319121760198
1386,527.5324159028187
1387,523.5863154624967
1388,527.4707663734007
1389,546.0057144393668
1390,575.1511053347422
1391,592.126884605239
1392,572.4029976687943
1393,509.2493898164139
1394,431.4960062129867
1395,372.17279189815963
1396,354.6896917871163
1397,379.9566506714182
1398,445.7036132198227
1399,541.3105239790766
1400,633.7973273747211
1401,686.4439677118844
1402,679.7303891760785
1403,647.1465358339719
1404,632.4123516341697
1405,663.1277804079964
1406,710.2427658702345
1407,732.2472516199068
1408,700.5211811410245
1409,637.8144978033379
1410,579.5971448630644
1411,555.5590654636471
1412,569.5202026364641
1413,618.070499301577
1414,693.759898268434
1415,769.0983422365898
1416,810.4057737964176
1417,792.7621354298117
1418,739.0673695108871
1419,688.3614183066784
1420,672.9442239778073
1421,685.0257285792013
1422,702.1358740607357
1423,704.8346022679343
1424,693.6418549426253
1425,676.9175737235983
1426,662.2017001472777
1427,651.1941756483684
1428,643.1549415605041
1429,638.1839391168869
1430,642.5311094509398
1431,665.1663935969282
1432,712.2997324905882
1433,768.7110669697704
1434,809.280337775037
1435,813.447485550294
1436,797.3524508433966
1437,794.6851741067567
1438,833.4655956979459
1439,894.2936558802994
1440,934.5192948235053
1441,918.4424526041876
1442,870.473069206515
1443,844.9410845227576
1444,888.2864383538745
1445,977.9790704101015
1446,1056.8789203115011
1447,1074.9259275885324
1448,1044.8000316826347
1449,1010.671171946753
1450,1010.4792876459214
1451,1027.8643179577994
1452,1019.4062019732228
1453,949.7048786967553
1454,850.7102870472154
1455,787.3023658582297
1456,813.0910538787593
1457,890.18628977363
1458,937.1180121240577
1459,885.7161594281861
1460,771.480670101595
1461,677.5714824778224
1462,674.1085348088764
1463,734.941765265763
1464,791.5411119389773
1465,785.0565128390263
1466,724.0879058969185
1467,645.3552289646705
1468,581.7684198158222
1469,541.1374161459044
1470,521.4921555729543
1471,517.9125756380035
1472,508.4186138055629
1473,464.84020746410897
1474,369.3172939265787
1475,259.9498104308386
1476,193.59769414017865
1477,211.83088214377312
1478,280.9693114571837
1479,344.2729190228147
1480,356.22164171038094
1481,320.9454163174087
1482,256.3141795696647
1483,181.76786812166756
1484,122.86641855711969
1485,106.70976738938407
1486,145.18785106196265
1487,196.89060594893635
1488,208.72796835544068
1489,149.91987451811474
1490,58.2362606055849
1491,-15.372937281119448
1492,-37.21778310806076
1493,-19.86834090796947
1494,16.40532522021749
1495,53.95315111182754
1496,81.26507253688033
1497,87.74102520056476
1498,70.72094474368168
1499,43.47476674310383
1500,21.122426712214292
1501,10.943860101369864
1502,6.739002298354535
1503,1.0377886288224545
1504,-9.099845643235312
1505,-19.943965315060268
1506,-27.34463524464809
1507,-30.621920350327855
1508,-33.52588561026823
1509,-39.966596062065946
1510,-51.69411680226767
1511,-68.1385129859209
1512,-88.24984982611568
1513,-104.18819259354314
1514,-102.11360661601611
1515,-69.46615727804237
1516,-14.805910020324518
1517,37.807069660651905
1518,65.51271621311389
1519,62.01096403044721
1520,30.95174745166696
1521,-21.844999238126547
1522,-74.27934180727607
1523,-96.25134607710243
1524,-65.45107792143244
1525,-9.198603266133432
1526,25.80601191137066
1527,3.5227015825585113
1528,-59.66860033170269
1529,-131.3379599606833
1530,-183.89544348330128
1531,-208.12111712764454
1532,-199.12504717049887
1533,-159.2772999368317
1534,-111.9779417993268
1535,-84.35703917787214
1536,-88.13465853908383
1537,-100.62086639579502
1538,-94.67572930654569
1539,-62.4293138751018
1540,-29.061686749922956
1541,-22.532914623674515
1542,-49.13306423268841
1543,-86.61220235646579
1544,-111.29039581714824
1545,-112.70771147898995
1546,-93.90421624783812
1547,-59.1699770705909
1548,-23.165060934668873
1549,-8.519534867464245
1550,-34.263465935813656
1551,-80.1469212454449
1552,-103.1599679404062
1553,-68.19267320252948
1554,1.824895749134157
1555,59.09267165888741
1556,65.18058723494323
1557,28.898575150024044
1558,-26.32343195808062
1559,-78.36550148591596
1560,-109.75770086378543
1561,-104.0800975551374
1562,-59.59275905597133
1563,-10.79575289424065
1564,2.5208533707682363
1565,-34.603007850948416
1566,-93.29740417949324
1567,-140.67240326443243
1568,-162.00807278416323
1569,-165.52448044527773
1570,-160.88169398191894
1571,-156.8697811551101
1572,-161.5188097521168
1573,-181.16884758577544
1574,-203.09996249380674
1575,-202.30222233815766
1576,-158.95569500430975
1577,-92.82044840057097
1578,-41.276550457399935
1579,-32.75406912668586
1580,-52.063072381035454
1581,-70.94362821306458
1582,-70.1158046346427
1583,-58.83966967618653
1584,-51.99529138590151
1585,-56.092737829036196
1586,-60.042077087113285
1587,-50.733377257169195
1588,-24.556706450990532
1589,8.577867205696748
1590,37.89027557399095
1591,56.78045050262881
1592,62.678323828802604
1593,53.81382737895183
1594,35.9168929696134
1595,19.59745240825032
1596,14.785437494083453
1597,26.130780018964288
1598,56.04341176822345
1599,103.10326452154914
1600,149.35027005385928
1601,172.4143601362066
1602,161.0954665366662
1603,134.0335210212579
1604,114.668455354853
1605,114.46020130211582
1606,124.51869062843798
1607,134.32385510089443
1608,143.53562648920342
1609,163.05393656669366
1610,202.69871711129235
1611,251.1798999065195
1612,282.23741674248595
1613,274.7811994169151
1614,247.52117973616805
1615,236.8272895162827
1616,267.4494605840191
1617,314.24762477791955
1618,338.86171394939447
1619,322.9816599637834
1620,299.07739470148044
1621,307.02885005902135
1622,355.575957950201
1623,405.5086503072289
1624,415.3868590818638
1625,383.7905162465522
1626,347.3595537956335
1627,341.2939037464985
1628,370.56349814080204
1629,422.5082690456529
1630,485.56814855485754
1631,555.5030687901417
1632,630.622961902418
1633,704.577760073018
1634,756.6173955150061
1635,763.4718004744445
1636,727.6509072317058
1637,697.9246481028003
1638,725.9329554406977
1639,811.8557616366816
1640,901.0629991217047
1641,941.4246003677781
1642,939.4604978893585
1643,938.6406242447465
1644,974.7349120375184
1645,1035.7832939179607
1646,1092.7057025845243
1647,1125.0620707852959
1648,1139.4423313194602
1649,1147.5364170388348
1650,1151.154260849362
1651,1134.9957957126462
1652,1083.3709546474965
1653,1011.0996707315044
1654,963.1618771026097
1655,979.3075069607094
1656,1035.2964935692635
1657,1070.9987702569306
1658,1038.6442704192177
1659,953.1829275201362
1660,848.6046750938985
1661,755.6794467466061
1662,696.8571761579733
1663,692.7477970830587
1664,736.1212433540295
1665,781.3974488819131
1666,783.5263476584114
1667,748.0978737576934
1668,719.4819613382115
1669,735.2585446445773
1670,780.2575580094017
1671,817.5989358551851
1672,817.7826126962118
1673,776.4185231404954
1674,694.4866018916873
1675,587.136783751057
1676,493.9290036194743
1677,454.67319649939236
1678,465.0692974968824
1679,480.1272418236713
1680,458.356964799199
1681,399.94840185269095
1682,325.4294885252766
1683,255.1321604721088
1684,208.0593534644886
1685,202.74400339205022
1686,236.72804626492507
1687,267.50641821597856
1688,250.0170555030163
1689,184.93089451102605
1690,118.23887175447453
1691,91.63292387958245
1692,92.58898766665516
1693,80.95700003239472
1694,29.464898032294514
1695,-37.60438113701093
1696,-83.49090013530986
1697,-91.87572147640276
1698,-84.85090752565156
1699,-87.49152049748955
1700,-97.87362245294389
1701,-88.50027529709223
1702,-36.7435407765297
1703,33.545519523207986
1704,76.56784418022653
1705,62.87237193890178
1706,20.675041712527673
1707,-9.542207414031509
1708,-11.589436181646306
1709,-9.157705154195355
1710,-28.152074715835624
1711,-69.85360506822326
1712,-115.61335622773731
1713,-147.69838802264894
1714,-157.8747600902825
1715,-141.55853187414868
1716,-102.06776262104177
1717,-64.305511378132
1718,-56.24783699000545
1719,-82.03179809568974
1720,-115.23845312565936
1721,-129.31486029880944
1722,-118.41407761939809
1723,-89.39416287395034
1724,-52.451173628180186
1725,-31.577167223817014
1726,-54.3692007754762
1727,-121.28533116743529
1728,-180.6126150504315
1729,-177.97010883841904
1730,-122.64086870526808
1731,-80.988950581479
1732,-108.55641015083893
1733,-174.65730284707206
1734,-213.35768385041956
1735,-186.3786080842474
1736,-132.03313021157192
1737,-100.72330463160142
1738,-107.29418547621026
1739,-123.01782660639219
1740,-119.91528160871349
1741,-103.1076037916846
1742,-96.1728461821549
1743,-114.95206152162609
1744,-145.56630226257766
1745,-167.3796205647359
1746,-172.51506829131722
1747,-173.22269700524157
1748,-182.28255796532176
1749,-195.8007021224057
1750,-198.1471801154894
1751,-177.69804226782435
1752,-143.08333858294463
1753,-108.92011874071068
1754,-87.131432093287
1755,-84.455327661095
1756,-106.18185412874664
1757,-142.74705984092725
1758,-172.2339927982448
1759,-177.52370065307878
1760,-170.78223070533204
1761,-174.31462989822285
1762,-192.84394481396885
1763,-192.68022166951232
1764,-137.82050631214406
1765,-48.902844215128425
1766,1.1217195267036004
1767,-45.32985979857585
1768,-137.70862651552125
1769,-184.19062455677158
1770,-140.4578974585147
1771,-73.48648835587665
1772,-62.92743997828984
1773,-116.80479464484051
1774,-174.11359425955743
1775,-181.49288030665957
1776,-152.7986938458107
1777,-128.14707550727508
1778,-127.80106548709045
1779,-125.35870354216058
1780,-89.54402898534681
1781,-27.864080680497864
1782,15.515102962552191
1783,4.560483993020171
1784,-38.21597507574916
1785,-68.40031126116446
1786,-61.188561106235284
1787,-34.98376067438403
1788,-13.485945544201968
1789,-11.840150804198856
1790,-37.72441104745667
1791,-91.38876036631518
1792,-134.4402323469676
1793,-115.82386006401612
1794,-31.25067607503115
1795,33.300287584994294
1796,-10.231000590831172
1797,-127.35457157569545
1798,-190.70745580343646
1799,-110.65068316289035
1800,22.48571700784305
