800,141.33822864806461
801,118.34568605030199
802,90.49045027581451
803,63.22473624726172
804,42.63175872647571
805,34.797732304745296
806,43.16587139321655
807,62.043390213349994
808,83.76850278747224
809,100.78142292941538
810,108.97636423523545
811,108.56554007401246
812,100.04116357873954
813,84.51244763728755
814,67.9736048834593
815,58.70884768811902
816,64.99338815040937
817,88.51443808904241
818,114.26120903367882
819,124.6269122163867
820,103.15575856317264
821,56.18095868560522
822,11.036722872507198
823,-4.168738918264353
824,30.834782932026428
825,95.41949769494659
826,155.6306142868816
827,177.79434126114938
828,149.3078868001494
829,93.8254587076126
830,38.565264400925116
831,8.802510903527946
832,8.503404837383641
833,28.432152415531164
834,59.15795943471221
835,92.10903126806988
836,121.46057285792813
837,141.94278870863764
838,148.44288287950258
839,140.00705897778425
840,120.21752015176753
841,92.88446908390779
842,61.88810798405029
843,31.53363858272951
844,6.281262124513887
845,-9.417820638532248
846,-12.151409453365886
847,-0.4363045723657706
848,26.997693240303306
849,70.51378270241912
850,119.99416200749238
851,158.65502881862722
852,169.60758026245458
853,143.7150129231286
854,96.30452283640443
855,47.512305483767705
856,16.902555786652556
857,10.439468100710656
858,20.17923621015325
859,37.55005332217206
860,54.915112061407854
861,69.5576044645004
862,80.3897219747032
863,86.34265543655602
864,87.42759509064126
865,85.38173056837604
866,82.0902508869085
867,79.22534444404027
868,76.615199013253
869,73.12800173875894
870,67.6339391306492
871,61.06619706008314
872,59.323960754559266
873,69.03141479323676
874,95.91674310232065
875,132.46212895051758
876,161.03575494455163
877,163.7548030247326
878,131.06645446059974
879,83.3398898466221
880,47.67128909794883
881,50.14983144623966
882,90.66469543554558
883,140.9030589182521
884,171.15309905106824
885,159.12399229110906
886,121.28891439200015
887,86.743040400067
888,84.15254465056569
889,119.5536007639912
890,165.78038164242662
891,193.01505946595353
892,176.2568056891314
893,126.09279103752033
894,69.06518550427063
895,31.693158346759446
896,28.37287808329802
897,49.9095124898804
898,84.38322859699292
899,120.3981926864908
900,151.81957028850957
901,175.60852617844557
902,188.76922437398753
903,190.81882813220545
904,187.58449994668445
905,185.8714015447258
906,191.8706938845935
907,203.14453715280797
908,210.90009076150636
909,206.20151334585444
910,185.0059627614928
911,158.71659608206028
912,141.78356959674875
913,147.7570388079257
914,173.2991584287929
915,200.05108238110643
916,209.12596379294882
917,188.2029549965455
918,150.15420752612863
919,113.89687211586079
920,97.84009869780402
921,107.76203639993582
922,136.33283354421565
923,175.61363764469752
924,217.1235954057047
925,249.93785272003515
926,262.44755466721654
927,243.4828455118286
928,195.6968687018425
929,137.94876686704083
930,90.02068181745835
931,67.7487545418735
932,66.90412520636619
933,76.90893315289304
934,87.33431689793088
935,93.77441413115048
936,99.53536171415271
937,108.43129567922642
938,122.59035122817932
939,134.83266273118443
940,134.77936372569002
941,112.34858691537465
942,70.42446416912662
943,29.48612652009342
944,11.265704164747149
945,32.09232646201963
946,76.91112193245772
947,119.38821825743526
948,133.540742278401
949,110.5768199961667
950,65.60457657024563
951,15.504136318221754
952,-24.633377284830203
953,-50.18884160689595
954,-60.34713485951306
955,-54.38913609824522
956,-35.7817252231016
957,-13.764782978911171
958,1.994809044316753
959,4.127168411104321
960,-1.6215881597618136
961,-4.8643447954664225
962,4.538013530655007
963,26.357600998966518
964,46.5985309434227
965,50.30791585149018
966,26.757867364115555
967,-12.149503724274837
968,-46.968087465731514
969,-58.67377475871308
970,-43.381457347966716
971,-15.958027824380224
972,7.553620375194441
973,14.276592968172736
974,6.681994826488335
975,-8.102070023112901
976,-23.130498398752934
977,-36.75318796304782
978,-53.242037222717045
979,-77.188945528158
980,-110.95381307297794
981,-147.40854089348704
982,-176.90803086817323
983,-190.17818571713815
984,-186.5579090014944
985,-173.85510512272958
986,-160.23467932205222
987,-151.94353767968096
988,-148.30058711412403
989,-147.06473538141654
990,-145.94489107432037
991,-141.74996362150796
992,-130.5378632867023
993,-108.34750116778469
994,-75.0847891958847
995,-42.09664013442398
996,-22.834967578141004
997,-29.578685952080377
998,-59.43071051055267
999,-98.97195733606804
1000,-134.5773433382301
1001,-156.82578625261885
1002,-166.2222046396273
1003,-164.70251788326732
1004,-154.20464618997903
1005,-136.82951058736307
1006,-115.75303292292301
1007,-94.60213586276313
1008,-76.98174289026701
1009,-65.34977830473508
1010,-60.52016722000644
1011,-63.181835563058485
1012,-73.60671007256042
1013,-89.8237182974226
1014,-109.10378859529828
1015,-128.7008501310811
1016,-145.54483287535732
1017,-156.1766676028401
1018,-157.11928589078525
1019,-146.13962011737112
1020,-126.28060346005623
1021,-101.9831698939106
1022,-77.6362541899407
1023,-56.57179191335126
1024,-41.14071942183
1025,-33.658973863761275
1026,-34.3744931764586
1027,-37.02521608434563
1028,-34.068082097123806
1029,-18.719031507916043
1030,5.797994608617046
1031,29.236054398168562
1032,41.22020522872117
1033,36.17650369248622
1034,19.448005607883715
1035,-2.1142339784828437
1036,-21.734160789803354
1037,-33.352721317029136
1038,-31.272862816814268
1039,-9.922533309451865
1040,27.739318423243276
1041,65.12074284002574
1042,84.39978964238344
1043,72.17850777667809
1044,39.70894543633585
1045,6.748150064027868
1046,-7.456831646088176
1047,1.6980462538449501
1048,22.772828967657006
1049,43.49756095741941
1050,54.305285945733885
1051,55.1930469180561
1052,48.264886125016346
1053,35.75784508477409
1054,21.704964585386733
1055,11.448284687184241
1056,10.344844725183975
1057,20.347683311505534
1058,35.96883833780521
1059,50.72934697773508
1060,59.078245689408504
1061,62.46357021789299
1062,65.51635559771148
1063,72.79963615536144
1064,85.31244551185682
1065,99.24881658527374
1066,110.45978159331935
1067,115.54437205591967
1068,114.21261879781832
1069,106.99955195117946
1070,94.80420095823047
1071,84.35759457390213
1072,87.111760868479
1073,114.61572723027894
1074,167.63752036834285
1075,221.77616631512228
1076,249.02869042920884
1077,226.24111739805448
1078,167.28347124071297
1079,103.07777531059764
1080,64.12905229824446
1081,60.248324234103166
1082,74.39361249131798
1083,87.71793778854044
1084,86.56632019275094
1085,77.18677912208204
1086,70.59733334866905
1087,76.95800100149518
1088,94.94779956926686
1089,115.11974590328828
1090,127.87685622034951
1091,127.6331461056252
1092,116.5266305155892
1093,97.57632378093604
1094,73.88623960951008
1095,49.0413910892521
1096,26.803790691154973
1097,10.682450272214737
1098,-1.5816189215793202
1099,-17.927406252271794
1100,-46.528901686944664
1101,-88.86809579472356
1102,-128.59397974375224
1103,-146.4075452981815
1104,-126.7387848151402
1105,-84.15969124169078
1106,-47.819258111792806
1107,-46.25947954323328
1108,-81.9763502345777
1109,-124.70186546209243
1110,-142.05502107666052
1111,-113.56581350070337
1112,-59.21523972508112
1113,-7.569297305992222
1114,15.064015638141427
1115,5.807700429782017
1116,-24.450242164592055
1117,-64.62481193136409
1118,-103.0880092066327
1119,-127.41483487307414
1120,-125.10629035679176
1121,-90.87137762416023
1122,-47.84309917866176
1123,-26.179458057720694
1124,-52.694457829523344
1125,-114.48410258985041
1126,-172.70339695888106
1127,-188.48434607801119
1128,-152.63495560665342
1129,-103.26323171903641
1130,-82.73918110100658
1131,-119.97881094681543
1132,-187.9071289559015
1133,-244.89814332967944
1134,-252.70586276831273
1135,-214.51729646748936
1136,-161.0854541151939
1137,-123.4003458884672
1138,-114.59398245017474
1139,-119.60537494576238
1140,-120.87353500001427
1141,-106.90747471380473
1142,-90.38320666084383
1143,-89.98674388443123
1144,-122.08809989419842
1145,-177.20328866284126
1146,-229.77532462287127
1147,-254.31222266334407
1148,-241.3959981265998
1149,-204.65966680498423
1150,-159.53224493759717
1151,-119.63174920700385
1152,-92.28619673597314
1153,-83.47660508420086
1154,-97.87199224502729
1155,-128.21237664217188
1156,-160.88577712644474
1157,-182.44121297247784
1158,-187.00370387543535
1159,-177.76226994774333
1160,-158.4539317157978
1161,-133.7447101166972
1162,-110.84462649494708
1163,-97.40570259918786
1164,-99.29096057891184
1165,-110.24042298117911
1166,-118.94611274733961
1167,-114.71105320974948
1168,-99.46326808849426
1169,-86.80278148810339
1170,-90.71461789428304
1171,-116.92880217062248
1172,-154.59035955533454
1173,-190.843315657964
1174,-214.25669645612652
1175,-220.07252829222398
1176,-205.4768378701865
1177,-168.83665225219102
1178,-122.49699885539758
1179,-87.93290544868614
1180,-86.36440014938762
1181,-120.30051142002958
1182,-166.61726806506704
1183,-200.32469922763357
1184,-204.83783438628052
1185,-188.5067033517289
1186,-164.28333626362382
1187,-143.37576358727893
1188,-125.05701611043605
1189,-103.62412494003365
1190,-73.86712149895902
1191,-39.81803752281667
1192,-13.534905056701973
1193,-7.239756451973335
1194,-22.720624363026218
1195,-43.37754174407837
1196,-50.719541845950516
1197,-33.57065821285778
1198,-8.267924679200405
1199,2.363624633636391
1200,-20.56504467951254
1201,-62.65896730441
1202,-92.80617820421503
1203,-81.12671261630203
1204,-29.404606049086397
1205,29.017105721163716
1206,59.55938665348276
1207,46.63420044538179
1208,11.882510536011068
1209,-18.721719890697386
1210,-25.847527902866204
1211,-17.11895081754028
1212,-6.984026197538697
1213,-8.383791848335932
1214,-20.988285814917617
1215,-37.60854637867578
1216,-51.11761205428593
1217,-57.31252158659845
1218,-54.878313947540846
1219,-42.64502833301776
1220,-22.0537041598227
1221,0.5836189374440437
1222,18.41990110945335
1223,26.339102295217344
1224,25.645182225149256
1225,19.12110042412405
1226,9.632816214520972
1227,0.694288719270844
1228,-3.886523135102834
1229,-0.4996606154782057
1230,11.018834820910342
1231,27.915921529468505
1232,47.32055768125156
1233,65.13770126596773
1234,75.4033100949564
1235,71.989341804182
1236,53.643753857199044
1237,33.03650354812089
1238,25.321548004581018
1239,42.74384419067883
1240,81.46234890992218
1241,132.11301880816336
1242,185.2998103765176
1243,231.44167995428506
1244,260.8325837318589
1245,264.1774777536175
1246,243.7103179208234
1247,214.32805999449556
1248,191.53665959829232
1249,184.90607222136714
1250,192.61525322122452
1251,211.56215782656636
1252,237.95874114012713
1253,265.70395814150197
1254,288.1887636899628
1255,299.39111252726343
1256,297.09395928044614
1257,280.5702584646233
1258,250.05196448575225
1259,217.6430316434171
1260,203.54641413357876
1261,227.27006605132647
1262,283.0869413936143
1263,336.5499940619975
1264,351.83817786534746
1265,316.2014465225584
1266,260.74975366525086
1267,221.51605284045672
1268,222.79129751329765
1269,250.59544106965313
1270,283.1534368188177
1271,301.55523799614366
1272,303.20679776568704
1273,291.28606922281415
1274,269.42300539683674
1275,245.78955925359605
1276,231.2346836980687
1277,236.12733157694038
1278,259.90245568117825
1279,291.6900087485883
1280,320.2719434663659
1281,338.5702124736308
1282,345.6887683639461
1283,341.23856368784527
1284,325.7955509553203
1285,302.23368263832253
1286,273.7709111732356
1287,245.47218896334653
1288,229.67446838129854
1289,240.5057017715353
1290,287.1938414527385
1291,347.00583972024106
1292,384.41164884843965
1293,368.0012210931882
1294,313.06050869418505
1295,264.103463877349
1296,264.3150388571685
1297,318.6591858390602
1298,395.7498570216985
1299,463.0340045993462
1300,502.4275807641552
1301,516.5405377084771
1302,509.5798276271371
1303,486.76640271972155
1304,455.5202151928279
1305,423.5532172623198
1306,397.71036115556217
1307,381.9675991136437
1308,379.7068833935855
1309,392.10016627054483
1310,409.0134000400012
1311,416.6835370199151
1312,403.8765295529065
1313,379.58133000838643
1314,362.49089078470024
1315,369.48216431124365
1316,392.9071030505702
1317,407.9946595004876
1318,390.79178619613504
1319,344.3064357120611
1320,298.37856066426593
1321,283.51811371224903
1322,306.2810475610422
1323,339.51731496321554
1324,353.6478687208846
1325,335.2436616876994
1326,303.0306467708124
1327,279.5527769328519
1328,279.0290051938546
1329,292.06228463321895
1330,305.07456839160386
1331,306.77480967285373
1332,295.1759617458847
1333,270.67097794656274
1334,232.51581167957556
1335,173.3934164202783
1336,83.58874571653814
1337,-43.997246809442004
1338,-194.4206074593185
1339,-341.65238245679757
1340,-460.5596179458671
1341,-538.4163599890153
1342,-570.9346545654762
1343,-554.5255475694958
1344,-496.03808480859607
1345,-411.77731200186645
1346,-318.218274778259
1347,-225.72301867490933
1348,-137.37658913546147
1349,-55.81903150840844
1350,17.61960895455104
1351,83.64828710013535
1352,143.15495787510008
1353,196.08457632784484
1354,240.47609760998785
1355,274.1284769779486
1356,295.5976697945025
1357,305.46463153032073
1358,304.64631776551414
1359,294.57168419112804
1360,278.4616866106635
1361,259.9272809415552
1362,242.5864232166432
1363,230.05506958563547
1364,225.9461763165491
1365,232.47469979714333
1366,243.4945965363322
1367,249.75582316558666
1368,243.30533644032494
1369,226.30609324127727
1370,205.6630505758494
1371,187.98716557947228
1372,176.58339551691188
1373,172.82869778360782
1374,177.76802990695887
1375,188.22434954760956
1376,198.0066145007322
1377,201.13678269727006
1378,196.53281220519148
1379,187.36066123071123
1380,177.02028811950822
1381,171.24265135792666
1382,178.16970957415015
1383,205.70342153938964
1384,249.14574616902155
1385,288.2506425237443
1386,302.0560698106956
1387,283.1489873845694
1388,243.90035474871547
1389,198.24913155621743
1390,160.0292776109718
1391,142.88975286873483
1392,160.36751743815967
1393,212.29653158183828
1394,271.0847557172983
1395,305.89815041800557
1396,300.5096764143491
1397,272.65829459460565
1398,244.9059660058947
1399,232.649651855123
1400,231.9973135099017
1401,235.8569124994665
1402,237.84141051556526
1403,233.75976941334557
1404,219.83895121222486
1405,196.24191809674176
1406,176.9736324173864
1407,179.08205669144172
1408,212.08315360378674
1409,255.53488600769106
1410,281.5442169255948
1411,271.0911095498859
1412,244.6715272436486
1413,233.78343354139997
1414,261.3287921498222
1415,307.7195669484663
1416,340.2657219904586
1417,333.849221503172
1418,304.60102988890867
1419,282.5841117255395
1420,292.44043176715786
1421,326.4789549447014
1422,365.1526463665614
1423,391.43847131918574
1424,404.68539526766654
1425,410.69338385629817
1426,415.4554029091496
1427,426.1624184305974
1428,450.5053966058622
1429,494.3683038015106
1430,550.3981065659736
1431,605.3937716300206
1432,647.6972659072426
1433,677.7475564945025
1434,701.5656106723936
1435,724.7283959056595
1436,748.9928798436231
1437,774.2930303205849
1438,800.2818153562212
1439,824.3762031559563
1440,842.9001621113339
1441,852.0986608003559
1442,847.65366798784
1443,824.966152625725
1444,781.9550838533887
1445,737.8584309979497
1446,722.6371635745454
1447,760.8842512866122
1448,830.9946640261269
1449,888.142371873867
1450,893.105345099636
1451,855.1655541624796
1452,807.753969710896
1453,780.590562583021
1454,771.3693038068168
1455,762.1381646002283
1456,736.8671163713443
1457,695.7361307185292
1458,646.6471794305617
1459,596.9942344867404
1460,549.9132680569874
1461,506.5862525019438
1462,468.44416037303745
1463,438.76296441255363
1464,421.6416375536828
1465,419.953152920566
1466,428.2174838283081
1467,437.4756037830075
1468,439.20948648174635
1469,427.84610581258767
1470,398.9564358545458
1471,350.44545087755796
1472,293.9191253424333
1473,245.97443390079297
1474,220.28735139499986
1475,214.69585285807898
1476,221.71491351361328
1477,232.7825087756446
1478,234.10161424855232
1479,210.26120572692344
1480,153.09425919540354
1481,86.49475082855406
1482,43.22465699067561
1483,45.22095423563678
1484,71.58361930668525
1485,90.82562913624315
1486,81.40596084570188
1487,56.63359174519246
1488,37.442499333355954
1489,38.763661297096405
1490,57.02105551132354
1491,85.09466003868783
1492,115.93945312930009
1493,142.7164132204416
1494,158.62851893626248
1495,158.94274908747866
1496,143.74608267103577
1497,113.83549886978562
1498,73.75897705215084
1499,35.59049677174971
1500,12.227037767053844
1501,9.223579960997995
1502,19.46510346060586
1503,34.66158855658796
1504,51.12001572294048
1505,71.92836561652348
1506,100.40961907664769
1507,128.6077571246251
1508,134.47776096333473
1509,96.32061197675466
1510,24.623291729511948
1511,-36.15521803359843
1512,-42.341935388102684
1513,4.054121769665471
1514,60.63793572205486
1515,86.35348892959428
1516,78.78576403045736
1517,63.849743839943585
1518,65.45341134993123
1519,79.01574972832987
1520,82.79274231852378
1521,58.61037263880098
1522,19.47362438178152
1523,-6.383518586168975
1524,2.6069277744654755
1525,25.07294767575513
1526,22.905525501705597
1527,-32.347354192351304
1528,-121.53970668039165
1529,-210.95454706633154
1530,-278.02289028467203
1531,-342.43475110114923
1532,-433.86014411339056
1533,-564.5510837515949
1534,-696.1445842791845
1535,-781.1926597935153
1536,-790.8223242265412
1537,-737.6485913455344
1538,-639.9214747537726
1539,-517.0569878912629
1540,-390.4511440354572
1541,-281.4479563019786
1542,-200.528437645361
1543,-143.79560085978028
1544,-106.336458579809
1545,-82.61102328117158
1546,-66.4363072815022
1547,-51.968322741116936
1548,-38.95708166378063
1549,-31.488595897492814
1550,-33.05987713527884
1551,-40.12393691597208
1552,-45.03878662502393
1553,-41.19243749530415
1554,-29.640900607906588
1555,-14.730186892978963
1556,-0.8723071305375925
1557,7.275728048711244
1558,4.970908162521482
1559,-9.332777123719097
1560,-25.989337997837538
1561,-32.918784501725895
1562,-24.71312653219229
1563,-12.478373841822759
1564,-9.759536039848172
1565,-22.488622593005857
1566,-43.16864282642473
1567,-63.05460592448799
1568,-78.04352093173202
1569,-89.9053967537211
1570,-100.62424215794272
1571,-109.01906577470345
1572,-111.03687609803183
1573,-103.33068148657003
1574,-91.90149016449413
1575,-88.76631022241327
1576,-103.16314961828994
1577,-123.21801617835627
1578,-127.6339175980329
1579,-101.12386144285574
1580,-57.56985514939697
1581,-19.61590602620163
1582,-1.906021254717416
1583,6.328792109770802
1584,20.804527137202967
1585,45.322177021805146
1586,58.58073508114194
1587,36.61619475517273
1588,-18.97645039468898
1589,-70.28220668653194
1590,-78.33808031889475
1591,-42.20007737172182
1592,2.4547961926919015
1593,20.877534528731303
1594,7.021131906513801
1595,-26.58441728906928
1596,-66.54711855931964
1597,-95.74397729268094
1598,-95.45799876571346
1599,-55.07818814404436
1600,1.1284495166637498
1601,39.54790926974965
1602,40.328186276589804
1603,20.486275805639707
1604,2.9831732314623878
1605,-1.9101259662302255
1606,-5.491626203540363
1607,-20.49133179335422
1608,-41.11724694629629
1609,-41.277375771697734
1610,3.1782777214457383
1611,76.93970962350977
1612,136.86091612328255
1613,146.52589350700782
1614,123.07163815743024
1615,107.3341465528265
1616,127.92541526606692
1617,160.81144096365279
1618,167.96822040476764
1619,132.29875044032997
1620,89.59802801204023
1621,83.35505015144372
1622,123.08681397898272
1623,166.03931670305883
1624,167.1275556190958
1625,127.07552810860125
1626,90.19323163823901
1627,97.67166375889883
1628,140.85882210477303
1629,182.06670439243135
1630,190.56230841990418
1631,176.18763206576295
1632,162.7136732882227
1633,166.20243012421633
1634,178.66790068850696
1635,187.54708317277982
1636,188.9879758447496
1637,194.74857704727674
1638,217.57888519747303
1639,253.26389878582995
1640,279.5376163753335
1641,275.92903660060165
1642,252.35315816702223
1643,237.8519798498819
1644,255.6525004935229
1645,293.54971901048793
1646,326.6456343806849
1647,338.579245650546
1648,339.65755193219684
1649,345.28555240263904
1650,363.77224630292403
1651,391.1496329373549
1652,422.2557116726721
1653,452.65348193726004
1654,478.625943220366
1655,495.71609507130233
1656,492.1139370986939
1657,451.86646896968705
1658,368.09669040920835
1659,278.3836011992089
1660,233.79320117792213
1661,257.1924902391247
1662,299.8004683314193
1663,302.58713545750743
1664,252.25649167349002
1665,198.6885370881646
1666,192.86227186233464
1667,232.34869620812515
1668,273.82381038832045
1669,279.18361471569096
1670,252.80410955235584
1671,216.55129530912382
1672,186.90617244487476
1673,162.11474146593173
1674,136.67100292545638
1675,108.40695742283515
1676,80.91460560310861
1677,58.28994815637543
1678,43.2429858172427
1679,37.204719364251105
1680,40.568149619346514
1681,45.69227744733871
1682,41.001103755384975
1683,19.101629492478423
1684,-11.13214435104328
1685,-36.92521674398995
1686,-50.82358661477974
1687,-55.544252851907004
1688,-54.905214304379115
1689,-51.577469782158914
1690,-47.101018056570865
1691,-42.76285786071821
1692,-38.09098788986921
1693,-31.708406801831188
1694,-24.698113217322316
1695,-27.795105720316315
1696,-53.99738285837702
1697,-103.0359431429797
1698,-149.73978504981733
1699,-167.30190701909123
1700,-153.14830745578365
1701,-127.66598472992155
1702,-110.13393717681629
1703,-103.7831630972978
1704,-104.27966075792574
1705,-108.30642839117809
1706,-116.28746419564413
1707,-129.3837663361819
1708,-143.3303329440596
1709,-144.9801621170991
1710,-121.70925191977585
1711,-83.09260038331922
1712,-56.6602055057956
1713,-64.06606525216102
1714,-86.83417755430946
1715,-91.02054031109219
1716,-60.16515138833074
1717,-25.8450086187986
1718,-26.937109802192936
1719,-68.06645270508761
1720,-109.98603506085783
1721,-114.67585456959569
1722,-89.43990889800625
1723,-69.39319567927396
1724,-80.3867125129209
1725,-105.52545696463221
1726,-116.27842656607936
1727,-100.68161881470405
1728,-78.660031173491
1729,-72.68466107072254
1730,-84.26250589970186
1731,-96.10056301846544
1732,-92.54682974947355
1733,-73.53430337926238
1734,-45.36298115809859
1735,-15.688860299598673
1736,4.179062019678895
1737,2.7087886606477696
1738,-17.23467747784889
1739,-35.15233345857632
1740,-31.850176305412788
1741,-11.301203002833972
1742,9.605589504632917
1743,17.599204312960865
1744,13.521644559219567
1745,1.4909134221870772
1746,-16.03298587701829
1747,-39.191050074271516
1748,-67.59327586175641
1749,-90.85365988726153
1750,-91.54419875343046
1751,-59.50588901701394
1752,-19.818727188068806
1753,-7.826709729156391
1754,-34.46883305449228
1755,-63.962093529088634
1756,-57.916487467856314
1757,-24.01901113468557
1758,-8.303660741498788
1759,-46.36243244727848
1760,-108.1923223570675
1761,-140.99732652092644
1762,-118.0444409328984
1763,-69.6466615299023
1764,-32.75698419062974
1765,-25.3434047344017
1766,-47.843918919994394
1767,-96.3785224444373
1768,-144.42121094178856
1769,-156.82097998186782
1770,-120.23882506897553
1771,-72.36974164056483
1772,-56.44272506589823
1773,-76.43577064466535
1774,-98.51487360556803
1775,-93.0620291048881
1776,-67.5182322250057
1777,-43.806477972895664
1778,-34.85276127859652
1779,-32.39407699363619
1780,-25.63841988944023
1781,-14.437784655690848
1782,-8.712165898661624
1783,-16.52255813953343
1784,-32.144955812646
1785,-44.710353263742036
1786,-48.63374474816919
1787,-49.981124429050396
1788,-55.99148637541384
1789,-66.9108245602929
1790,-76.88413285880051
1791,-81.19340504614865
1792,-82.40763479565157
1793,-85.5108156766828
1794,-90.73194115260594
1795,-89.11600457865552
1796,-71.5649991998007
1797,-42.388918148552875
1798,-16.05775444275514
1799,-5.278500983318736
1800,-13.60315055193496
