800,94.2433769655845
801,76.11375595495974
802,91.56766877092377
803,131.13232098305434
804,170.7329180331717
805,186.09866522888115
806,161.8787677371729
807,113.50443057806478
808,63.054858618283106
809,32.211256565010444
810,29.074828959671322
811,44.743780171751496
812,69.24231439269897
813,93.23863562983661
814,112.37194770034057
815,124.62145422526464
816,127.98335862360273
817,122.18386410640869
818,111.31217367095178
819,100.1434900949298
820,93.26401593071387
821,91.5789534996511
822,92.61850488640721
823,93.78187193335816
824,93.00025623501642
825,90.97085913252704
826,89.2938817081722
827,89.54952477994811
828,91.46398889618467
829,91.59247433019482
830,86.16918107497258
831,72.0163088379577
832,52.29705703580203
833,34.1206247892178
834,24.647210917849407
835,28.405013935192073
836,41.44723204355523
837,58.11706312907245
838,72.8387047567494
839,81.65535416554303
840,82.41220826351764
841,73.04046362300141
842,52.70731647581397
843,28.04996270852189
844,8.490597857746252
845,3.3954171055002007
846,16.776615274576216
847,42.683386823972796
848,74.07692584436063
849,104.17142605359095
850,128.95308079224378
851,146.189083019216
852,153.6696253073551
853,150.55589983912705
854,140.30009840232742
855,127.205412385827
856,115.4600327753642
857,106.57315014938104
858,99.30795467488133
859,92.30963610334311
860,85.02038376667224
861,81.1383865731732
862,85.75983300359076
863,103.878911107161
864,133.9298084977263
865,163.9667123498548
866,181.127809395045
867,174.4282859179184
868,149.2843277524853
869,119.59212027844205
870,99.30984841748796
871,96.97869662969333
872,108.14884890991561
873,126.4674887842275
874,145.74579930639447
875,162.21696305440037
876,173.96616212698427
877,179.12857814024028
878,176.77039222423082
879,169.31978501965204
880,159.95893667452583
881,151.8410268409334
882,147.32923467177716
883,147.94173881759525
884,155.15071742337386
885,169.72034812545644
886,188.70080804841382
887,207.93327380200753
888,223.32992147816367
889,234.3889266479855
890,245.88346435878702
891,263.00470913118806
892,289.3688349562235
893,316.95501529248395
894,332.5154230633125
895,322.8722306539985
896,285.4326099090449
897,238.21573212943804
898,201.61876806997316
899,194.06288793659405
900,213.7142613837732
901,246.8590575119306
902,279.63644486487647
903,301.67359142728856
904,311.369664622227
905,308.4788313086701
906,293.0792577790962
907,269.8091097570832
908,246.66455239494826
909,231.71675027142373
910,230.1118673893434
911,237.74106717338873
912,248.68551246784773
913,257.2523655344012
914,262.27678804995594
915,266.6049411044951
916,273.21998519896806
917,283.5770802431962
918,293.2523855538366
919,296.40705985234126
920,287.5182612629633
921,268.8671473108061
922,250.81587491988648
923,244.11760041120397
924,256.07647950089995
925,278.5156672983903
926,298.91831830454976
927,305.04758640992804
928,293.86362489298153
929,273.10058641834803
930,251.10462303514396
931,234.92188617528154
932,224.99252665183303
933,219.65769465739868
934,217.2975397625287
935,217.55821091414873
936,221.72885643403788
937,231.19762401730077
938,245.67766073090752
939,255.60811301221838
940,248.23912666758588
941,211.2278468709228
942,149.88741816234688
943,93.49298444684428
944,73.03268899292016
945,111.20067443133121
946,182.5660827538104
947,244.40305531182457
948,254.65273281534974
949,203.55625533170678
950,126.25876228436937
951,61.229392451841704
952,40.104283966544244
953,54.43557431372574
954,81.24040033039637
955,97.79489820429262
956,94.81020347286722
957,81.53745102229368
958,68.582775086521
959,64.62330924630987
960,67.30918642834513
961,70.39853890431732
962,67.76249829008157
963,58.34819554479509
964,47.8587609701226
965,42.463324209416896
966,46.97801424696627
967,59.00395940723138
968,73.73128735413957
969,86.3541250903636
970,92.37859895666043
971,87.68483463120174
972,68.17995712895754
973,32.097090801076774
974,-11.02164066570731
975,-48.20611424962226
976,-66.89420759441964
977,-66.2897990098736
978,-58.78476747230707
979,-57.476992625035564
980,-71.64235477884904
981,-94.29873491243416
982,-114.15401467277843
983,-120.29307637557031
984,-110.58280300556726
985,-91.52907821694498
986,-70.00678633360803
987,-52.00381234951601
988,-40.3090419289565
989,-36.99736140681307
990,-43.70865778881489
991,-54.65281875174696
992,-57.812732643646086
993,-40.978288484022414
994,0.4206240360163065
995,48.36311455361283
996,80.66829203402813
997,76.97226477054573
998,40.406140384384344
999,-9.615974175358133
1000,-53.35797263176755
1001,-77.37874938010646
1002,-83.08319948786811
1003,-74.02621869471295
1004,-53.75770341248426
1005,-26.50055072510986
1006,-0.9436583885799337
1007,12.38107516916898
1008,3.123750848350028
1009,-29.164531122538392
1010,-70.7356711866014
1011,-106.73657045834443
1012,-125.13613072352928
1013,-129.25025443896084
1014,-127.59184473229107
1015,-128.39080540175564
1016,-130.85404091596138
1017,-123.58245641359827
1018,-94.56195770316117
1019,-37.775451262654315
1020,27.4761557607344
1021,75.1939555509598
1022,80.61303962347847
1023,43.95549882560408
1024,-11.38757666308993
1025,-61.1410973303864
1026,-87.04697433099864
1027,-89.82111948613965
1028,-73.90644528306257
1029,-43.889864874625346
1030,-6.265292078767743
1031,31.143358621955485
1032,60.491172080908655
1033,76.81823248787441
1034,81.74662336962865
1035,77.78942759049096
1036,67.58872735288969
1037,54.681604197954584
1038,43.086139006136364
1039,36.78641199780941
1040,37.65250273390666
1041,44.18249011658554
1042,54.56445238987544
1043,66.80246714036366
1044,77.89861129789278
1045,84.51096113624953
1046,83.39159227391065
1047,74.16157967476283
1048,59.581997648858305
1049,42.579919853173124
1050,25.631419292389182
1051,9.66656831968794
1052,-4.741561362456196
1053,-16.906898701445243
1054,-24.766373293732613
1055,-25.245915383977263
1056,-15.271455864187374
1057,5.063073727156734
1058,28.718741205973856
1059,47.721613743491616
1060,55.29475786715375
1061,53.61023946153364
1062,48.907123769284226
1063,47.40147539206919
1064,53.19035829153108
1065,67.51783579026596
1066,91.42797057279859
1067,123.68682468659244
1068,153.460459543041
1069,167.37993591850136
1070,153.2183139553199
1071,117.36465316287831
1072,81.26901241864653
1073,66.7724499692522
1074,82.69302343155687
1075,107.4427897937494
1076,115.0938054164344
1077,84.3121260337648
1078,28.912806754548
1079,-21.104097936622566
1080,-36.26253417819862
1081,-11.505448730556964
1082,26.53321102519658
1083,49.08349708838978
1084,36.710460839974985
1085,5.761153043717059
1086,-18.834376152575715
1087,-14.28107721586639
1088,13.7380987733668
1089,39.381200122361406
1090,36.504274527305824
1091,-3.269630925386082
1092,-54.06746975781425
1093,-86.10019609932533
1094,-76.01276468519791
1095,-37.84413085538654
1096,0.9127494468284567
1097,13.663919676118894
1098,-5.324577313549526
1099,-41.20469926757869
1100,-78.25440452941439
1101,-103.72165203917757
1102,-112.7514013323107
1103,-101.7926125382146
1104,-69.21324637885664
1105,-28.85126416739695
1106,-2.0286278067942476
1107,-9.542299788388846
1108,-50.772243190504014
1109,-98.15942167702451
1110,-122.40379949596536
1111,-105.55234147803458
1112,-68.1590130351924
1113,-38.95878015919698
1114,-44.01660942014314
1115,-81.81046796500596
1116,-134.5963235161471
1117,-184.4961443698412
1118,-218.24889939479544
1119,-229.4125580306245
1120,-212.09109028637613
1121,-165.5954667390015
1122,-109.785658531835
1123,-69.58963737307022
1124,-67.78137553423039
1125,-101.44084584862321
1126,-150.86302170978888
1127,-196.1318770699545
1128,-223.20838643846582
1129,-227.44052488022498
1130,-205.00826801410767
1131,-157.31259201139073
1132,-107.47047359415956
1133,-84.25389003371674
1134,-113.09781914898304
1135,-178.80923930488098
1136,-239.15312941074262
1137,-251.84246891866678
1138,-204.23223782191963
1139,-130.47541665328208
1140,-68.86298648342563
1141,-49.05192891927618
1142,-66.25422610234455
1143,-107.11886070710716
1144,-158.16181593930924
1145,-204.65107553432972
1146,-231.06862375550372
1147,-222.21844539244375
1148,-179.96552575935493
1149,-130.62285069336758
1150,-102.42040655283927
1151,-113.75318021564453
1152,-148.95315907749318
1153,-184.99133105022702
1154,-201.01068456009125
1155,-196.08720854603962
1156,-179.90789245800624
1157,-162.13472625517898
1158,-148.23070040427956
1159,-138.61280587782312
1160,-133.3990341523895
1161,-131.3653772068683
1162,-127.58082752073096
1163,-116.48037807226683
1164,-94.14302233683702
1165,-67.78475428510683
1166,-49.248568381299265
1167,-49.840459581415416
1168,-69.58742333147165
1169,-98.10445556572085
1170,-124.62355270488479
1171,-140.83271165436236
1172,-143.37792980244376
1173,-129.47920501853878
1174,-98.48853565137142
1175,-59.637920527187816
1176,-25.060358947956047
1177,-6.09885068956828
1178,-4.7473960000370425
1179,-16.891995597687128
1180,-38.30465066933357
1181,-64.37836286848687
1182,-89.99013431351705
1183,-109.97796758584809
1184,-121.08786572813369
1185,-125.69383224241756
1186,-127.22187108832077
1187,-127.92998668120708
1188,-122.13918389034552
1189,-100.85946803708066
1190,-56.02484489298149
1191,3.2986793219861283
1192,53.177097941303145
1193,69.36040385375236
1194,45.984589505258555
1195,9.602646900748368
1196,-9.909432394015312
1197,7.7743427494424395
1198,47.02296302415198
1199,83.74141868954575
1200,96.43069957336047
1201,85.61879507344565
1202,62.88769415966817
1203,39.6393853757545
1204,20.805856841176137
1205,4.875096252999356
1206,-9.928909112226393
1207,-24.36317239660457
1208,-37.15770715902727
1209,-46.813527373273246
1210,-52.185647426165815
1211,-53.57708211566023
1212,-51.65484664900214
1213,-47.22995664080918
1214,-42.36342811121358
1215,-39.76427748397691
1216,-42.06252158459938
1217,-49.88517763843811
1218,-61.891263268818875
1219,-76.63279649516335
1220,-90.9127957310775
1221,-98.26027978248203
1222,-91.84226784571729
1223,-67.8087795056581
1224,-33.35383473381262
1225,1.7775461135643127
1226,28.305342297358948
1227,40.425532697483504
1228,33.93409581479136
1229,5.431009772961261
1230,-34.478747679624576
1231,-63.30719916797534
1232,-58.50636768858203
1233,-16.63727660755285
1234,36.358050341312264
1235,72.03058905838589
1236,73.40031508014181
1237,56.28620358101398
1238,42.341229375322655
1239,48.96836691915814
1240,70.02959031226783
1241,91.30687329996181
1242,99.5861892750072
1243,93.12251127951822
1244,77.35581200686102
1245,57.85806380352551
1246,40.64423867104961
1247,32.20530826789218
1248,39.01424391132605
1249,61.76401657935094
1250,90.06459691256714
1251,112.26095521606112
1252,120.99806146132869
1253,123.79988528813192
1254,131.4163960064143
1255,152.11356259816966
1256,178.26335371935056
1257,195.96073770174553
1258,192.49668255486722
1259,170.21615596784432
1260,141.74712531130535
1261,119.66255763925619
1262,109.22041969097882
1263,107.34167789290404
1264,110.51229836049606
1265,117.02024690013604
1266,128.59148901100707
1267,147.3239898869524
1268,172.91671441838116
1269,197.22362719413286
1270,210.49369250334712
1271,205.12587433734734
1272,185.7271363915097
1273,161.22744206714015
1274,140.09375447334423
1275,125.8720364288838
1276,119.21825046406593
1277,120.5323588225965
1278,125.64432346344802
1279,126.05910606272482
1280,113.25766801551981
1281,86.44897043779201
1282,56.426974168200104
1283,34.92363976998422
1284,29.187927532806498
1285,35.69779747461507
1286,49.34920934349066
1287,65.3691226194951
1288,80.3164965165397
1289,91.0672899842084
1290,95.18346170961559
1291,94.65597011924729
1292,93.25477338081328
1293,94.61582940507469
1294,100.8380958476846
1295,113.05553011103075
1296,132.15308934607128
1297,154.04473045415943
1298,169.92241008887504
1299,170.97008465786348
1300,157.69071032465217
1301,143.9072430104843
1302,144.43363839613085
1303,166.2338519237237
1304,199.3188387985556
1305,231.49755399092282
1306,253.56295223791676
1307,266.2209880452483
1308,272.22661568904914
1309,273.5037892176879
1310,267.6874624535758
1311,251.04458899495512
1312,221.4431222177227
1313,189.53001527720699
1314,172.09022110998194
1315,184.13569243565325
1316,217.04438175864198
1317,245.68724136998753
1318,245.61122334913307
1319,215.6492795656959
1320,177.82736168126212
1321,154.92042115117147
1322,157.17940922628077
1323,177.23427695473583
1324,206.38197518377092
1325,235.37345456143885
1326,253.8876655384156
1327,251.480558369738
1328,224.85208311657698
1329,190.9911896479989
1330,170.4758276427183
1331,176.5909465908535
1332,192.82049579567501
1333,195.05342437536638
1334,164.80868126474707
1335,116.59621521704685
1336,76.88597480562385
1337,68.54090842570804
1338,83.65396429614339
1339,98.87309046111477
1340,92.28023479188414
1341,61.51734498851147
1342,17.52736858158096
1343,-28.311747066070893
1344,-61.296054757642196
1345,-63.71760746064683
1346,-18.502458305196342
1347,66.59933941770032
1348,154.22373225786032
1349,205.66466660761944
1350,207.91208870353876
1351,188.1309446281066
1352,176.91218031143944
1353,191.64474153296942
1354,222.6825739231317
1355,257.07362296506835
1356,284.1658339963069
1357,299.5021522104362
1358,299.65152265878896
1359,282.85889025213146
1360,253.25119976233145
1361,216.25239582401446
1362,177.29642293625875
1363,141.82322546423893
1364,115.27274764090726
1365,102.42293356864138
1366,104.03272722089605
1367,119.38107244388266
1368,146.46791295819457
1369,173.43319236046773
1370,183.79885412502335
1371,163.4688416055178
1372,122.90209803657126
1373,86.86656653540922
1374,78.49619010350943
1375,96.60191162820229
1376,122.62767388434077
1377,138.51941953588175
1378,142.0300911375507
1379,144.58863113643565
1380,157.4479818735963
1381,176.10908558571282
1382,179.74888440666655
1383,147.5603203691535
1384,86.36133540630544
1385,37.07887135326928
1386,42.053869948826105
1387,106.11827283697676
1388,179.3790215685476
1389,208.03005760275846
1390,174.71832230884502
1391,124.61075696760417
1392,108.81030277302125
1393,146.78590083381278
1394,194.6444921750117
1395,201.01501773955897
1396,143.4344183898629
1397,66.68363490935553
1398,25.086608004079608
1399,48.732278304243664
1400,102.57358636577737
1401,140.7244726718909
1402,134.06887763463783
1403,105.23774159645473
1404,86.82800483171741
1405,101.12460754828498
1406,134.1424898890491
1407,163.9175919334666
1408,173.35285369910343
1409,164.69621514316532
1410,144.996616164035
1411,121.10499660280766
1412,98.9172962448065
1413,84.07745482111022
1414,81.06541201008622
1415,88.60110743889527
1416,103.63748068502173
1417,122.63047127778009
1418,139.3480186998313
1419,146.65406238868673
1420,139.70154173822084
1421,127.23339610016956
1422,122.98056478564104
1423,138.24298706660556
1424,168.64760217739422
1425,203.65134931620014
1426,233.05016764656284
1427,249.19399629885993
1428,245.4947743718003
1429,218.05644093388946
1430,182.62493502493817
1431,163.63319565752317
1432,181.51316181847142
1433,225.74377247033772
1434,271.50396655287295
1435,296.96668298449003
1436,304.92686066375245
1437,309.93343847081087
1438,324.53535526889027
1439,344.1945499057456
1440,355.9889612151146
1441,349.0405280181858
1442,330.1241891250356
1443,314.8138833361081
1444,316.94654944364083
1445,335.0791262331295
1446,360.08955248476013
1447,383.2837669748769
1448,400.2207084774018
1449,408.5773157652802
1450,406.2325276119318
1451,392.5322827926775
1452,367.5645200861709
1453,332.71717827584143
1454,299.90519615131234
1455,286.2135125098539
1456,305.49606615778066
1457,345.714795911892
1458,382.496640600908
1459,394.4775390668583
1460,383.9254301665478
1461,363.9612527729332
1462,345.45794577656307
1463,322.510448086985
1464,281.84869863417407
1465,214.42263636992357
1466,140.2242002692692
1467,91.35232933189036
1468,93.3199625835332
1469,129.34303907739923
1470,166.0654978955663
1471,174.75527815036912
1472,154.23131898583233
1473,113.34055957904457
1474,62.18393914157059
1475,17.513396920856394
1476,-1.6831277983947075
1477,17.724304307190323
1478,60.07863260105478
1479,100.89579648808467
1480,118.62673541601544
1481,104.77938887682285
1482,54.454696408114614
1483,-27.823402405489105
1484,-100.34896793095868
1485,-112.19906048547273
1486,-36.93774033502632
1487,66.15493230695574
1488,119.0368972809938
1489,74.8220944829518
1490,-17.445536134591748
1491,-90.34105456095676
1492,-99.56752072597374
1493,-62.961994498606145
1494,-8.677535685574185
1495,38.612795970029765
1496,62.37494079011958
1497,47.32483916300589
1498,-7.565568455245739
1499,-74.67134153941879
1500,-123.08153949377993
1501,-136.21022165069007
1502,-122.18844726923635
1503,-91.62027553384542
1504,-55.52976555291389
1505,-25.538976357423962
1506,-13.066966899583349
1507,-19.799796051420344
1508,-35.23652260343624
1509,-48.2172052632086
1510,-50.385902654019446
1511,-36.35767331347961
1512,-1.7855756921562715
1513,40.97733184780736
1514,64.81099103408087
1515,44.76134368550993
1516,-6.582668286504486
1517,-49.085102876613746
1518,-46.36301798416025
1519,-8.999471411791092
1520,24.12847913593032
1521,19.345776053891313
1522,-11.103638162179777
1523,-32.56682091433504
1524,-17.808829501027503
1525,12.359278884281593
1526,18.396447154491398
1527,-28.806381669732218
1528,-106.91926445859826
1529,-177.869257971779
1530,-213.43841885703114
1531,-222.78980364881681
1532,-223.9214687668973
1533,-230.820470514951
1534,-245.80386507918774
1535,-269.0677085269399
1536,-296.6400568052777
1537,-315.2659657396107
1538,-310.5164910322983
1539,-275.3066882612329
1540,-215.18661287845316
1541,-137.24132020874458
1542,-60.37886544822868
1543,-19.108303662951585
1544,-47.02368978750201
1545,-129.76907862355984
1546,-204.33652483853803
1547,-209.59008296412867
1548,-146.46880739491098
1549,-63.88675238691758
1550,-8.241972056235682
1551,12.59047962241857
1552,13.128548817141564
1553,7.671181840243662
1554,6.945325149687051
1555,20.15092535050826
1556,51.177929196262994
1557,77.58928359044512
1558,68.76793558793543
1559,8.812832396437443
1560,-66.67707862208772
1561,-110.85384994996821
1562,-98.3555339123759
1563,-57.01818267586896
1564,-22.61684824696931
1565,-15.075582470653899
1566,-26.34543702895644
1567,-45.63846343944897
1568,-66.23171305381948
1569,-86.55623705637481
1570,-105.41208646259656
1571,-122.23231211763596
1572,-137.04596469485477
1573,-149.19809469434404
1574,-149.99875244143186
1575,-125.58498808519471
1576,-66.88585159697323
1577,-0.6573927688641561
1578,30.37533878776412
1579,-4.234706356210154
1580,-75.38357744616405
1581,-136.05832354221457
1582,-153.58299351770802
1583,-140.7356360576905
1584,-119.2332996574005
1585,-101.13403262072279
1586,-78.1488830586768
1587,-39.6428988878597
1588,13.332872171082272
1589,63.12138259499079
1590,91.33958505977898
1591,91.73343244193893
1592,69.72087782013114
1593,31.720874476752215
1594,-9.827624100527828
1595,-38.58766421715518
1596,-41.6982919701386
1597,-31.061553246452604
1598,-29.07549372146059
1599,-50.00915885731047
1600,-72.9605939013436
1601,-67.60584388448478
1602,-20.559953619635053
1603,36.27403229994161
1604,63.800069502245606
1605,49.68411383815692
1606,27.0591213830794
1607,32.399048438561294
1608,71.79385153396652
1609,118.02148742809914
1610,143.5739131108603
1611,139.928085804926
1612,111.93296296740482
1613,66.83050229150649
1614,27.09766170823059
1615,21.976399388051505
1616,68.50667374260411
1617,131.53844342639604
1618,162.05266733850294
1619,135.71530462428018
1620,90.62731467709636
1621,74.10765714004447
1622,101.97329190767778
1623,141.57817912775863
1624,157.6692792029953
1625,148.0955527927963
1626,142.19296081504945
1627,166.64546444786356
1628,208.1340251313668
1629,230.02860456947928
1630,204.31316473171137
1631,152.27366785494632
1632,112.13607644526928
1633,110.53435327977786
1634,137.9354614083768
1635,177.77336415564787
1636,212.1390251226585
1637,220.74440818882613
1638,184.36847751376263
1639,118.45719753913545
1640,75.37553299055071
1641,103.44744887942215
1642,184.89591050486524
1643,260.32488345558886
1644,281.98633361180146
1645,273.48922714713626
1646,283.9915305305549
1647,341.1182105283042
1648,405.2992342058278
1649,424.3005689297479
1650,380.7481823697999
1651,317.536042500813
1652,281.95511760469526
1653,283.80437627239917
1654,295.78678740595024
1655,291.6293202204233
1656,270.82794424597705
1657,247.3526293298819
1658,232.1063456385491
1659,220.25906365958144
1660,202.19975420382434
1661,175.1213884074532
1662,153.4649377340138
1663,154.01237397655314
1664,176.2196692596899
1665,195.63479604172062
1666,187.98772711676247
1667,158.2214356168679
1668,133.6458950141623
1669,137.73607912301122
1670,164.05796210216977
1671,193.86051845696602
1672,209.67372304148194
1673,198.49255106074997
1674,148.47597807296734
1675,67.72797999170507
1676,-1.3144669118391903
1677,-15.031386006627145
1678,24.527199700502024
1679,73.16726756707794
1680,90.20179531729809
1681,76.94676104430619
1682,55.19914321248689
1683,41.875920659816984
1684,34.4380726001491
1685,25.68657862557484
1686,14.342418708785772
1687,10.423573205433058
1688,24.323022856489843
1689,45.914748790663
1690,44.73973252679389
1691,-5.251044023731083
1692,-84.36359855453884
1693,-149.5739483618363
1694,-168.9441103419449
1695,-154.90410098883058
1696,-130.70693639162346
1697,-111.71663223210908
1698,-98.45020378222762
1699,-89.94966590154218
1700,-88.55203303470262
1701,-99.72231920888044
1702,-126.78853803120455
1703,-155.3347026861884
1704,-162.5578259331205
1705,-136.41492010345974
1706,-102.66999709819356
1707,-94.98306838522421
1708,-119.72114499668169
1709,-138.4552375262756
1710,-111.56335612660041
1711,-48.3585105064285
1712,2.2762900719990284
1713,-0.8769632042876765
1714,-43.66727869625356
1715,-90.6016643100811
1716,-116.87012749439327
1717,-127.1566752374647
1718,-130.88131406440516
1719,-127.23405003434254
1720,-102.29888873755772
1721,-44.34583529265001
1722,24.98010565635377
1723,63.54792994288164
1724,42.642633880740505
1725,-5.866785732978315
1726,-33.63033161493968
1727,-19.49800599260834
1728,5.361189398713577
1729,5.246253318898198
1730,-27.544814974003202
1731,-75.62701572074002
1732,-121.34634865780299
1733,-151.465813014368
1734,-154.53740750922134
1735,-128.95013034764634
1736,-100.15597921831522
1737,-97.50095129015699
1738,-124.03404320919435
1739,-150.58725109538136
1740,-149.383570539404
1741,-125.3729965994844
1742,-101.74052379814293
1743,-95.33114611895599
1744,-98.49485700329024
1745,-97.9716493470205
1746,-88.53751549722438
1747,-77.64644724886239
1748,-73.41343584143306
1749,-77.82647195561731
1750,-88.55654570989009
1751,-101.05164665712346
1752,-100.68876378117147
1753,-70.02388549342231
1754,-13.552999629338956
1755,22.284906555017187
1756,-10.046153613508977
1757,-95.15016622164876
1758,-165.2511167661587
1759,-164.4939901502712
1760,-113.53977068009954
1761,-59.67844206103928
1762,-32.11198739414158
1763,-20.39238917246621
1764,-9.599629277414351
1765,-0.3356889750375558
1766,-7.538548912327315
1767,-42.04218911348016
1768,-85.82158897615318
1769,-109.82472726767173
1770,-99.71458212124435
1771,-75.59513103213612
1772,-61.635350853822274
1773,-62.845217794129894
1774,-65.76970741134846
1775,-58.018794610316945
1776,-38.92945363848594
1777,-12.423658081972462
1778,17.01361913843266
1779,43.629405771254824
1780,61.70273023837399
1781,70.27962163906614
1782,72.89910975407656
1783,71.79522504972283
1784,60.15899868200995
1785,27.846462500779126
1786,-20.65035094612813
1787,-48.75340840867011
1788,-18.379675930395024
1789,57.00488115580629
1790,118.94129823197
1791,119.02261139934035
1792,71.75285748269653
1793,12.722074034688376
1794,-28.981700659795933
1795,-36.93542757923478
1796,1.6109330389381284
1797,66.25442170278711
1798,111.4630796703259
1799,101.94094895403396
1800,51.3580723253599
