,"Scan 00998"
"400","17556.42"
"401","17459.1"
"402","17301.73"
"403","17147.04"
"404","17057.29"
"405","17085.68"
"406","17210.81"
"407","17373.61"
"408","17515.16"
"409","17581"
"410","17569.52"
"411","17515.85"
"412","17455.59"
"413","17422.86"
"414","17425.77"
"415","17448.24"
"416","17473.38"
"417","17484.81"
"418","17479.59"
"419","17471.32"
"420","17474.54"
"421","17503.48"
"422","17558.35"
"423","17616.86"
"424","17654.84"
"425","17648.39"
"426","17590.79"
"427","17511.07"
"428","17442.52"
"429","17418.2"
"430","17455.12"
"431","17527.42"
"432","17602.24"
"433","17646.98"
"434","17638.6"
"435","17586.61"
"436","17507.45"
"437","17417.46"
"438","17332.68"
"439","17268.26"
"440","17239.02"
"441","17259.68"
"442","17338.5"
"443","17448.71"
"444","17551.83"
"445","17609.6"
"446","17591.33"
"447","17515.67"
"448","17421.58"
"449","17347.81"
"450","17327.95"
"451","17354.68"
"452","17400.69"
"453","17438.65"
"454","17443.92"
"455","17416.78"
"456","17371.83"
"457","17323.75"
"458","17286.27"
"459","17263.02"
"460","17250.89"
"461","17246.72"
"462","17247.2"
"463","17247.23"
"464","17240.35"
"465","17220.12"
"466","17180.63"
"467","17124.54"
"468","17061.6"
"469","17001.72"
"470","16954.52"
"471","16924.61"
"472","16912.04"
"473","16916.69"
"474","16938.33"
"475","16974.12"
"476","17018.63"
"477","17066.36"
"478","17111.92"
"479","17151.93"
"480","17185.2"
"481","17210.64"
"482","17227.13"
"483","17233.21"
"484","17227.02"
"485","17206.66"
"486","17170.46"
"487","17122.59"
"488","17074.07"
"489","17036.21"
"490","17019.96"
"491","17024.8"
"492","17036.72"
"493","17040.93"
"494","17023.02"
"495","16977.67"
"496","16910.46"
"497","16827.62"
"498","16735.37"
"499","16642.12"
"500","16558.82"
"501","16496.52"
"502","16465.76"
"503","16462.45"
"504","16465.11"
"505","16451.38"
"506","16399.74"
"507","16311.06"
"508","16211.93"
"509","16130.28"
"510","16092.97"
"511","16101.82"
"512","16131.03"
"513","16153.46"
"514","16142.99"
"515","16095.18"
"516","16028.27"
"517","15961.46"
"518","15913.33"
"519","15890.4"
"520","15887.5"
"521","15898.92"
"522","15918.9"
"523","15938.96"
"524","15948.18"
"525","15935.63"
"526","15891.45"
"527","15822.68"
"528","15750.24"
"529","15695.33"
"530","15677.45"
"531","15693.87"
"532","15725.49"
"533","15752.91"
"534","15758.4"
"535","15742.46"
"536","15717.45"
"537","15695.85"
"538","15688.64"
"539","15692.5"
"540","15696.05"
"541","15687.84"
"542","15658.14"
"543","15610.77"
"544","15556.05"
"545","15504.33"
"546","15465.3"
"547","15444.78"
"548","15447"
"549","15476.14"
"550","15532.96"
"551","15599.56"
"552","15651.8"
"553","15665.67"
"554","15625.13"
"555","15548.67"
"556","15464.17"
"557","15399.37"
"558","15374.49"
"559","15383.88"
"560","15416.26"
"561","15460.43"
"562","15506.39"
"563","15547.37"
"564","15577.19"
"565","15589.72"
"566","15584.32"
"567","15572.1"
"568","15565.69"
"569","15577.46"
"570","15607.35"
"571","15634.48"
"572","15636.03"
"573","15589.91"
"574","15497.66"
"575","15391.55"
"576","15305.78"
"577","15273.06"
"578","15296.08"
"579","15347.44"
"580","15398.6"
"581","15422.9"
"582","15420.19"
"583","15410.41"
"584","15413.9"
"585","15448.36"
"586","15506.2"
"587","15565.53"
"588","15604.44"
"589","15604.76"
"590","15573.38"
"591","15527.45"
"592","15484.07"
"593","15457.5"
"594","15448.86"
"595","15455.49"
"596","15474.72"
"597","15502.7"
"598","15531.8"
"599","15553.65"
"600","15559.93"
"601","15547.51"
"602","15524.64"
"603","15501.09"
"604","15486.49"
"605","15483.36"
"606","15483.42"
"607","15477.48"
"608","15456.86"
"609","15424.57"
"610","15396.2"
"611","15387.83"
"612","15414.05"
"613","15468.68"
"614","15530.36"
"615","15577.45"
"616","15591.07"
"617","15574.48"
"618","15541.87"
"619","15507.46"
"620","15483.44"
"621","15471.85"
"622","15471.49"
"623","15481.16"
"624","15497.69"
"625","15511.61"
"626","15512.17"
"627","15488.76"
"628","15438.47"
"629","15373.97"
"630","15309.74"
"631","15260.14"
"632","15235.75"
"633","15242.34"
"634","15285.36"
"635","15369.17"
"636","15480.68"
"637","15592.4"
"638","15676.5"
"639","15708.56"
"640","15693.44"
"641","15651.08"
"642","15601.51"
"643","15561.71"
"644","15533.99"
"645","15516.1"
"646","15505.8"
"647","15500.57"
"648","15497.08"
"649","15491.91"
"650","15481.67"
"651","15467.78"
"652","15459.75"
"653","15467.85"
"654","15501.72"
"655","15557.64"
"656","15618.27"
"657","15665.73"
"658","15683.83"
"659","15673.91"
"660","15647.82"
"661","15617.55"
"662","15593.48"
"663","15577.32"
"664","15567.82"
"665","15563.72"
"666","15563.53"
"667","15564.95"
"668","15565.58"
"669","15563.07"
"670","15559.21"
"671","15562.64"
"672","15582.59"
"673","15627.48"
"674","15689.71"
"675","15746.72"
"676","15775.48"
"677","15756.63"
"678","15703.13"
"679","15644.67"
"680","15611.01"
"681","15623.72"
"682","15668.81"
"683","15722.63"
"684","15761.65"
"685","15772.62"
"686","15765.32"
"687","15752.63"
"688","15747.13"
"689","15753.16"
"690","15765.23"
"691","15777.29"
"692","15783.96"
"693","15787.81"
"694","15796.52"
"695","15817.78"
"696","15856.08"
"697","15898.8"
"698","15927.81"
"699","15925.01"
"700","15883.42"
"701","15824.14"
"702","15772.6"
"703","15753.65"
"704","15772.79"
"705","15810.73"
"706","15846.61"
"707","15861.02"
"708","15851.71"
"709","15827.66"
"710","15798.05"
"711","15771.86"
"712","15757.14"
"713","15761.63"
"714","15793.01"
"715","15850.51"
"716","15913.33"
"717","15957.82"
"718","15961.16"
"719","15923.89"
"720","15873.41"
"721","15838.57"
"722","15845"
"723","15887.41"
"724","15943.11"
"725","15989.25"
"726","16008.97"
"727","16009.86"
"728","16005.8"
"729","16010.55"
"730","16031.65"
"731","16065.25"
"732","16106.27"
"733","16149.52"
"734","16187.42"
"735","16210.33"
"736","16208.54"
"737","16175.29"
"738","16122.85"
"739","16071.05"
"740","16039.71"
"741","16041.01"
"742","16066.54"
"743","16104.43"
"744","16143.01"
"745","16175.55"
"746","16201.38"
"747","16220.17"
"748","16231.95"
"749","16239.91"
"750","16249"
"751","16264.2"
"752","16287.26"
"753","16308.29"
"754","16314.75"
"755","16294.42"
"756","16252.73"
"757","16222.25"
"758","16237.82"
"759","16330.19"
"760","16480.05"
"761","16634.15"
"762","16738.71"
"763","16754.08"
"764","16703.53"
"765","16627.87"
"766","16567.63"
"767","16544.73"
"768","16548.05"
"769","16563.08"
"770","16575.97"
"771","16582.29"
"772","16584.71"
"773","16586.09"
"774","16589.75"
"775","16601.13"
"776","16626.37"
"777","16671.5"
"778","16736.09"
"779","16807.57"
"780","16872.05"
"781","16916.38"
"782","16938.35"
"783","16944.18"
"784","16940.34"
"785","16932.94"
"786","16926.63"
"787","16925.58"
"788","16933.95"
"789","16953.85"
"790","16983.79"
"791","17021.89"
"792","17065.89"
"793","17108.52"
"794","17138.88"
"795","17146.03"
"796","17124.25"
"797","17090.51"
"798","17067.82"
"799","17078.88"
"800","17126.5"
"801","17182.37"
"802","17215.54"
"803","17198.83"
"804","17145.93"
"805","17095.48"
"806","17086.42"
"807","17143.22"
"808","17240.21"
"809","17340.93"
"810","17409.61"
"811","17434.44"
"812","17433.59"
"813","17427.15"
"814","17433.15"
"815","17453.86"
"816","17484.1"
"817","17518.65"
"818","17550.45"
"819","17567.68"
"820","17557.82"
"821","17509.49"
"822","17434.47"
"823","17365.86"
"824","17337.52"
"825","17373.67"
"826","17448.05"
"827","17518"
"828","17541.18"
"829","17504.02"
"830","17442.37"
"831","17396.92"
"832","17404.71"
"833","17462.42"
"834","17541.78"
"835","17614.14"
"836","17658.39"
"837","17677.73"
"838","17680.25"
"839","17673.94"
"840","17664.36"
"841","17654.49"
"842","17647.15"
"843","17644.85"
"844","17648.26"
"845","17657.37"
"846","17672.2"
"847","17693.91"
"848","17725.91"
"849","17771.84"
"850","17834.29"
"851","17904"
"852","17964.1"
"853","17997.64"
"854","17996.36"
"855","17979.55"
"856","17971.88"
"857","17996.88"
"858","18050.32"
"859","18099.61"
"860","18110.84"
"861","18059.81"
"862","17973.46"
"863","17895.58"
"864","17869.54"
"865","17910.99"
"866","17991.75"
"867","18079.79"
"868","18145.67"
"869","18182.88"
"870","18196.74"
"871","18192.7"
"872","18178.53"
"873","18167.67"
"874","18174.37"
"875","18211.68"
"876","18274.81"
"877","18345.38"
"878","18404.67"
"879","18439.22"
"880","18454.51"
"881","18460.31"
"882","18466.18"
"883","18476.9"
"884","18492.18"
"885","18511.44"
"886","18534.16"
"887","18560.15"
"888","18589.32"
"889","18621.54"
"890","18655.05"
"891","18685.73"
"892","18709.23"
"893","18723.02"
"894","18737.9"
"895","18770.61"
"896","18837.82"
"897","18938.6"
"898","19037.78"
"899","19096.28"
"900","19079.87"
"901","19004.11"
"902","18913.81"
"903","18854.08"
"904","18851.93"
"905","18888.78"
"906","18939.02"
"907","18978.27"
"908","18999.57"
"909","19008.82"
"910","19012.2"
"911","19014.91"
"912","19019.01"
"913","19025.91"
"914","19037.13"
"915","19055.61"
"916","19085.54"
"917","19131.14"
"918","19191.92"
"919","19249.12"
"920","19279.64"
"921","19261.57"
"922","19202.88"
"923","19142.57"
"924","19121.05"
"925","19167.1"
"926","19256.95"
"927","19352.07"
"928","19414.81"
"929","19434.92"
"930","19434.24"
"931","19436.49"
"932","19459.99"
"933","19495.9"
"934","19526.79"
"935","19535.56"
"936","19519.47"
"937","19494.07"
"938","19476.16"
"939","19479.03"
"940","19496.73"
"941","19516.69"
"942","19526.51"
"943","19522.48"
"944","19512.66"
"945","19505.93"
"946","19509.13"
"947","19517.12"
"948","19520.46"
"949","19509.88"
"950","19483.83"
"951","19451.55"
"952","19423.05"
"953","19406.73"
"954","19401.41"
"955","19402.44"
"956","19405.3"
"957","19411.56"
"958","19431.21"
"959","19474.81"
"960","19548.28"
"961","19630.68"
"962","19691.62"
"963","19701.27"
"964","19655.8"
"965","19585.82"
"966","19524.32"
"967","19497.88"
"968","19498.64"
"969","19507.25"
"970","19504.74"
"971","19486.39"
"972","19465.06"
"973","19454.72"
"974","19465.37"
"975","19487.58"
"976","19506.07"
"977","19506.07"
"978","19487.21"
"979","19465.31"
"980","19457.06"
"981","19474.83"
"982","19512.63"
"983","19559.6"
"984","19605.05"
"985","19641.97"
"986","19667.03"
"987","19677.03"
"988","19671.5"
"989","19659.84"
"990","19653.68"
"991","19663.89"
"992","19688.62"
"993","19715.32"
"994","19731.11"
"995","19729.53"
"996","19723.13"
"997","19727.9"
"998","19758.28"
"999","19808.01"
"1000","19856.5"
"1001","19882.9"
"1002","19877.03"
"1003","19853.95"
"1004","19832.34"
"1005","19830.9"
"1006","19864.13"
"1007","19918.09"
"1008","19967.1"
"1009","19985.84"
"1010","19967.93"
"1011","19934.14"
"1012","19907.38"
"1013","19906.92"
"1014","19932.26"
"1015","19976.22"
"1016","20031.6"
"1017","20089.79"
"1018","20140.65"
"1019","20173.89"
"1020","20183.21"
"1021","20179.11"
"1022","20176.47"
"1023","20189.58"
"1024","20219.46"
"1025","20254.87"
"1026","20284.1"
"1027","20300.17"
"1028","20310.93"
"1029","20327.17"
"1030","20358.82"
"1031","20404.31"
"1032","20454.05"
"1033","20498.29"
"1034","20529.31"
"1035","20544.13"
"1036","20540.36"
"1037","20517.21"
"1038","20487.33"
"1039","20470.16"
"1040","20484.95"
"1041","20534.5"
"1042","20595.32"
"1043","20641.5"
"1044","20652.39"
"1045","20636.3"
"1046","20611.6"
"1047","20596.31"
"1048","20599.86"
"1049","20622.21"
"1050","20662.82"
"1051","20718.97"
"1052","20780.06"
"1053","20833.79"
"1054","20868.62"
"1055","20883.9"
"1056","20886.88"
"1057","20884.94"
"1058","20884.6"
"1059","20890.33"
"1060","20906.3"
"1061","20935.23"
"1062","20968.43"
"1063","20992.04"
"1064","20992.56"
"1065","20972.33"
"1066","20954.99"
"1067","20965.72"
"1068","21020.62"
"1069","21097.45"
"1070","21163.83"
"1071","21189.23"
"1072","21172.72"
"1073","21137.34"
"1074","21106.8"
"1075","21096.23"
"1076","21100.73"
"1077","21112.55"
"1078","21124.75"
"1079","21136.6"
"1080","21150.21"
"1081","21167.61"
"1082","21187.11"
"1083","21202.2"
"1084","21206.03"
"1085","21196.21"
"1086","21187.49"
"1087","21198.71"
"1088","21246.56"
"1089","21319.1"
"1090","21384.11"
"1091","21409.05"
"1092","21381.63"
"1093","21328.47"
"1094","21280.68"
"1095","21264.3"
"1096","21276.05"
"1097","21302.12"
"1098","21328.9"
"1099","21348.27"
"1100","21357.52"
"1101","21354.15"
"1102","21337.6"
"1103","21312.44"
"1104","21284.09"
"1105","21257.89"
"1106","21238.42"
"1107","21229.89"
"1108","21236.3"
"1109","21254.74"
"1110","21273.48"
"1111","21280.27"
"1112","21269.12"
"1113","21255.32"
"1114","21258.69"
"1115","21296.18"
"1116","21355.36"
"1117","21406.47"
"1118","21419.98"
"1119","21390.98"
"1120","21350.93"
"1121","21334.24"
"1122","21363.61"
"1123","21415.44"
"1124","21454.74"
"1125","21450.24"
"1126","21415.23"
"1127","21392.05"
"1128","21423.07"
"1129","21516.38"
"1130","21625.36"
"1131","21698.51"
"1132","21698.08"
"1133","21643.74"
"1134","21570.04"
"1135","21510.28"
"1136","21482.2"
"1137","21493.13"
"1138","21550.01"
"1139","21643.06"
"1140","21736.27"
"1141","21791.27"
"1142","21780.23"
"1143","21717.44"
"1144","21627.63"
"1145","21535.38"
"1146","21463.02"
"1147","21431.46"
"1148","21461.1"
"1149","21546.25"
"1150","21643.73"
"1151","21707.47"
"1152","21707.55"
"1153","21669.94"
"1154","21632.77"
"1155","21630.7"
"1156","21667.18"
"1157","21728.98"
"1158","21802.79"
"1159","21876.47"
"1160","21939.32"
"1161","21980.73"
"1162","21996.12"
"1163","21997.49"
"1164","21999.68"
"1165","22015.61"
"1166","22045.04"
"1167","22082.32"
"1168","22121.49"
"1169","22151.47"
"1170","22156.43"
"1171","22120.46"
"1172","22046.07"
"1173","21972.68"
"1174","21944.17"
"1175","21990.6"
"1176","22077.21"
"1177","22150.36"
"1178","22161.18"
"1179","22117.95"
"1180","22066.23"
"1181","22051.59"
"1182","22089.87"
"1183","22156.12"
"1184","22222.47"
"1185","22268.69"
"1186","22297.36"
"1187","22315.23"
"1188","22328.52"
"1189","22339.65"
"1190","22349.47"
"1191","22358.81"
"1192","22368.03"
"1193","22377.06"
"1194","22385.87"
"1195","22396.85"
"1196","22416.7"
"1197","22452.53"
"1198","22505.28"
"1199","22552.51"
"1200","22566.27"
"1201","22524.58"
"1202","22455.97"
"1203","22414.37"
"1204","22451.33"
"1205","22559.81"
"1206","22674.33"
"1207","22727.15"
"1208","22691.21"
"1209","22619.16"
"1210","22572.91"
"1211","22595.79"
"1212","22655.57"
"1213","22700.89"
"1214","22686.94"
"1215","22626.32"
"1216","22561.34"
"1217","22533.24"
"1218","22552.26"
"1219","22598.1"
"1220","22649.17"
"1221","22692.24"
"1222","22729.66"
"1223","22765.51"
"1224","22803.28"
"1225","22844.49"
"1226","22890.12"
"1227","22939.69"
"1228","22981.33"
"1229","22997.98"
"1230","22974.26"
"1231","22924.8"
"1232","22889.64"
"1233","22909.06"
"1234","22985.92"
"1235","23065.71"
"1236","23088.97"
"1237","23026.64"
"1238","22936.42"
"1239","22891.47"
"1240","22948.44"
"1241","23072.68"
"1242","23198.19"
"1243","23264.13"
"1244","23268.32"
"1245","23245.34"
"1246","23229.58"
"1247","23233.59"
"1248","23245.84"
"1249","23253.68"
"1250","23253.94"
"1251","23261.62"
"1252","23293.8"
"1253","23358.15"
"1254","23429.76"
"1255","23476.67"
"1256","23473.04"
"1257","23432.35"
"1258","23383.56"
"1259","23353.99"
"1260","23349.38"
"1261","23360.82"
"1262","23379.25"
"1263","23400.02"
"1264","23423.53"
"1265","23450.39"
"1266","23478.79"
"1267","23502.27"
"1268","23513.85"
"1269","23510.84"
"1270","23504.59"
"1271","23509.27"
"1272","23534.75"
"1273","23566.04"
"1274","23579.45"
"1275","23554.55"
"1276","23505.33"
"1277","23466.01"
"1278","23469.47"
"1279","23515.19"
"1280","23571.02"
"1281","23603.96"
"1282","23599.92"
"1283","23573.19"
"1284","23540.36"
"1285","23513.1"
"1286","23491.22"
"1287","23472.79"
"1288","23456.83"
"1289","23446.13"
"1290","23444.42"
"1291","23454.74"
"1292","23475.79"
"1293","23504.48"
"1294","23537.83"
"1295","23573.85"
"1296","23611.17"
"1297","23648.61"
"1298","23688.56"
"1299","23736.8"
"1300","23799.05"
"1301","23870.92"
"1302","23933.66"
"1303","23967.45"
"1304","23963.46"
"1305","23936.68"
"1306","23905.17"
"1307","23883.33"
"1308","23873.41"
"1309","23875.13"
"1310","23888.51"
"1311","23915.25"
"1312","23957.53"
"1313","24016.04"
"1314","24079.32"
"1315","24130.08"
"1316","24152.12"
"1317","24143.6"
"1318","24112.74"
"1319","24068.18"
"1320","24023.39"
"1321","23996.65"
"1322","24006.05"
"1323","24050.64"
"1324","24102.62"
"1325","24132.31"
"1326","24125.31"
"1327","24097.66"
"1328","24069.04"
"1329","24055.01"
"1330","24059.45"
"1331","24084.2"
"1332","24128.01"
"1333","24177.02"
"1334","24214.17"
"1335","24225.91"
"1336","24219.48"
"1337","24209.63"
"1338","24209.59"
"1339","24219.32"
"1340","24232.17"
"1341","24242.13"
"1342","24252.13"
"1343","24271.14"
"1344","24307.5"
"1345","24353.98"
"1346","24389.33"
"1347","24392.32"
"1348","24360.18"
"1349","24312.03"
"1350","24268.21"
"1351","24240.79"
"1352","24228.97"
"1353","24230.85"
"1354","24246.51"
"1355","24280.12"
"1356","24336.35"
"1357","24411.62"
"1358","24480.27"
"1359","24512.94"
"1360","24491.89"
"1361","24440.34"
"1362","24390.46"
"1363","24366.84"
"1364","24358.81"
"1365","24345.61"
"1366","24311.49"
"1367","24271.05"
"1368","24250.06"
"1369","24269.21"
"1370","24309.13"
"1371","24331.73"
"1372","24303.92"
"1373","24244.44"
"1374","24202.21"
"1375","24222.5"
"1376","24295.85"
"1377","24373.72"
"1378","24409.21"
"1379","24399.7"
"1380","24380.91"
"1381","24388.37"
"1382","24421.17"
"1383","24440.6"
"1384","24407.34"
"1385","24322.04"
"1386","24234.71"
"1387","24197.76"
"1388","24226.13"
"1389","24280.19"
"1390","24316.22"
"1391","24313.37"
"1392","24289.96"
"1393","24268.17"
"1394","24261.36"
"1395","24265.4"
"1396","24274.05"
"1397","24282.34"
"1398","24288.22"
"1399","24290.07"
"1400","24285.31"
"1401","24268.96"
"1402","24235.57"
"1403","24186.32"
"1404","24142.7"
"1405","24130.08"
"1406","24162.16"
"1407","24211.42"
"1408","24241.28"
"1409","24226.16"
"1410","24184.22"
"1411","24144.52"
"1412","24130.29"
"1413","24138.98"
"1414","24160.83"
"1415","24187.17"
"1416","24214.63"
"1417","24241.44"
"1418","24265.04"
"1419","24278.52"
"1420","24273.42"
"1421","24244.77"
"1422","24207.74"
"1423","24184.97"
"1424","24195.28"
"1425","24233.13"
"1426","24283.34"
"1427","24330.9"
"1428","24361.79"
"1429","24362.47"
"1430","24325.42"
"1431","24287.19"
"1432","24303.78"
"1433","24418.69"
"1434","24578.72"
"1435","24686.02"
"1436","24657.84"
"1437","24533.94"
"1438","24412.65"
"1439","24380.66"
"1440","24425.64"
"1441","24486.67"
"1442","24509.18"
"1443","24494.91"
"1444","24473.61"
"1445","24472.72"
"1446","24498.03"
"1447","24544.5"
"1448","24604.68"
"1449","24651.75"
"1450","24649.09"
"1451","24567.44"
"1452","24439.51"
"1453","24328.82"
"1454","24290.39"
"1455","24306.96"
"1456","24325.98"
"1457","24302.17"
"1458","24250.11"
"1459","24212.92"
"1460","24227.49"
"1461","24282.12"
"1462","24342.74"
"1463","24377.53"
"1464","24371.72"
"1465","24318.12"
"1466","24214.83"
"1467","24096.29"
"1468","24012.03"
"1469","24000.29"
"1470","24026.74"
"1471","24028.68"
"1472","23956.15"
"1473","23835.09"
"1474","23719.04"
"1475","23653.91"
"1476","23643.91"
"1477","23679.29"
"1478","23744.45"
"1479","23795.19"
"1480","23778.57"
"1481","23662.69"
"1482","23508.96"
"1483","23404.6"
"1484","23411.87"
"1485","23494.33"
"1486","23591.14"
"1487","23653.19"
"1488","23672.66"
"1489","23650.73"
"1490","23594.52"
"1491","23529.5"
"1492","23484.65"
"1493","23478.01"
"1494","23498.27"
"1495","23529.26"
"1496","23553.44"
"1497","23550.15"
"1498","23498.43"
"1499","23400.88"
"1500","23307.43"
"1501","23273.25"
"1502","23313.26"
"1503","23373.02"
"1504","23392.01"
"1505","23354.82"
"1506","23312.5"
"1507","23320.05"
"1508","23380.04"
"1509","23429.51"
"1510","23403.95"
"1511","23306.25"
"1512","23210.51"
"1513","23190.23"
"1514","23243.9"
"1515","23303.62"
"1516","23303.87"
"1517","23244.76"
"1518","23174.55"
"1519","23138.98"
"1520","23144.69"
"1521","23174.81"
"1522","23213.22"
"1523","23252.4"
"1524","23289.11"
"1525","23319.37"
"1526","23334.47"
"1527","23323.84"
"1528","23279.94"
"1529","23210.04"
"1530","23125.93"
"1531","23042.51"
"1532","22986.26"
"1533","22986.41"
"1534","23052.83"
"1535","23139.29"
"1536","23189.49"
"1537","23172.88"
"1538","23116.55"
"1539","23055.22"
"1540","23009.52"
"1541","22975.88"
"1542","22948.49"
"1543","22926.95"
"1544","22918.01"
"1545","22928.51"
"1546","22956.32"
"1547","22990.13"
"1548","23017.92"
"1549","23023.3"
"1550","22986.51"
"1551","22892.69"
"1552","22777.93"
"1553","22707.91"
"1554","22736.16"
"1555","22827.71"
"1556","22909.63"
"1557","22922.82"
"1558","22877.96"
"1559","22807.3"
"1560","22738.54"
"1561","22683.25"
"1562","22649.51"
"1563","22638.38"
"1564","22633.63"
"1565","22616.53"
"1566","22579.34"
"1567","22533.77"
"1568","22493.32"
"1569","22464.63"
"1570","22445.66"
"1571","22433.9"
"1572","22429.04"
"1573","22432.77"
"1574","22446.47"
"1575","22467.79"
"1576","22491.9"
"1577","22513.78"
"1578","22527.05"
"1579","22524.77"
"1580","22502.36"
"1581","22466.68"
"1582","22428.01"
"1583","22397.15"
"1584","22386.4"
"1585","22408.31"
"1586","22460.98"
"1587","22512.08"
"1588","22526.05"
"1589","22496.36"
"1590","22457.78"
"1591","22446.44"
"1592","22459"
"1593","22454.09"
"1594","22394.76"
"1595","22313.53"
"1596","22288"
"1597","22377.61"
"1598","22510.25"
"1599","22557.93"
"1600","22436.34"
"1601","22249.73"
"1602","22152.9"
"1603","22231.83"
"1604","22388.21"
"1605","22494.03"
"1606","22489.23"
"1607","22429.29"
"1608","22379.63"
"1609","22369.46"
"1610","22388.3"
"1611","22423.15"
"1612","22454.91"
"1613","22460.08"
"1614","22420.62"
"1615","22358.48"
"1616","22313.39"
"1617","22314.66"
"1618","22346.78"
"1619","22382.37"
"1620","22402.97"
"1621","22412.76"
"1622","22419.35"
"1623","22424.71"
"1624","22422.1"
"1625","22404.52"
"1626","22375.19"
"1627","22347.05"
"1628","22332.91"
"1629","22339.83"
"1630","22371.54"
"1631","22425.58"
"1632","22465.22"
"1633","22442.02"
"1634","22336.32"
"1635","22218.12"
"1636","22174.2"
"1637","22233.54"
"1638","22321.24"
"1639","22353.96"
"1640","22311.29"
"1641","22239.81"
"1642","22186.05"
"1643","22158.77"
"1644","22142.92"
"1645","22127.74"
"1646","22129.36"
"1647","22173.57"
"1648","22265.69"
"1649","22347.35"
"1650","22348.52"
"1651","22258.9"
"1652","22171.49"
"1653","22185.29"
"1654","22299.38"
"1655","22413.96"
"1656","22435.12"
"1657","22368.35"
"1658","22275.01"
"1659","22205.21"
"1660","22151.04"
"1661","22086.96"
"1662","22003.27"
"1663","21930.52"
"1664","21905"
"1665","21936.27"
"1666","21996.99"
"1667","22057.27"
"1668","22089.97"
"1669","22070.06"
"1670","21981.79"
"1671","21871.7"
"1672","21812"
"1673","21845.01"
"1674","21912.98"
"1675","21937.75"
"1676","21888.04"
"1677","21813.25"
"1678","21768.72"
"1679","21767.06"
"1680","21781.53"
"1681","21785.71"
"1682","21768.56"
"1683","21726.48"
"1684","21660.27"
"1685","21587.54"
"1686","21529.89"
"1687","21501.61"
"1688","21502.96"
"1689","21531.82"
"1690","21567.96"
"1691","21573.19"
"1692","21516.11"
"1693","21430.51"
"1694","21383.49"
"1695","21414.73"
"1696","21455.23"
"1697","21409.94"
"1698","21254.65"
"1699","21098.27"
"1700","21059.11"
"1701","21140.71"
"1702","21237.84"
"1703","21255.28"
"1704","21210.99"
"1705","21176.38"
"1706","21201.18"
"1707","21258.21"
"1708","21303.71"
"1709","21313.94"
"1710","21297.9"
"1711","21267.52"
"1712","21231.27"
"1713","21194.9"
"1714","21163.02"
"1715","21133.43"
"1716","21101.36"
"1717","21065.33"
"1718","21032.93"
"1719","21013.3"
"1720","21014.14"
"1721","21041.32"
"1722","21097.78"
"1723","21155.78"
"1724","21168.72"
"1725","21108.09"
"1726","21026.31"
"1727","20997.77"
"1728","21049.73"
"1729","21118.87"
"1730","21134.6"
"1731","21086.26"
"1732","21016.9"
"1733","20966.22"
"1734","20938.24"
"1735","20922.44"
"1736","20912.89"
"1737","20916.48"
"1738","20941.85"
"1739","20984"
"1740","21021.13"
"1741","21033.08"
"1742","21025.77"
"1743","21019.6"
"1744","21028.31"
"1745","21040.11"
"1746","21037.32"
"1747","21009.9"
"1748","20959.81"
"1749","20891.64"
"1750","20830.41"
"1751","20815.5"
"1752","20871.45"
"1753","20950.82"
"1754","20985.1"
"1755","20942.35"
"1756","20860.77"
"1757","20785.32"
"1758","20740.58"
"1759","20734.14"
"1760","20769.91"
"1761","20833.91"
"1762","20905.88"
"1763","20962.51"
"1764","20974.07"
"1765","20912.63"
"1766","20805.64"
"1767","20731.63"
"1768","20754.1"
"1769","20830.54"
"1770","20877.99"
"1771","20850.88"
"1772","20791.31"
"1773","20752.42"
"1774","20754.07"
"1775","20783.99"
"1776","20826.62"
"1777","20853.54"
"1778","20831.43"
"1779","20756.32"
"1780","20693.02"
"1781","20712.67"
"1782","20811.29"
"1783","20913.8"
"1784","20952.65"
"1785","20923.63"
"1786","20846.35"
"1787","20752.18"
"1788","20698.12"
"1789","20739.87"
"1790","20844.84"
"1791","20903.48"
"1792","20830.18"
"1793","20683.76"
"1794","20571.17"
"1795","20552.2"
"1796","20595.33"
"1797","20659.66"
"1798","20719.69"
"1799","20761.61"
"1800","20773.59"
"1801","20751.6"
"1802","20694.06"
"1803","20616.87"
"1804","20563.87"
"1805","20576.54"
"1806","20641.58"
"1807","20711.95"
"1808","20752.61"
"1809","20772.27"
"1810","20788.7"
"1811","20801.65"
"1812","20788.37"
"1813","20731.18"
"1814","20663.3"
"1815","20641.83"
"1816","20688.63"
"1817","20735.71"
"1818","20705.04"
"1819","20601.36"
"1820","20506.1"
"1821","20486.43"
"1822","20517.81"
"1823","20545.67"
"1824","20541.63"
"1825","20523.7"
"1826","20513.2"
"1827","20514.46"
"1828","20520.96"
"1829","20525.21"
"1830","20517.39"
"1831","20487.57"
"1832","20440.63"
"1833","20398.73"
"1834","20381.25"
"1835","20381.45"
"1836","20381.82"
"1837","20372.85"
"1838","20361.97"
"1839","20358.3"
"1840","20363.97"
"1841","20375.98"
"1842","20393.68"
"1843","20426.27"
"1844","20484.53"
"1845","20551.89"
"1846","20577.32"
"1847","20519.03"
"1848","20417.41"
"1849","20348.18"
"1850","20348.38"
"1851","20372.27"
"1852","20367.26"
"1853","20332.22"
"1854","20303.2"
"1855","20310.16"
"1856","20357.64"
"1857","20443.5"
"1858","20535.09"
"1859","20564.69"
"1860","20482.31"
"1861","20359.21"
"1862","20311.81"
"1863","20380.15"
"1864","20466.03"
"1865","20467.24"
"1866","20394.39"
"1867","20325.34"
"1868","20309.24"
"1869","20311.48"
"1870","20285.04"
"1871","20228.27"
"1872","20180.18"
"1873","20175.07"
"1874","20219.51"
"1875","20311.82"
"1876","20422.75"
"1877","20487.04"
"1878","20451.03"
"1879","20356.56"
"1880","20284.71"
"1881","20281.74"
"1882","20328.23"
"1883","20396.25"
"1884","20445.4"
"1885","20427.91"
"1886","20326.59"
"1887","20206.18"
"1888","20141.46"
"1889","20148.8"
"1890","20197.02"
"1891","20254.63"
"1892","20294.43"
"1893","20291.22"
"1894","20247.98"
"1895","20198.32"
"1896","20171.64"
"1897","20167.46"
"1898","20175.75"
"1899","20189.63"
"1900","20206.69"
"1901","20223.89"
"1902","20231.81"
"1903","20218.38"
"1904","20177.77"
"1905","20115.55"
"1906","20040.07"
"1907","19973.94"
"1908","19947.45"
"1909","19974.82"
"1910","20033.7"
"1911","20097.11"
"1912","20144.24"
"1913","20158.26"
"1914","20135.06"
"1915","20105.7"
"1916","20104.47"
"1917","20120.02"
"1918","20104.83"
"1919","20034.64"
"1920","19966.5"
"1921","19970.78"
"1922","20041.32"
"1923","20101.47"
"1924","20095.03"
"1925","20057.07"
"1926","20043.15"
"1927","20058.78"
"1928","20057.12"
"1929","20005.12"
"1930","19942.78"
"1931","19928.83"
"1932","19963.98"
"1933","19981.83"
"1934","19929.69"
"1935","19842.78"
"1936","19782.46"
"1937","19767.83"
"1938","19764.89"
"1939","19745.99"
"1940","19735.66"
"1941","19774.9"
"1942","19859.67"
"1943","19926.39"
"1944","19921.79"
"1945","19874.83"
"1946","19842.48"
"1947","19845.95"
"1948","19857.56"
"1949","19849.63"
"1950","19815.15"
"1951","19754.85"
"1952","19686.8"
"1953","19652.79"
"1954","19685.44"
"1955","19754.65"
"1956","19808.41"
"1957","19813.59"
"1958","19762.5"
"1959","19659.18"
"1960","19562.38"
"1961","19547.75"
"1962","19613.12"
"1963","19656.05"
"1964","19595.84"
"1965","19499.68"
"1966","19479.92"
"1967","19557.03"
"1968","19640.53"
"1969","19652.57"
"1970","19607.08"
"1971","19544.7"
"1972","19493.22"
"1973","19466.32"
"1974","19470.68"
"1975","19486.52"
"1976","19487.21"
"1977","19449.85"
"1978","19355.23"
"1979","19209.9"
"1980","19113.44"
"1981","19178.35"
"1982","19365.84"
"1983","19507.24"
"1984","19482.76"
"1985","19336.82"
"1986","19145.29"
"1987","18982.38"
"1988","18921.01"
"1989","18987.25"
"1990","19088.09"
"1991","19121.39"
"1992","19089.9"
"1993","19059.64"
"1994","19063.64"
"1995","19065.17"
"1996","19027.41"
"1997","18983.49"
"1998","18999.67"
"1999","19073.5"
"2000","19089.61"
"2001","18951.7"
"2002","18746.99"
"2003","18630.15"
"2004","18659.85"
"2005","18771.67"
"2006","18894.82"
"2007","18967.18"
"2008","18932.66"
"2009","18818.05"
"2010","18731.52"
"2011","18739.06"
"2012","18754.04"
"2013","18667.97"
"2014","18515.12"
"2015","18434.61"
"2016","18501.67"
"2017","18632.65"
"2018","18728.11"
"2019","18759.29"
"2020","18735.15"
"2021","18669.09"
"2022","18581.41"
"2023","18492.25"
"2024","18416.38"
"2025","18366.31"
"2026","18344.34"
"2027","18340.53"
"2028","18347.56"
"2029","18371.53"
"2030","18420.2"
"2031","18472.78"
"2032","18484.86"
"2033","18439.23"
"2034","18391.59"
"2035","18399.02"
"2036","18418.05"
"2037","18350.13"
"2038","18180.79"
"2039","18039.54"
"2040","18038.27"
"2041","18104.24"
"2042","18102.37"
"2043","18007.45"
"2044","17916"
"2045","17896.63"
"2046","17897.68"
"2047","17847.85"
"2048","17765.19"
"2049","17730.76"
"2050","17781.82"
"2051","17860.14"
"2052","17903.94"
"2053","17913.81"
"2054","17916.73"
"2055","17913.71"
"2056","17872.14"
"2057","17769.94"
"2058","17636.34"
"2059","17513.16"
"2060","17435.57"
"2061","17433.48"
"2062","17509.9"
"2063","17607.17"
"2064","17665.58"
"2065","17674.23"
"2066","17644.34"
"2067","17590.77"
"2068","17532.85"
"2069","17492.93"
"2070","17503.6"
"2071","17593.22"
"2072","17692.51"
"2073","17659.81"
"2074","17455.88"
"2075","17260.51"
"2076","17243.24"
"2077","17316.92"
"2078","17295.04"
"2079","17160.95"
"2080","17093.76"
"2081","17207.4"
"2082","17362.47"
"2083","17383.51"
"2084","17282.07"
"2085","17185.29"
"2086","17154.99"
"2087","17138.93"
"2088","17085.57"
"2089","17003.69"
"2090","16920.73"
"2091","16856.94"
"2092","16826.11"
"2093","16833.37"
"2094","16863.39"
"2095","16899.51"
"2096","16938.03"
"2097","16980.25"
"2098","17001.97"
"2099","16948.31"
"2100","16800.14"
"2101","16663.23"
"2102","16654.19"
"2103","16727.19"
"2104","16741.05"
"2105","16654.18"
"2106","16582.13"
"2107","16614.26"
"2108","16664.89"
"2109","16610.09"
"2110","16467.82"
"2111","16361.8"
"2112","16349.09"
"2113","16352.87"
"2114","16302.89"
"2115","16249.57"
"2116","16279.27"
"2117","16379.71"
"2118","16450.35"
"2119","16425.47"
"2120","16326.51"
"2121","16191.67"
"2122","16088.48"
"2123","16092.16"
"2124","16178.75"
"2125","16223.3"
"2126","16156.03"
"2127","16062.53"
"2128","16035.91"
"2129","16040.44"
"2130","15986.37"
"2131","15875.16"
"2132","15809.48"
"2133","15848.11"
"2134","15911.98"
"2135","15910.23"
"2136","15848.68"
"2137","15777.78"
"2138","15723.45"
"2139","15683.04"
"2140","15652.2"
"2141","15626.04"
"2142","15597.07"
"2143","15538.24"
"2144","15415.47"
"2145","15262.45"
"2146","15189.99"
"2147","15258.97"
"2148","15378.85"
"2149","15442.3"
"2150","15414.88"
"2151","15297.07"
"2152","15140.85"
"2153","15053.5"
"2154","15088.47"
"2155","15152.91"
"2156","15146.73"
"2157","15080.87"
"2158","15010.35"
"2159","14947.49"
"2160","14863"
"2161","14763.7"
"2162","14742.67"
"2163","14869.23"
"2164","15004.92"
"2165","14949.59"
"2166","14734.32"
"2167","14584.56"
"2168","14598.85"
"2169","14619.19"
"2170","14510.92"
"2171","14389.29"
"2172","14427.8"
"2173","14594.06"
"2174","14713.05"
"2175","14683.02"
"2176","14521.3"
"2177","14283.78"
"2178","14129.29"
"2179","14210.91"
"2180","14399.22"
"2181","14416.86"
"2182","14239.89"
"2183","14153.38"
"2184","14304.63"
"2185","14412.5"
"2186","14194.4"
"2187","13847.21"
"2188","13745.8"
"2189","13906.09"
"2190","14019.63"
"2191","13927.71"
"2192","13789.29"
"2193","13755.69"
"2194","13771.9"
"2195","13734.12"
"2196","13657.47"
"2197","13632.03"
"2198","13672.09"
"2199","13686.44"
"2200","13619.87"
"2201","13549.33"
"2202","13557.58"
"2203","13590.66"
"2204","13540.56"
"2205","13407.03"
"2206","13289.25"
"2207","13240.39"
"2208","13217.01"
"2209","13177.89"
"2210","13140.08"
"2211","13131.28"
"2212","13125.82"
"2213","13067.97"
"2214","12961.37"
"2215","12882.71"
"2216","12881.96"
"2217","12928.67"
"2218","12970.61"
"2219","12904.36"
"2220","12625"
"2221","12271.14"
"2222","12158.97"
"2223","12361.45"
"2224","12578.98"
"2225","12591.66"
"2226","12530.05"
"2227","12560.89"
"2228","12618.97"
"2229","12548.28"
"2230","12348.73"
"2231","12155.09"
"2232","12048.2"
"2233","12008.08"
"2234","12001.45"
"2235","11983.08"
"2236","11914.62"
"2237","11833.86"
"2238","11809.38"
"2239","11802.04"
"2240","11673.17"
"2241","11416.35"
"2242","11273.32"
"2243","11409.55"
"2244","11604.82"
"2245","11589.16"
"2246","11424.73"
"2247","11323.9"
"2248","11287.53"
"2249","11119.43"
"2250","10798.14"
"2251","10628.86"
"2252","10808.97"
"2253","11024.19"
"2254","10906.59"
"2255","10558.74"
"2256","10286.5"
"2257","10180.91"
"2258","10144.96"
"2259","10091.95"
"2260","9962.606"
"2261","9745.929"
"2262","9576.708"
"2263","9583.68"
"2264","9665.727"
"2265","9640.223"
"2266","9477.102"
"2267","9261.305"
"2268","9060.435"
"2269","8913.911"
"2270","8833.937"
"2271","8766.904"
"2272","8662.278"
"2273","8540.88"
"2274","8440.495"
"2275","8334.858"
"2276","8162.279"
"2277","7958.025"
"2278","7863.713"
"2279","7906.752"
"2280","7875.425"
"2281","7620.474"
"2282","7338.435"
"2283","7258.265"
"2284","7236.458"
"2285","6983.665"
"2286","6576.527"
"2287","6383.996"
"2288","6475.622"
"2289","6478.66"
"2290","6168.352"
"2291","5794.401"
"2292","5610.266"
"2293","5512.617"
"2294","5313.532"
"2295","5061.306"
"2296","4928.927"
"2297","4934.877"
"2298","4946.34"
"2299","4865.688"
"2300","4665.682"
