,"Scan 01038"
"400","13573.12"
"401","13543.26"
"402","13490.32"
"403","13424.29"
"404","13355.09"
"405","13291.69"
"406","13235.36"
"407","13183.44"
"408","13133.31"
"409","13083"
"410","13039.48"
"411","13015.86"
"412","13025.28"
"413","13079.89"
"414","13173"
"415","13280.4"
"416","13377.36"
"417","13439.9"
"418","13463.42"
"419","13467.22"
"420","13471.91"
"421","13497.76"
"422","13551.17"
"423","13616.32"
"424","13675.45"
"425","13711.01"
"426","13714.66"
"427","13697.24"
"428","13671.88"
"429","13651.66"
"430","13645"
"431","13648.08"
"432","13655.03"
"433","13660.06"
"434","13658.8"
"435","13651.85"
"436","13640.88"
"437","13627.52"
"438","13613.48"
"439","13600.68"
"440","13591.1"
"441","13586.7"
"442","13588.72"
"443","13594.34"
"444","13599.39"
"445","13599.73"
"446","13591.91"
"447","13576.82"
"448","13557.18"
"449","13535.66"
"450","13514.77"
"451","13495.38"
"452","13477.6"
"453","13461.52"
"454","13447.26"
"455","13435.09"
"456","13425.39"
"457","13418.52"
"458","13414.81"
"459","13414.03"
"460","13415.56"
"461","13418.81"
"462","13423.03"
"463","13425.36"
"464","13421.35"
"465","13406.56"
"466","13376.88"
"467","13333.57"
"468","13282.33"
"469","13228.96"
"470","13179.18"
"471","13137.52"
"472","13107.4"
"473","13092.18"
"474","13094.99"
"475","13113.38"
"476","13139.42"
"477","13165"
"478","13182.23"
"479","13187.74"
"480","13182.98"
"481","13169.6"
"482","13149.32"
"483","13125.28"
"484","13102.28"
"485","13085.16"
"486","13078.55"
"487","13080.65"
"488","13082.25"
"489","13073.78"
"490","13045.97"
"491","12998.8"
"492","12943.17"
"493","12890.58"
"494","12852.16"
"495","12829.14"
"496","12810.8"
"497","12785.74"
"498","12742.96"
"499","12681.17"
"500","12610.88"
"501","12543.19"
"502","12488.96"
"503","12452.62"
"504","12431.01"
"505","12420.51"
"506","12417.45"
"507","12415.41"
"508","12404.79"
"509","12375.88"
"510","12319.47"
"511","12239.39"
"512","12153.87"
"513","12081.79"
"514","12041.25"
"515","12033.34"
"516","12041.35"
"517","12047.8"
"518","12035.98"
"519","12003.82"
"520","11963.59"
"521","11928.08"
"522","11909.33"
"523","11905.45"
"524","11902.09"
"525","11884.54"
"526","11839.18"
"527","11769.83"
"528","11694.56"
"529","11631.75"
"530","11598.61"
"531","11596.68"
"532","11616.04"
"533","11646.51"
"534","11678.45"
"535","11707.54"
"536","11732.94"
"537","11753.86"
"538","11769.3"
"539","11775.9"
"540","11769"
"541","11743.95"
"542","11697.18"
"543","11633.95"
"544","11563.72"
"545","11495.97"
"546","11439.41"
"547","11397.84"
"548","11373.11"
"549","11367.03"
"550","11379.64"
"551","11401.4"
"552","11419.52"
"553","11421.3"
"554","11398.46"
"555","11361.85"
"556","11327.54"
"557","11311.52"
"558","11323.48"
"559","11351.45"
"560","11378.78"
"561","11388.9"
"562","11372.98"
"563","11343.29"
"564","11315.64"
"565","11305.72"
"566","11319.53"
"567","11342.32"
"568","11356.74"
"569","11345.67"
"570","11304.66"
"571","11250.51"
"572","11201.96"
"573","11177.35"
"574","11182.32"
"575","11206.05"
"576","11236.66"
"577","11262.63"
"578","11279.46"
"579","11289.7"
"580","11296.16"
"581","11301.55"
"582","11306.81"
"583","11311.55"
"584","11315.35"
"585","11317.81"
"586","11318.64"
"587","11317.61"
"588","11314.5"
"589","11308.85"
"590","11298.45"
"591","11280.39"
"592","11251.78"
"593","11211.54"
"594","11166.98"
"595","11127.85"
"596","11103.86"
"597","11100.33"
"598","11108.66"
"599","11117.46"
"600","11115.44"
"601","11097.55"
"602","11072.56"
"603","11051.04"
"604","11043.39"
"605","11050.2"
"606","11057.07"
"607","11048.4"
"608","11009.28"
"609","10941.73"
"610","10865.81"
"611","10802.37"
"612","10770.88"
"613","10772.1"
"614","10793.12"
"615","10820.75"
"616","10843.14"
"617","10859.31"
"618","10873.62"
"619","10890.44"
"620","10912.3"
"621","10932.13"
"622","10939.86"
"623","10925.47"
"624","10884.17"
"625","10828.01"
"626","10772.34"
"627","10732.39"
"628","10715.13"
"629","10710.96"
"630","10708.29"
"631","10695.8"
"632","10670.88"
"633","10642.11"
"634","10618.79"
"635","10609.65"
"636","10614.47"
"637","10625.64"
"638","10635.38"
"639","10636.81"
"640","10631.11"
"641","10623.59"
"642","10619.59"
"643","10623.68"
"644","10636.78"
"645","10658.63"
"646","10688.99"
"647","10726.02"
"648","10763.18"
"649","10793.13"
"650","10808.64"
"651","10807.01"
"652","10793.28"
"653","10773.19"
"654","10752.43"
"655","10735.32"
"656","10724.82"
"657","10723.82"
"658","10734.6"
"659","10752.78"
"660","10770.04"
"661","10778.02"
"662","10769.93"
"663","10747.68"
"664","10716.08"
"665","10679.97"
"666","10644.55"
"667","10616.17"
"668","10601.36"
"669","10606.56"
"670","10632.08"
"671","10668.14"
"672","10704.08"
"673","10729.52"
"674","10739.99"
"675","10736.44"
"676","10720.05"
"677","10692.3"
"678","10657.49"
"679","10621.37"
"680","10589.68"
"681","10565.91"
"682","10543.59"
"683","10513.62"
"684","10466.92"
"685","10404.45"
"686","10349.57"
"687","10328.61"
"688","10366.96"
"689","10460.51"
"690","10569.96"
"691","10654.03"
"692","10675.48"
"693","10642.97"
"694","10594.52"
"695","10568.56"
"696","10594.52"
"697","10655.05"
"698","10717.55"
"699","10749.48"
"700","10733.19"
"701","10688.45"
"702","10640.86"
"703","10615.48"
"704","10619.5"
"705","10637.25"
"706","10651.59"
"707","10647.06"
"708","10627.43"
"709","10609.2"
"710","10609.04"
"711","10638.99"
"712","10687.39"
"713","10734.99"
"714","10762.66"
"715","10759.19"
"716","10732.23"
"717","10692.13"
"718","10649.21"
"719","10614.68"
"720","10600.69"
"721","10619.43"
"722","10680.2"
"723","10764.16"
"724","10836.65"
"725","10862.92"
"726","10820.6"
"727","10737.98"
"728","10656.31"
"729","10616.5"
"730","10636.3"
"731","10690.9"
"732","10751.01"
"733","10788.56"
"734","10797.14"
"735","10789.16"
"736","10777.65"
"737","10773.56"
"738","10774.62"
"739","10773.28"
"740","10761.98"
"741","10737.65"
"742","10709.27"
"743","10687.85"
"744","10684.09"
"745","10699.49"
"746","10724.43"
"747","10748.61"
"748","10762.72"
"749","10766.31"
"750","10763.85"
"751","10759.83"
"752","10757.99"
"753","10759.33"
"754","10764.24"
"755","10773.07"
"756","10786.15"
"757","10803.67"
"758","10825.84"
"759","10852.42"
"760","10877.5"
"761","10891.36"
"762","10884.25"
"763","10850.93"
"764","10806.51"
"765","10771.73"
"766","10767.15"
"767","10798.6"
"768","10845.73"
"769","10885.54"
"770","10896.52"
"771","10878.29"
"772","10846.55"
"773","10817.36"
"774","10804.53"
"775","10810.84"
"776","10835.72"
"777","10878.56"
"778","10934.21"
"779","10989.07"
"780","11028.6"
"781","11039.43"
"782","11024.97"
"783","11001.64"
"784","10986.2"
"785","10991.24"
"786","11009.46"
"787","11027.53"
"788","11032.25"
"789","11018.62"
"790","10996.42"
"791","10976.93"
"792","10970.68"
"793","10977.97"
"794","10991.7"
"795","11004.65"
"796","11011.53"
"797","11015.35"
"798","11021.36"
"799","11034.73"
"800","11055.95"
"801","11078.23"
"802","11094.11"
"803","11096.99"
"804","11089.13"
"805","11078.22"
"806","11072.02"
"807","11076.01"
"808","11087.72"
"809","11102.98"
"810","11117.68"
"811","11129.41"
"812","11137.92"
"813","11143.12"
"814","11144.83"
"815","11142.62"
"816","11135.89"
"817","11124.04"
"818","11108.45"
"819","11095.43"
"820","11092.06"
"821","11104.98"
"822","11131.68"
"823","11161.25"
"824","11182.49"
"825","11186.9"
"826","11180.23"
"827","11172.86"
"828","11175.08"
"829","11188.86"
"830","11201.89"
"831","11200.44"
"832","11172.58"
"833","11125.77"
"834","11079.52"
"835","11053.51"
"836","11060.42"
"837","11090.41"
"838","11129.14"
"839","11162.56"
"840","11184.99"
"841","11199.83"
"842","11210.95"
"843","11221.33"
"844","11228.54"
"845","11228.15"
"846","11215.77"
"847","11193.02"
"848","11172.66"
"849","11168.65"
"850","11193.41"
"851","11241.43"
"852","11295.8"
"853","11339.43"
"854","11360.05"
"855","11360.55"
"856","11346.81"
"857","11324.68"
"858","11299.67"
"859","11276.85"
"860","11261.29"
"861","11257.39"
"862","11265.96"
"863","11286.59"
"864","11318.86"
"865","11358.27"
"866","11393.96"
"867","11414.5"
"868","11410.41"
"869","11389.06"
"870","11366.56"
"871","11359.07"
"872","11375.71"
"873","11408.65"
"874","11447.57"
"875","11482.54"
"876","11509.1"
"877","11526.95"
"878","11535.93"
"879","11536.98"
"880","11535.07"
"881","11536.07"
"882","11545.6"
"883","11562.15"
"884","11576.58"
"885","11579.38"
"886","11563.9"
"887","11538.44"
"888","11516.21"
"889","11510.26"
"890","11526.92"
"891","11562.63"
"892","11613.07"
"893","11673"
"894","11730.63"
"895","11771.2"
"896","11780.05"
"897","11753.58"
"898","11709.78"
"899","11669.08"
"900","11650.5"
"901","11658.32"
"902","11688.15"
"903","11735.49"
"904","11792.34"
"905","11841.85"
"906","11865.84"
"907","11847.79"
"908","11794.95"
"909","11732.02"
"910","11684.12"
"911","11669.47"
"912","11684.49"
"913","11721.31"
"914","11771.96"
"915","11826.54"
"916","11873.46"
"917","11901.03"
"918","11902.1"
"919","11886.74"
"920","11869.17"
"921","11863.2"
"922","11871.93"
"923","11887.42"
"924","11901.19"
"925","11906.63"
"926","11905.47"
"927","11901.8"
"928","11899.59"
"929","11900.13"
"930","11901.53"
"931","11901.7"
"932","11899.31"
"933","11896.9"
"934","11898.2"
"935","11906.83"
"936","11921.27"
"937","11933.51"
"938","11935.06"
"939","11919.55"
"940","11892.15"
"941","11862.01"
"942","11838.18"
"943","11826.4"
"944","11827.86"
"945","11843.41"
"946","11872.1"
"947","11902.42"
"948","11919.04"
"949","11906.97"
"950","11865.33"
"951","11812.93"
"952","11770.07"
"953","11753.86"
"954","11763.05"
"955","11789.69"
"956","11825.86"
"957","11864.71"
"958","11900.86"
"959","11929.05"
"960","11944.88"
"961","11948.7"
"962","11942.56"
"963","11928.55"
"964","11909.37"
"965","11888.59"
"966","11869.85"
"967","11856.47"
"968","11850.22"
"969","11852.34"
"970","11864"
"971","11883.78"
"972","11907.08"
"973","11929.08"
"974","11945.03"
"975","11950.3"
"976","11940.35"
"977","11910.82"
"978","11863.2"
"979","11805.51"
"980","11746.11"
"981","11693.07"
"982","11653.03"
"983","11632.3"
"984","11636.82"
"985","11665.07"
"986","11708.13"
"987","11756.74"
"988","11802.23"
"989","11837.93"
"990","11857.59"
"991","11855.73"
"992","11839.32"
"993","11825.84"
"994","11833.09"
"995","11870.14"
"996","11920.38"
"997","11962.44"
"998","11976.56"
"999","11963.87"
"1000","11939.94"
"1001","11920.62"
"1002","11916.56"
"1003","11926.03"
"1004","11945.54"
"1005","11971.59"
"1006","12000.01"
"1007","12022.14"
"1008","12027.49"
"1009","12005.83"
"1010","11961"
"1011","11917.1"
"1012","11899.77"
"1013","11928.13"
"1014","11985.69"
"1015","12043.91"
"1016","12074.84"
"1017","12069.6"
"1018","12041.7"
"1019","12005.92"
"1020","11976.7"
"1021","11966.97"
"1022","11989.21"
"1023","12054.9"
"1024","12154.58"
"1025","12259.4"
"1026","12339.74"
"1027","12376.79"
"1028","12385.74"
"1029","12388.42"
"1030","12405.01"
"1031","12433.2"
"1032","12454.94"
"1033","12451.89"
"1034","12416.37"
"1035","12364.92"
"1036","12317.44"
"1037","12291.67"
"1038","12286.79"
"1039","12292.54"
"1040","12298.66"
"1041","12298.56"
"1042","12291.53"
"1043","12277.39"
"1044","12256.92"
"1045","12236.3"
"1046","12223.56"
"1047","12226.44"
"1048","12244.72"
"1049","12269.42"
"1050","12291.13"
"1051","12303.44"
"1052","12310.72"
"1053","12319.69"
"1054","12336.43"
"1055","12358.23"
"1056","12375.97"
"1057","12380.43"
"1058","12369.12"
"1059","12354.34"
"1060","12350.33"
"1061","12368.76"
"1062","12401.89"
"1063","12433.13"
"1064","12446.14"
"1065","12437.38"
"1066","12420.49"
"1067","12410.37"
"1068","12418.48"
"1069","12441.95"
"1070","12474.08"
"1071","12508.24"
"1072","12538.53"
"1073","12559.67"
"1074","12566.4"
"1075","12557.13"
"1076","12538.73"
"1077","12519.33"
"1078","12506.21"
"1079","12500.33"
"1080","12499.75"
"1081","12502.52"
"1082","12507.06"
"1083","12512.31"
"1084","12517.23"
"1085","12520.85"
"1086","12522.55"
"1087","12521.76"
"1088","12517.97"
"1089","12511.27"
"1090","12502.2"
"1091","12491.29"
"1092","12478.53"
"1093","12462.83"
"1094","12442.97"
"1095","12418.82"
"1096","12396.36"
"1097","12383.81"
"1098","12388.94"
"1099","12409.57"
"1100","12433.71"
"1101","12448.94"
"1102","12447.79"
"1103","12435.98"
"1104","12421.42"
"1105","12411.2"
"1106","12405.94"
"1107","12403.08"
"1108","12400.17"
"1109","12396.97"
"1110","12396.14"
"1111","12400.54"
"1112","12411.71"
"1113","12426.8"
"1114","12442.04"
"1115","12453.62"
"1116","12457.44"
"1117","12449.25"
"1118","12424.97"
"1119","12390.06"
"1120","12364.11"
"1121","12367.85"
"1122","12412.54"
"1123","12472.01"
"1124","12510.83"
"1125","12497.02"
"1126","12439.34"
"1127","12373.19"
"1128","12334.12"
"1129","12335.18"
"1130","12353.59"
"1131","12363.36"
"1132","12346.22"
"1133","12316.09"
"1134","12295.27"
"1135","12304.03"
"1136","12338.11"
"1137","12376.91"
"1138","12399.76"
"1139","12400.99"
"1140","12398.62"
"1141","12412.78"
"1142","12454.69"
"1143","12500.1"
"1144","12515.96"
"1145","12473.33"
"1146","12389.23"
"1147","12309.25"
"1148","12278.79"
"1149","12311"
"1150","12372.73"
"1151","12427.25"
"1152","12447.64"
"1153","12440.87"
"1154","12421.26"
"1155","12402.4"
"1156","12391.15"
"1157","12390.76"
"1158","12404.24"
"1159","12427.22"
"1160","12446.53"
"1161","12448.46"
"1162","12427.94"
"1163","12403.63"
"1164","12398.24"
"1165","12429.96"
"1166","12486.4"
"1167","12542.42"
"1168","12573.69"
"1169","12573.27"
"1170","12550.3"
"1171","12514.51"
"1172","12476.24"
"1173","12446.96"
"1174","12438.3"
"1175","12458.11"
"1176","12496.58"
"1177","12538.76"
"1178","12570.4"
"1179","12586.03"
"1180","12585.84"
"1181","12570.28"
"1182","12545.71"
"1183","12526.51"
"1184","12527.71"
"1185","12558.14"
"1186","12608.46"
"1187","12665.95"
"1188","12718.97"
"1189","12763.58"
"1190","12798.99"
"1191","12824.4"
"1192","12838.6"
"1193","12840.02"
"1194","12827.11"
"1195","12802.88"
"1196","12778.43"
"1197","12765.64"
"1198","12771.79"
"1199","12786.74"
"1200","12796.22"
"1201","12788.01"
"1202","12766.92"
"1203","12746.34"
"1204","12739.12"
"1205","12744.56"
"1206","12748.43"
"1207","12735.96"
"1208","12702.11"
"1209","12660.91"
"1210","12628.58"
"1211","12618.11"
"1212","12629.2"
"1213","12658.21"
"1214","12700.76"
"1215","12746.14"
"1216","12780.31"
"1217","12789.76"
"1218","12773.4"
"1219","12742.43"
"1220","12708.54"
"1221","12681.7"
"1222","12668.69"
"1223","12675.9"
"1224","12705.12"
"1225","12741.08"
"1226","12764.58"
"1227","12759.56"
"1228","12733.93"
"1229","12706.52"
"1230","12695.52"
"1231","12706.59"
"1232","12734.78"
"1233","12774.75"
"1234","12818.48"
"1235","12853.82"
"1236","12868.25"
"1237","12857.08"
"1238","12838.02"
"1239","12832.72"
"1240","12857.7"
"1241","12900.82"
"1242","12940.16"
"1243","12955.81"
"1244","12950.84"
"1245","12942.75"
"1246","12948.63"
"1247","12968.11"
"1248","12981.65"
"1249","12968.85"
"1250","12926.31"
"1251","12883.26"
"1252","12872.64"
"1253","12913.9"
"1254","12979.79"
"1255","13032.98"
"1256","13043.41"
"1257","13027.88"
"1258","13021.65"
"1259","13056.4"
"1260","13118.07"
"1261","13161.46"
"1262","13142.23"
"1263","13059.64"
"1264","12962.56"
"1265","12902.36"
"1266","12903.52"
"1267","12939.44"
"1268","12977.8"
"1269","12995.59"
"1270","13000.27"
"1271","13005.49"
"1272","13021.67"
"1273","13040.93"
"1274","13048.91"
"1275","13033.2"
"1276","13001.53"
"1277","12973.55"
"1278","12968.16"
"1279","12985.47"
"1280","13007.94"
"1281","13017.5"
"1282","13008.36"
"1283","12993"
"1284","12985.39"
"1285","12994.12"
"1286","13014.74"
"1287","13040.9"
"1288","13066.15"
"1289","13083.68"
"1290","13086.59"
"1291","13070.24"
"1292","13044.93"
"1293","13026.94"
"1294","13031.22"
"1295","13057.85"
"1296","13097.56"
"1297","13141.04"
"1298","13180.42"
"1299","13209.28"
"1300","13221.34"
"1301","13215.82"
"1302","13199.82"
"1303","13181.02"
"1304","13164.14"
"1305","13147.48"
"1306","13128.54"
"1307","13107.47"
"1308","13093.36"
"1309","13097.13"
"1310","13125.18"
"1311","13160.69"
"1312","13179.44"
"1313","13160.86"
"1314","13113.88"
"1315","13061.56"
"1316","13025.89"
"1317","13013.38"
"1318","13019.77"
"1319","13040.37"
"1320","13066.5"
"1321","13085.48"
"1322","13084.68"
"1323","13061.73"
"1324","13028.76"
"1325","12998.93"
"1326","12980.17"
"1327","12969.85"
"1328","12964.15"
"1329","12960.25"
"1330","12958.26"
"1331","12958.8"
"1332","12962.1"
"1333","12966.86"
"1334","12971.39"
"1335","12970.16"
"1336","12935.46"
"1337","12831.47"
"1338","12629.52"
"1339","12361.31"
"1340","12088.9"
"1341","11870.81"
"1342","11718.62"
"1343","11611.91"
"1344","11531.48"
"1345","11493"
"1346","11543.71"
"1347","11730.06"
"1348","12034.16"
"1349","12361.32"
"1350","12613.26"
"1351","12750.19"
"1352","12823.76"
"1353","12893.4"
"1354","12986.58"
"1355","13065.42"
"1356","13084.01"
"1357","13022.23"
"1358","12929.04"
"1359","12864.94"
"1360","12870.62"
"1361","12917.06"
"1362","12959.86"
"1363","12966.29"
"1364","12957.25"
"1365","12969.12"
"1366","13029.13"
"1367","13110"
"1368","13164.23"
"1369","13150.04"
"1370","13070.51"
"1371","12949.72"
"1372","12812.95"
"1373","12696.33"
"1374","12642.31"
"1375","12688.77"
"1376","12810.7"
"1377","12938.22"
"1378","13003.84"
"1379","13001.28"
"1380","12977.21"
"1381","12978.46"
"1382","13012.37"
"1383","13045.29"
"1384","13042.52"
"1385","12999.72"
"1386","12950.02"
"1387","12928.35"
"1388","12940.18"
"1389","12948.03"
"1390","12911.42"
"1391","12822.66"
"1392","12730.33"
"1393","12688.35"
"1394","12719.78"
"1395","12785.88"
"1396","12840.58"
"1397","12854.96"
"1398","12840"
"1399","12812.37"
"1400","12786.16"
"1401","12768.52"
"1402","12765.49"
"1403","12779.83"
"1404","12804.25"
"1405","12829.54"
"1406","12847.75"
"1407","12855.49"
"1408","12850.34"
"1409","12831.61"
"1410","12805.42"
"1411","12779.57"
"1412","12760.28"
"1413","12746.65"
"1414","12735.84"
"1415","12726.45"
"1416","12724.38"
"1417","12737.74"
"1418","12770.96"
"1419","12808.22"
"1420","12826.88"
"1421","12810.28"
"1422","12777.36"
"1423","12760.11"
"1424","12783.44"
"1425","12826.79"
"1426","12851.68"
"1427","12827.61"
"1428","12779.42"
"1429","12755.1"
"1430","12795.12"
"1431","12884.18"
"1432","12982.31"
"1433","13053.46"
"1434","13092.55"
"1435","13108.79"
"1436","13111.67"
"1437","13112.18"
"1438","13122.07"
"1439","13150.69"
"1440","13187.82"
"1441","13213.65"
"1442","13211.5"
"1443","13191.8"
"1444","13178.49"
"1445","13192.08"
"1446","13223.38"
"1447","13248.25"
"1448","13245.49"
"1449","13220"
"1450","13189.74"
"1451","13170.69"
"1452","13160.94"
"1453","13149.7"
"1454","13127.17"
"1455","13091.98"
"1456","13046.91"
"1457","12996"
"1458","12952.91"
"1459","12935.9"
"1460","12958.49"
"1461","12998.18"
"1462","13015.81"
"1463","12978.38"
"1464","12897.77"
"1465","12805.63"
"1466","12730.65"
"1467","12680.87"
"1468","12655.64"
"1469","12652.43"
"1470","12656.5"
"1471","12648.37"
"1472","12612.25"
"1473","12554.26"
"1474","12488.49"
"1475","12428.98"
"1476","12389.33"
"1477","12382.99"
"1478","12416.33"
"1479","12460.96"
"1480","12477.83"
"1481","12438.99"
"1482","12365.76"
"1483","12293.07"
"1484","12248.45"
"1485","12230.12"
"1486","12229.06"
"1487","12236.32"
"1488","12243.23"
"1489","12241.18"
"1490","12226.38"
"1491","12209.88"
"1492","12205.55"
"1493","12220.04"
"1494","12240.53"
"1495","12250.99"
"1496","12240.28"
"1497","12208.73"
"1498","12158.32"
"1499","12099.16"
"1500","12057.66"
"1501","12061.92"
"1502","12114.66"
"1503","12174.86"
"1504","12197.79"
"1505","12171.48"
"1506","12132.37"
"1507","12119.84"
"1508","12139.24"
"1509","12153.29"
"1510","12123.59"
"1511","12052.56"
"1512","11985.7"
"1513","11968.38"
"1514","12004.41"
"1515","12060.84"
"1516","12105.06"
"1517","12126.89"
"1518","12132.65"
"1519","12128.65"
"1520","12117.05"
"1521","12097.47"
"1522","12070.3"
"1523","12042.27"
"1524","12023.19"
"1525","12020.03"
"1526","12021.52"
"1527","12009.32"
"1528","11967.98"
"1529","11896.33"
"1530","11797.62"
"1531","11677.45"
"1532","11550.48"
"1533","11433.48"
"1534","11338.66"
"1535","11264.96"
"1536","11208.92"
"1537","11172.63"
"1538","11170.51"
"1539","11218.46"
"1540","11316.5"
"1541","11437.41"
"1542","11551.51"
"1543","11638.88"
"1544","11692.49"
"1545","11707.07"
"1546","11698.11"
"1547","11702.14"
"1548","11753.44"
"1549","11837.61"
"1550","11902.59"
"1551","11901.33"
"1552","11847.35"
"1553","11789.45"
"1554","11770.95"
"1555","11793.55"
"1556","11841.09"
"1557","11896.64"
"1558","11939.99"
"1559","11949.89"
"1560","11916.95"
"1561","11873.4"
"1562","11860.54"
"1563","11897.31"
"1564","11947.32"
"1565","11966.01"
"1566","11932.94"
"1567","11870.24"
"1568","11804.08"
"1569","11748.69"
"1570","11703.26"
"1571","11666.55"
"1572","11648.59"
"1573","11669.6"
"1574","11746.5"
"1575","11853.93"
"1576","11939.35"
"1577","11957.5"
"1578","11920.22"
"1579","11864.76"
"1580","11823.97"
"1581","11808.52"
"1582","11822.48"
"1583","11864.98"
"1584","11919.48"
"1585","11966.35"
"1586","11991.1"
"1587","11989.98"
"1588","11960.81"
"1589","11911.96"
"1590","11866.69"
"1591","11848.44"
"1592","11859.08"
"1593","11879.65"
"1594","11891.05"
"1595","11882.53"
"1596","11848.74"
"1597","11787.93"
"1598","11722.63"
"1599","11685.69"
"1600","11699.91"
"1601","11744.54"
"1602","11787.17"
"1603","11805.93"
"1604","11807.17"
"1605","11801.92"
"1606","11799.13"
"1607","11804.35"
"1608","11822.85"
"1609","11861.26"
"1610","11927.74"
"1611","12027.91"
"1612","12132.51"
"1613","12187.74"
"1614","12150.03"
"1615","12054.54"
"1616","11971.3"
"1617","11950.76"
"1618","11959.05"
"1619","11939.94"
"1620","11865.7"
"1621","11780.7"
"1622","11739.99"
"1623","11762.78"
"1624","11813.12"
"1625","11851.9"
"1626","11873.25"
"1627","11902.9"
"1628","11963.28"
"1629","12030.23"
"1630","12052.4"
"1631","11993.59"
"1632","11903.33"
"1633","11860.57"
"1634","11912.21"
"1635","12005.31"
"1636","12067.88"
"1637","12062.07"
"1638","12011.29"
"1639","11945.22"
"1640","11888.77"
"1641","11861.86"
"1642","11881.28"
"1643","11931.68"
"1644","11977.46"
"1645","11989.46"
"1646","11977.92"
"1647","11967.15"
"1648","11973.6"
"1649","11989.04"
"1650","12000.58"
"1651","12005.88"
"1652","12020.84"
"1653","12062.13"
"1654","12122.14"
"1655","12169.21"
"1656","12173.69"
"1657","12136.06"
"1658","12073.66"
"1659","12003.83"
"1660","11942.67"
"1661","11905.87"
"1662","11894.12"
"1663","11869.86"
"1664","11790.62"
"1665","11662.99"
"1666","11561.27"
"1667","11558.3"
"1668","11630.07"
"1669","11678.35"
"1670","11621.96"
"1671","11507.62"
"1672","11434.8"
"1673","11466.25"
"1674","11541.5"
"1675","11574.89"
"1676","11528.07"
"1677","11444.12"
"1678","11372.62"
"1679","11330.47"
"1680","11304.42"
"1681","11281.91"
"1682","11265.5"
"1683","11265.07"
"1684","11285.74"
"1685","11313.8"
"1686","11331.06"
"1687","11323.86"
"1688","11287.26"
"1689","11218.26"
"1690","11135.16"
"1691","11077.39"
"1692","11079.35"
"1693","11123.81"
"1694","11167.25"
"1695","11174.87"
"1696","11147.15"
"1697","11093.27"
"1698","11029.26"
"1699","10984"
"1700","10986.36"
"1701","11035.24"
"1702","11101.08"
"1703","11155.49"
"1704","11188.34"
"1705","11198.11"
"1706","11185.34"
"1707","11157.49"
"1708","11123.62"
"1709","11096.04"
"1710","11092.38"
"1711","11129.11"
"1712","11195.14"
"1713","11257.12"
"1714","11284.63"
"1715","11270.04"
"1716","11214.49"
"1717","11129.47"
"1718","11054.74"
"1719","11033.83"
"1720","11069.71"
"1721","11113.37"
"1722","11117.01"
"1723","11083.71"
"1724","11047.77"
"1725","11036.88"
"1726","11047.34"
"1727","11066.83"
"1728","11086.55"
"1729","11104.5"
"1730","11119.58"
"1731","11133.59"
"1732","11150.83"
"1733","11173.45"
"1734","11188.4"
"1735","11176.43"
"1736","11129.33"
"1737","11069.42"
"1738","11023.8"
"1739","11003.68"
"1740","11000.88"
"1741","11006.81"
"1742","11021.04"
"1743","11047.65"
"1744","11085.7"
"1745","11115.38"
"1746","11112.79"
"1747","11075.66"
"1748","11035.89"
"1749","11025.93"
"1750","11045.33"
"1751","11070.51"
"1752","11080.76"
"1753","11071.67"
"1754","11043.72"
"1755","11004.47"
"1756","10975.11"
"1757","10976.42"
"1758","10995.35"
"1759","10990.78"
"1760","10932.2"
"1761","10853.99"
"1762","10813.07"
"1763","10836.6"
"1764","10886.69"
"1765","10918.22"
"1766","10915.2"
"1767","10888.54"
"1768","10850.33"
"1769","10813.55"
"1770","10791.52"
"1771","10788.14"
"1772","10785.25"
"1773","10762.66"
"1774","10724.49"
"1775","10698.32"
"1776","10707.44"
"1777","10741.59"
"1778","10777.39"
"1779","10802.09"
"1780","10827.98"
"1781","10869.95"
"1782","10922.06"
"1783","10958.65"
"1784","10958.44"
"1785","10931.7"
"1786","10900.5"
"1787","10883.07"
"1788","10888.97"
"1789","10925.42"
"1790","10976.67"
"1791","11006.96"
"1792","10987.09"
"1793","10927.25"
"1794","10850.85"
"1795","10778.56"
"1796","10725.71"
"1797","10705.51"
"1798","10708.62"
"1799","10708.62"
"1800","10685.56"
"1801","10650.59"
"1802","10623.46"
"1803","10617.5"
"1804","10635.82"
"1805","10679.24"
"1806","10733.93"
"1807","10776.98"
"1808","10791.72"
"1809","10783.7"
"1810","10763.45"
"1811","10746.45"
"1812","10754.37"
"1813","10803.26"
"1814","10862.04"
"1815","10877.48"
"1816","10823.98"
"1817","10746.38"
"1818","10698.58"
"1819","10692.97"
"1820","10703.53"
"1821","10706.47"
"1822","10698.07"
"1823","10681.16"
"1824","10657.79"
"1825","10628.49"
"1826","10594.31"
"1827","10563.49"
"1828","10548.94"
"1829","10559.64"
"1830","10590.8"
"1831","10634.42"
"1832","10674.24"
"1833","10684.41"
"1834","10647.2"
"1835","10603.95"
"1836","10620.21"
"1837","10711.32"
"1838","10786.45"
"1839","10749.44"
"1840","10621.68"
"1841","10511.67"
"1842","10499.25"
"1843","10545.12"
"1844","10582.19"
"1845","10583.06"
"1846","10570.5"
"1847","10565.63"
"1848","10555.17"
"1849","10511.09"
"1850","10428.46"
"1851","10351.6"
"1852","10327.38"
"1853","10349.9"
"1854","10375.16"
"1855","10372.07"
"1856","10359.52"
"1857","10366.7"
"1858","10392.15"
"1859","10399.07"
"1860","10359.89"
"1861","10315.73"
"1862","10333.17"
"1863","10422.6"
"1864","10492.82"
"1865","10453.46"
"1866","10336.63"
"1867","10247.59"
"1868","10253.6"
"1869","10311.49"
"1870","10360.62"
"1871","10377.71"
"1872","10373.03"
"1873","10358.46"
"1874","10347.71"
"1875","10354.58"
"1876","10376.4"
"1877","10388.92"
"1878","10371.9"
"1879","10342.2"
"1880","10331.86"
"1881","10351.22"
"1882","10369.93"
"1883","10357.29"
"1884","10326.81"
"1885","10318.14"
"1886","10352.47"
"1887","10400.91"
"1888","10428.14"
"1889","10429.81"
"1890","10426.8"
"1891","10431.86"
"1892","10424.49"
"1893","10377.91"
"1894","10306.39"
"1895","10268.71"
"1896","10307.8"
"1897","10372.84"
"1898","10384.16"
"1899","10323.28"
"1900","10258.39"
"1901","10253.17"
"1902","10293.37"
"1903","10331.98"
"1904","10338.59"
"1905","10313.15"
"1906","10260.91"
"1907","10206.15"
"1908","10183.36"
"1909","10203.36"
"1910","10223.17"
"1911","10198.16"
"1912","10154.41"
"1913","10164.81"
"1914","10261.75"
"1915","10362.41"
"1916","10370.61"
"1917","10296.34"
"1918","10233.55"
"1919","10243.85"
"1920","10272.28"
"1921","10243.35"
"1922","10161.16"
"1923","10103.1"
"1924","10123.49"
"1925","10174.78"
"1926","10186.67"
"1927","10147.5"
"1928","10107.03"
"1929","10106.73"
"1930","10137.68"
"1931","10177.04"
"1932","10208.4"
"1933","10222.82"
"1934","10215.44"
"1935","10199.43"
"1936","10193.06"
"1937","10194.12"
"1938","10174.71"
"1939","10114.11"
"1940","10038.99"
"1941","9991.436"
"1942","9992.022"
"1943","10032.85"
"1944","10100.12"
"1945","10158"
"1946","10163.75"
"1947","10114.79"
"1948","10063.28"
"1949","10056.22"
"1950","10087.5"
"1951","10132.11"
"1952","10168.79"
"1953","10181.55"
"1954","10159.6"
"1955","10120.01"
"1956","10089.53"
"1957","10084.1"
"1958","10105.14"
"1959","10149.08"
"1960","10190.58"
"1961","10197.41"
"1962","10161.64"
"1963","10106.71"
"1964","10056.33"
"1965","10024.47"
"1966","10021.89"
"1967","10053.4"
"1968","10116.71"
"1969","10199.43"
"1970","10243.76"
"1971","10181.8"
"1972","10041.45"
"1973","9956.229"
"1974","10019.73"
"1975","10133.68"
"1976","10154.73"
"1977","10065.91"
"1978","9974.668"
"1979","9964.39"
"1980","10010.91"
"1981","10066.79"
"1982","10106.61"
"1983","10123.92"
"1984","10116.34"
"1985","10092.3"
"1986","10062.18"
"1987","10034.49"
"1988","10016.38"
"1989","10009.2"
"1990","9999.756"
"1991","9975.409"
"1992","9954.348"
"1993","9973.241"
"1994","10035.2"
"1995","10073.8"
"1996","10027.38"
"1997","9944.156"
"1998","9924.986"
"1999","9998.519"
"2000","10074.52"
"2001","10068"
"2002","9995.679"
"2003","9912.403"
"2004","9851.999"
"2005","9821.256"
"2006","9822.313"
"2007","9844.009"
"2008","9871.882"
"2009","9903.703"
"2010","9949.244"
"2011","10005.48"
"2012","10025.14"
"2013","9958.237"
"2014","9847.605"
"2015","9804.197"
"2016","9873.606"
"2017","9941.203"
"2018","9886.98"
"2019","9758.809"
"2020","9693.381"
"2021","9748.36"
"2022","9845.423"
"2023","9903.476"
"2024","9906.134"
"2025","9861.602"
"2026","9793.696"
"2027","9744.86"
"2028","9747.332"
"2029","9787.695"
"2030","9840.911"
"2031","9878.847"
"2032","9870.835"
"2033","9806.553"
"2034","9728.979"
"2035","9684.334"
"2036","9666.157"
"2037","9638.937"
"2038","9589.797"
"2039","9544.962"
"2040","9529.174"
"2041","9536.268"
"2042","9549.325"
"2043","9560.725"
"2044","9573.141"
"2045","9586.153"
"2046","9586.708"
"2047","9561.099"
"2048","9523.859"
"2049","9509.389"
"2050","9527.729"
"2051","9536.577"
"2052","9496.649"
"2053","9438.397"
"2054","9421.263"
"2055","9451.354"
"2056","9465.987"
"2057","9418.172"
"2058","9342.806"
"2059","9292.949"
"2060","9283.469"
"2061","9299.497"
"2062","9325.858"
"2063","9348.565"
"2064","9354.813"
"2065","9339.889"
"2066","9303.043"
"2067","9255.322"
"2068","9223.095"
"2069","9226.57"
"2070","9257.261"
"2071","9298.749"
"2072","9323.11"
"2073","9293.961"
"2074","9204.38"
"2075","9109.833"
"2076","9064.157"
"2077","9056.565"
"2078","9050.258"
"2079","9020.543"
"2080","8956.783"
"2081","8863.805"
"2082","8795.156"
"2083","8805.891"
"2084","8853.944"
"2085","8837.627"
"2086","8727.847"
"2087","8620.307"
"2088","8603.143"
"2089","8663.367"
"2090","8756.373"
"2091","8843.596"
"2092","8891.883"
"2093","8882.81"
"2094","8833.274"
"2095","8765.612"
"2096","8703.11"
"2097","8668.903"
"2098","8664.72"
"2099","8666.529"
"2100","8655.904"
"2101","8638.308"
"2102","8623.576"
"2103","8615.274"
"2104","8613.204"
"2105","8615.347"
"2106","8616.954"
"2107","8614.193"
"2108","8608.401"
"2109","8600.95"
"2110","8573.678"
"2111","8494.078"
"2112","8367.56"
"2113","8273.329"
"2114","8282.328"
"2115","8372.879"
"2116","8491.499"
"2117","8580.47"
"2118","8578.443"
"2119","8467.121"
"2120","8327.211"
"2121","8241.989"
"2122","8219.94"
"2123","8239.707"
"2124","8279.089"
"2125","8315.125"
"2126","8333.771"
"2127","8344.311"
"2128","8356.68"
"2129","8358.088"
"2130","8326.869"
"2131","8276.124"
"2132","8257.439"
"2133","8291.913"
"2134","8309.691"
"2135","8239.588"
"2136","8124.968"
"2137","8060.57"
"2138","8064.665"
"2139","8067.276"
"2140","8024.002"
"2141","7977.904"
"2142","7979.751"
"2143","8017.628"
"2144","8050.833"
"2145","8065.55"
"2146","8078.772"
"2147","8093.733"
"2148","8070.658"
"2149","7976.129"
"2150","7880.758"
"2151","7897.862"
"2152","8017.353"
"2153","8095.924"
"2154","8044.192"
"2155","7929.791"
"2156","7836.587"
"2157","7787.487"
"2158","7780.038"
"2159","7807.161"
"2160","7857.313"
"2161","7913.63"
"2162","7947.691"
"2163","7935.596"
"2164","7889.468"
"2165","7834.544"
"2166","7797.925"
"2167","7807.966"
"2168","7851.514"
"2169","7835.582"
"2170","7694.923"
"2171","7539.437"
"2172","7517.885"
"2173","7607.704"
"2174","7667.861"
"2175","7631.334"
"2176","7550.434"
"2177","7474.532"
"2178","7403.69"
"2179","7329.061"
"2180","7264.215"
"2181","7234.605"
"2182","7249.255"
"2183","7297.106"
"2184","7359.294"
"2185","7399.147"
"2186","7386.31"
"2187","7353.498"
"2188","7355.765"
"2189","7379.759"
"2190","7350.481"
"2191","7236.001"
"2192","7093.522"
"2193","6985.103"
"2194","6946.476"
"2195","6998.87"
"2196","7080.996"
"2197","7080.34"
"2198","6976.225"
"2199","6875.05"
"2200","6855.307"
"2201","6882.889"
"2202","6908.876"
"2203","6930.147"
"2204","6962.334"
"2205","6999.443"
"2206","7015.486"
"2207","6991.964"
"2208","6926.451"
"2209","6829.765"
"2210","6761.963"
"2211","6785.377"
"2212","6845.177"
"2213","6819.842"
"2214","6691.046"
"2215","6567.724"
"2216","6526.299"
"2217","6539.396"
"2218","6566.098"
"2219","6582.44"
"2220","6571.548"
"2221","6533.106"
"2222","6479.189"
"2223","6423.597"
"2224","6382.232"
"2225","6365.048"
"2226","6362.541"
"2227","6363.829"
"2228","6375.417"
"2229","6410.417"
"2230","6466.727"
"2231","6528.895"
"2232","6570.648"
"2233","6547.998"
"2234","6439.586"
"2235","6311.577"
"2236","6240.024"
"2237","6222.724"
"2238","6220.675"
"2239","6199.33"
"2240","6128.898"
"2241","6018.68"
"2242","5948.894"
"2243","5971.844"
"2244","6006.629"
"2245","5953.609"
"2246","5815.549"
"2247","5645.071"
"2248","5502.243"
"2249","5453.2"
"2250","5506.003"
"2251","5564.137"
"2252","5550.297"
"2253","5496.292"
"2254","5453.405"
"2255","5434.243"
"2256","5433.651"
"2257","5443.81"
"2258","5454.527"
"2259","5448.514"
"2260","5397.083"
"2261","5290.08"
"2262","5179.8"
"2263","5119.908"
"2264","5091.325"
"2265","5049.556"
"2266","5002.946"
"2267","4998.468"
"2268","5021.935"
"2269","4973.129"
"2270","4809.579"
"2271","4656.306"
"2272","4626.883"
"2273","4635.19"
"2274","4546.502"
"2275","4394.941"
"2276","4313.369"
"2277","4326.55"
"2278","4338.962"
"2279","4283.934"
"2280","4165.077"
"2281","4009.041"
"2282","3897.824"
"2283","3904.922"
"2284","3941.141"
"2285","3854.148"
"2286","3662.479"
"2287","3522.061"
"2288","3496.415"
"2289","3510.387"
"2290","3497.943"
"2291","3445.029"
"2292","3348.969"
"2293","3222.417"
"2294","3083.386"
"2295","2955.719"
"2296","2865.558"
"2297","2816.712"
"2298","2791.155"
"2299","2766.494"
"2300","2714.588"
