,"Scan 01017"
"400","9232.023"
"401","9196.982"
"402","9174.925"
"403","9173.554"
"404","9200.501"
"405","9260.997"
"406","9339.918"
"407","9411.906"
"408","9451.711"
"409","9436.384"
"410","9370.701"
"411","9278.682"
"412","9184.568"
"413","9111.662"
"414","9067.52"
"415","9045.021"
"416","9036.534"
"417","9034.555"
"418","9034.065"
"419","9033.108"
"420","9029.929"
"421","9022.798"
"422","9011.31"
"423","8997.165"
"424","8982.243"
"425","8968.413"
"426","8957.486"
"427","8951.173"
"428","8951.159"
"429","8959.114"
"430","8975.407"
"431","8996.902"
"432","9019.901"
"433","9040.731"
"434","9055.694"
"435","9060.948"
"436","9052.63"
"437","9026.915"
"438","8982.132"
"439","8926.014"
"440","8868.81"
"441","8820.701"
"442","8789.797"
"443","8773.191"
"444","8764.258"
"445","8756.418"
"446","8744.244"
"447","8729.866"
"448","8718.521"
"449","8715.418"
"450","8724.789"
"451","8742.996"
"452","8762.558"
"453","8776.019"
"454","8776.679"
"455","8765.1"
"456","8746"
"457","8724.115"
"458","8703.951"
"459","8687.576"
"460","8675.438"
"461","8667.954"
"462","8665.384"
"463","8665.675"
"464","8665.059"
"465","8659.74"
"466","8646.19"
"467","8624.817"
"468","8599.307"
"469","8573.429"
"470","8550.786"
"471","8532.252"
"472","8516.199"
"473","8500.917"
"474","8484.823"
"475","8469.017"
"476","8457.256"
"477","8453.392"
"478","8461.046"
"479","8478.547"
"480","8498.609"
"481","8513.718"
"482","8516.615"
"483","8506.011"
"484","8487.283"
"485","8466.13"
"486","8448.161"
"487","8437.221"
"488","8435.117"
"489","8443.528"
"490","8463.896"
"491","8490.082"
"492","8506.918"
"493","8498.794"
"494","8450.693"
"495","8364.574"
"496","8262.871"
"497","8169.115"
"498","8106.211"
"499","8080.625"
"500","8079.036"
"501","8087.021"
"502","8090.438"
"503","8081.771"
"504","8061.355"
"505","8029.979"
"506","7988.453"
"507","7938.331"
"508","7882.029"
"509","7821.998"
"510","7760.714"
"511","7701.742"
"512","7649.854"
"513","7609.86"
"514","7586.397"
"515","7580.452"
"516","7589.187"
"517","7609.6"
"518","7638.631"
"519","7671.566"
"520","7702.076"
"521","7723.792"
"522","7730.638"
"523","7721.521"
"524","7699.831"
"525","7669.097"
"526","7632.91"
"527","7596.083"
"528","7564.434"
"529","7543.775"
"530","7539.329"
"531","7548.373"
"532","7562.354"
"533","7572.626"
"534","7571.381"
"535","7560.199"
"536","7546.751"
"537","7538.783"
"538","7542.852"
"539","7554.283"
"540","7562.063"
"541","7555.156"
"542","7524.401"
"543","7475.51"
"544","7421.39"
"545","7374.928"
"546","7347.044"
"547","7335.887"
"548","7334.398"
"549","7335.534"
"550","7333.553"
"551","7329.608"
"552","7327.167"
"553","7329.69"
"554","7339.495"
"555","7353.952"
"556","7369.094"
"557","7380.973"
"558","7386.123"
"559","7382.711"
"560","7369.273"
"561","7344.356"
"562","7309.319"
"563","7273.268"
"564","7246.585"
"565","7239.569"
"566","7256.017"
"567","7285.777"
"568","7316.938"
"569","7337.704"
"570","7341.091"
"571","7328.154"
"572","7300.711"
"573","7260.639"
"574","7212.521"
"575","7164.458"
"576","7124.75"
"577","7101.313"
"578","7093.973"
"579","7094.474"
"580","7094.245"
"581","7085.315"
"582","7068.051"
"583","7049.129"
"584","7035.366"
"585","7032.809"
"586","7040.309"
"587","7052.648"
"588","7064.583"
"589","7071.479"
"590","7072.643"
"591","7069.012"
"592","7061.521"
"593","7051.563"
"594","7042.679"
"595","7039.02"
"596","7044.723"
"597","7061.313"
"598","7081.961"
"599","7098.188"
"600","7101.581"
"601","7089.161"
"602","7069.949"
"603","7054.547"
"604","7053.348"
"605","7067.115"
"606","7081.833"
"607","7082.283"
"608","7053.997"
"609","7000.644"
"610","6945.237"
"611","6911.642"
"612","6921.716"
"613","6970.333"
"614","7032.597"
"615","7083.247"
"616","7100.381"
"617","7089.235"
"618","7068.397"
"619","7056.482"
"620","7067.446"
"621","7091.606"
"622","7111.771"
"623","7110.811"
"624","7078.72"
"625","7028.164"
"626","6976.294"
"627","6940.141"
"628","6928.595"
"629","6934.194"
"630","6947.536"
"631","6959.363"
"632","6964.844"
"633","6964.836"
"634","6960.576"
"635","6953.364"
"636","6945.706"
"637","6941.098"
"638","6943.057"
"639","6954.168"
"640","6968.944"
"641","6977.741"
"642","6970.907"
"643","6941.817"
"644","6898.731"
"645","6854.497"
"646","6821.922"
"647","6809.927"
"648","6816.373"
"649","6837.152"
"650","6868.167"
"651","6904.488"
"652","6939.778"
"653","6967.583"
"654","6981.677"
"655","6980.88"
"656","6969.119"
"657","6950.538"
"658","6929.278"
"659","6909.606"
"660","6895.857"
"661","6892.353"
"662","6901.901"
"663","6919.036"
"664","6935.463"
"665","6942.92"
"666","6936.498"
"667","6921.216"
"668","6903.91"
"669","6891.347"
"670","6886.915"
"671","6888.442"
"672","6893.26"
"673","6898.684"
"674","6901.851"
"675","6899.709"
"676","6889.218"
"677","6868.367"
"678","6844.238"
"679","6828.621"
"680","6833.315"
"681","6865.705"
"682","6913.97"
"683","6961.067"
"684","6990.043"
"685","6991.603"
"686","6973.571"
"687","6946.071"
"688","6919.074"
"689","6898.33"
"690","6884.55"
"691","6878.148"
"692","6879.383"
"693","6886.707"
"694","6897.412"
"695","6908.781"
"696","6918.333"
"697","6924.801"
"698","6927.318"
"699","6925.021"
"700","6918.115"
"701","6909.506"
"702","6902.515"
"703","6900.372"
"704","6903.052"
"705","6906.369"
"706","6905.872"
"707","6897.554"
"708","6882.581"
"709","6865.526"
"710","6851.01"
"711","6842.692"
"712","6839.344"
"713","6838.178"
"714","6836.412"
"715","6832.498"
"716","6827.797"
"717","6824.088"
"718","6823.136"
"719","6826.498"
"720","6835.486"
"721","6851.395"
"722","6874.938"
"723","6901.136"
"724","6921.815"
"725","6928.781"
"726","6916.906"
"727","6893.614"
"728","6869.543"
"729","6855.242"
"730","6855.484"
"731","6864.435"
"732","6875.139"
"733","6881.017"
"734","6882.234"
"735","6884.797"
"736","6894.906"
"737","6917.201"
"738","6946.27"
"739","6972.689"
"740","6987.057"
"741","6984.294"
"742","6971.04"
"743","6955.884"
"744","6947.204"
"745","6946.73"
"746","6948.158"
"747","6944.712"
"748","6930.715"
"749","6910.776"
"750","6895.14"
"751","6894.097"
"752","6913.812"
"753","6945.403"
"754","6976.558"
"755","6995.146"
"756","6998.626"
"757","6999.168"
"758","7010.169"
"759","7043.519"
"760","7092.512"
"761","7137.86"
"762","7160.057"
"763","7145.347"
"764","7105.526"
"765","7059.506"
"766","7026.074"
"767","7014.791"
"768","7018.866"
"769","7029.827"
"770","7039.674"
"771","7047.07"
"772","7055.738"
"773","7069.514"
"774","7090.833"
"775","7115.216"
"776","7136.085"
"777","7146.915"
"778","7146.537"
"779","7143.783"
"780","7148.579"
"781","7170.092"
"782","7206.268"
"783","7246.372"
"784","7279.463"
"785","7296.541"
"786","7297.96"
"787","7286.901"
"788","7266.546"
"789","7240.525"
"790","7213.266"
"791","7189.285"
"792","7173.065"
"793","7168.795"
"794","7180.445"
"795","7211.976"
"796","7263.699"
"797","7320.229"
"798","7361.967"
"799","7369.594"
"800","7339.681"
"801","7293.671"
"802","7255.166"
"803","7245.45"
"804","7261.079"
"805","7283.52"
"806","7294.029"
"807","7280.864"
"808","7256.449"
"809","7238.417"
"810","7243.977"
"811","7275.584"
"812","7317.204"
"813","7351.642"
"814","7364.019"
"815","7357.468"
"816","7343.593"
"817","7334.032"
"818","7336.081"
"819","7346.058"
"820","7358.568"
"821","7368.411"
"822","7374.247"
"823","7378.288"
"824","7382.882"
"825","7389.636"
"826","7396.321"
"827","7399.447"
"828","7395.575"
"829","7384.499"
"830","7371.581"
"831","7362.731"
"832","7363.301"
"833","7372.508"
"834","7385.771"
"835","7398.451"
"836","7407.205"
"837","7412.848"
"838","7417.028"
"839","7421.37"
"840","7426.754"
"841","7433.255"
"842","7440.904"
"843","7449.556"
"844","7457.995"
"845","7464.61"
"846","7467.81"
"847","7468.345"
"848","7471.318"
"849","7482.308"
"850","7506.134"
"851","7539.005"
"852","7571.638"
"853","7594.666"
"854","7601.595"
"855","7595.005"
"856","7579.263"
"857","7558.713"
"858","7537.116"
"859","7517.644"
"860","7503.442"
"861","7497.179"
"862","7499.01"
"863","7508.263"
"864","7524.249"
"865","7545.094"
"866","7567.074"
"867","7586.293"
"868","7599.408"
"869","7607.874"
"870","7615.637"
"871","7626.651"
"872","7642.514"
"873","7659.167"
"874","7671.719"
"875","7675.634"
"876","7671.643"
"877","7664.487"
"878","7659.013"
"879","7659.293"
"880","7666.601"
"881","7681.592"
"882","7704.776"
"883","7732.964"
"884","7758.991"
"885","7775.491"
"886","7777.412"
"887","7771.773"
"888","7769.528"
"889","7781.46"
"890","7809.401"
"891","7842.048"
"892","7867.046"
"893","7873.872"
"894","7865.504"
"895","7850.973"
"896","7839.319"
"897","7836.981"
"898","7845.35"
"899","7865.227"
"900","7896.674"
"901","7932.088"
"902","7959.371"
"903","7966.389"
"904","7948.611"
"905","7920.646"
"906","7900.06"
"907","7903.181"
"908","7928.997"
"909","7963.731"
"910","7993.311"
"911","8006.806"
"912","8003.21"
"913","7983.479"
"914","7948.993"
"915","7909.222"
"916","7880.833"
"917","7880.743"
"918","7918.308"
"919","7973.858"
"920","8020.755"
"921","8033.307"
"922","8009.221"
"923","7970.488"
"924","7940.228"
"925","7936.183"
"926","7951.907"
"927","7974.151"
"928","7989.95"
"929","7995.32"
"930","7996.798"
"931","8001.521"
"932","8014.762"
"933","8032.294"
"934","8046.888"
"935","8051.47"
"936","8045.007"
"937","8034.212"
"938","8026.298"
"939","8026.756"
"940","8031.515"
"941","8033.217"
"942","8024.676"
"943","8006.238"
"944","7988.473"
"945","7982.68"
"946","7997.108"
"947","8022.311"
"948","8042.476"
"949","8042.08"
"950","8019.282"
"951","7991.269"
"952","7976.634"
"953","7989.623"
"954","8018.978"
"955","8044.186"
"956","8045.063"
"957","8016.852"
"958","7976.108"
"959","7940.938"
"960","7926.105"
"961","7927.24"
"962","7933.197"
"963","7933.033"
"964","7924.384"
"965","7916.283"
"966","7918.555"
"967","7938.262"
"968","7967.687"
"969","7994.181"
"970","8005.391"
"971","7999.593"
"972","7988.218"
"973","7983.523"
"974","7994.352"
"975","8012.969"
"976","8026.621"
"977","8022.981"
"978","8002.167"
"979","7978.226"
"980","7965.962"
"981","7975.827"
"982","7999.791"
"983","8024.915"
"984","8038.667"
"985","8037.732"
"986","8027.873"
"987","8015.237"
"988","8005.091"
"989","7999.525"
"990","7999.919"
"991","8007.431"
"992","8019.559"
"993","8030.717"
"994","8035.228"
"995","8031.347"
"996","8028.949"
"997","8040.045"
"998","8075.328"
"999","8128.396"
"1000","8180.994"
"1001","8214.65"
"1002","8218.257"
"1003","8198.122"
"1004","8163.064"
"1005","8121.907"
"1006","8083.208"
"1007","8053.671"
"1008","8039.242"
"1009","8045.711"
"1010","8071.315"
"1011","8103.435"
"1012","8128.604"
"1013","8136.575"
"1014","8134.592"
"1015","8135.821"
"1016","8152.963"
"1017","8183.723"
"1018","8208.189"
"1019","8205.428"
"1020","8162.086"
"1021","8096.849"
"1022","8036.865"
"1023","8008.193"
"1024","8014.604"
"1025","8039.222"
"1026","8064.38"
"1027","8077.767"
"1028","8083.95"
"1029","8090.813"
"1030","8105.755"
"1031","8129.821"
"1032","8159.593"
"1033","8191.557"
"1034","8222.01"
"1035","8246.813"
"1036","8261.762"
"1037","8263.703"
"1038","8258.395"
"1039","8256.111"
"1040","8267.061"
"1041","8293.843"
"1042","8326.902"
"1043","8355.589"
"1044","8371.088"
"1045","8374.816"
"1046","8371.723"
"1047","8366.699"
"1048","8362.793"
"1049","8361.042"
"1050","8362.377"
"1051","8366.003"
"1052","8365.048"
"1053","8351.29"
"1054","8317.817"
"1055","8275.69"
"1056","8249.018"
"1057","8262.13"
"1058","8322.631"
"1059","8401.504"
"1060","8464.871"
"1061","8483.614"
"1062","8464.532"
"1063","8430.748"
"1064","8405.207"
"1065","8399.159"
"1066","8408.104"
"1067","8426.438"
"1068","8449.104"
"1069","8473.418"
"1070","8497.306"
"1071","8518.663"
"1072","8534.856"
"1073","8542.831"
"1074","8539.523"
"1075","8524.414"
"1076","8502.916"
"1077","8481.29"
"1078","8465.251"
"1079","8456.273"
"1080","8453.887"
"1081","8457.568"
"1082","8465.338"
"1083","8473.313"
"1084","8477.479"
"1085","8475.095"
"1086","8468.309"
"1087","8460.441"
"1088","8454.626"
"1089","8451.547"
"1090","8450.158"
"1091","8449.383"
"1092","8449.384"
"1093","8452.721"
"1094","8462.221"
"1095","8479.638"
"1096","8500.493"
"1097","8518.06"
"1098","8525.712"
"1099","8519.201"
"1100","8496.637"
"1101","8456.229"
"1102","8401.791"
"1103","8352.054"
"1104","8328.218"
"1105","8347.53"
"1106","8395.258"
"1107","8441.204"
"1108","8455.712"
"1109","8432.986"
"1110","8397.247"
"1111","8374.651"
"1112","8383.073"
"1113","8412.274"
"1114","8446.051"
"1115","8469.177"
"1116","8476.62"
"1117","8469.339"
"1118","8448.479"
"1119","8421.226"
"1120","8403.672"
"1121","8412.645"
"1122","8456.718"
"1123","8511.917"
"1124","8546.239"
"1125","8530.98"
"1126","8476.776"
"1127","8419.95"
"1128","8396.916"
"1129","8418.888"
"1130","8456.919"
"1131","8478.449"
"1132","8460.739"
"1133","8421.948"
"1134","8390.865"
"1135","8393.834"
"1136","8427.322"
"1137","8467.913"
"1138","8492.033"
"1139","8489.672"
"1140","8472.228"
"1141","8452.999"
"1142","8442.603"
"1143","8440.951"
"1144","8445.303"
"1145","8452.905"
"1146","8460.957"
"1147","8466.623"
"1148","8467.121"
"1149","8462.661"
"1150","8457.732"
"1151","8457.16"
"1152","8464.95"
"1153","8482.309"
"1154","8509.821"
"1155","8546.922"
"1156","8582.534"
"1157","8599.981"
"1158","8583.121"
"1159","8535.314"
"1160","8483.315"
"1161","8455.257"
"1162","8467.957"
"1163","8507.132"
"1164","8553.196"
"1165","8588.492"
"1166","8608.54"
"1167","8614.335"
"1168","8607.074"
"1169","8591.753"
"1170","8576.86"
"1171","8570.989"
"1172","8577.992"
"1173","8592.182"
"1174","8606.729"
"1175","8616.447"
"1176","8623.858"
"1177","8633.734"
"1178","8650.29"
"1179","8671.143"
"1180","8689.606"
"1181","8698.962"
"1182","8694.778"
"1183","8675.762"
"1184","8640.843"
"1185","8593.11"
"1186","8547.95"
"1187","8523.021"
"1188","8532.513"
"1189","8566.924"
"1190","8606.862"
"1191","8633.645"
"1192","8642.199"
"1193","8639.294"
"1194","8632.086"
"1195","8627.126"
"1196","8629.9"
"1197","8645.783"
"1198","8676.854"
"1199","8712.772"
"1200","8740.269"
"1201","8748.217"
"1202","8743.612"
"1203","8742.559"
"1204","8760.456"
"1205","8794.805"
"1206","8825.274"
"1207","8830.859"
"1208","8804.808"
"1209","8768.297"
"1210","8745.764"
"1211","8754.395"
"1212","8781.995"
"1213","8808.928"
"1214","8817.752"
"1215","8810.356"
"1216","8798.625"
"1217","8794.276"
"1218","8803.061"
"1219","8824.852"
"1220","8859.228"
"1221","8901.747"
"1222","8940.469"
"1223","8962.619"
"1224","8959.766"
"1225","8939.526"
"1226","8913.223"
"1227","8891.031"
"1228","8874.447"
"1229","8860.992"
"1230","8848.425"
"1231","8838.821"
"1232","8837.942"
"1233","8851.55"
"1234","8879"
"1235","8909.788"
"1236","8932.571"
"1237","8940.957"
"1238","8942.72"
"1239","8948.155"
"1240","8964.647"
"1241","8983.519"
"1242","8990.566"
"1243","8973.557"
"1244","8942.416"
"1245","8920.982"
"1246","8932.438"
"1247","8975.63"
"1248","9022.692"
"1249","9044.52"
"1250","9029.976"
"1251","9002.401"
"1252","8989.046"
"1253","9006.554"
"1254","9034.821"
"1255","9045.79"
"1256","9017.912"
"1257","8971.353"
"1258","8942.715"
"1259","8965.355"
"1260","9030.957"
"1261","9102.849"
"1262","9144.666"
"1263","9146.088"
"1264","9126.418"
"1265","9106.514"
"1266","9098.617"
"1267","9098.608"
"1268","9100.534"
"1269","9100.403"
"1270","9100.625"
"1271","9104.91"
"1272","9115.837"
"1273","9129.506"
"1274","9139.728"
"1275","9140.879"
"1276","9133.182"
"1277","9120.31"
"1278","9105.964"
"1279","9093.548"
"1280","9086.188"
"1281","9086.919"
"1282","9094.761"
"1283","9102.705"
"1284","9103.255"
"1285","9092.36"
"1286","9074.235"
"1287","9054.31"
"1288","9037.884"
"1289","9029.754"
"1290","9034.583"
"1291","9055.88"
"1292","9089.557"
"1293","9128.489"
"1294","9165.638"
"1295","9195.066"
"1296","9211.53"
"1297","9210.218"
"1298","9195.168"
"1299","9178.85"
"1300","9173.87"
"1301","9182.969"
"1302","9194.781"
"1303","9196.899"
"1304","9185.213"
"1305","9173.54"
"1306","9178.045"
"1307","9207.442"
"1308","9245.782"
"1309","9271.998"
"1310","9269.734"
"1311","9246.8"
"1312","9218.729"
"1313","9200.022"
"1314","9196.813"
"1315","9211.229"
"1316","9244.351"
"1317","9284.104"
"1318","9309.214"
"1319","9299.335"
"1320","9259.836"
"1321","9221.682"
"1322","9216.424"
"1323","9250.321"
"1324","9294.036"
"1325","9315.668"
"1326","9299.649"
"1327","9262.96"
"1328","9226.439"
"1329","9204.975"
"1330","9196.54"
"1331","9196.128"
"1332","9200.986"
"1333","9217.572"
"1334","9254.692"
"1335","9317.093"
"1336","9385.784"
"1337","9433.163"
"1338","9436.433"
"1339","9413.576"
"1340","9403.056"
"1341","9439.846"
"1342","9513.056"
"1343","9580.609"
"1344","9601.705"
"1345","9572.239"
"1346","9521.325"
"1347","9478.624"
"1348","9451.973"
"1349","9423.164"
"1350","9372.774"
"1351","9301.187"
"1352","9239.741"
"1353","9222.346"
"1354","9259.646"
"1355","9314.695"
"1356","9344.723"
"1357","9323.105"
"1358","9266.566"
"1359","9199.04"
"1360","9141.845"
"1361","9107.049"
"1362","9104.692"
"1363","9138.403"
"1364","9182.286"
"1365","9201.945"
"1366","9171.036"
"1367","9111.485"
"1368","9063.095"
"1369","9059.535"
"1370","9086.479"
"1371","9107.128"
"1372","9088.937"
"1373","9043.999"
"1374","9010.403"
"1375","9023.149"
"1376","9071.313"
"1377","9111.181"
"1378","9100.979"
"1379","9046.941"
"1380","8996.823"
"1381","8997.945"
"1382","9052.503"
"1383","9115.874"
"1384","9142.225"
"1385","9120.594"
"1386","9083.057"
"1387","9063.994"
"1388","9078.005"
"1389","9110.819"
"1390","9145.911"
"1391","9170.124"
"1392","9176.101"
"1393","9157.094"
"1394","9114.326"
"1395","9064.982"
"1396","9028.128"
"1397","9016.323"
"1398","9026.979"
"1399","9055.349"
"1400","9093.212"
"1401","9123.014"
"1402","9125.65"
"1403","9092.55"
"1404","9047.633"
"1405","9021.087"
"1406","9032.898"
"1407","9067.183"
"1408","9100.168"
"1409","9113.295"
"1410","9108.78"
"1411","9093.991"
"1412","9075.721"
"1413","9058.157"
"1414","9044.764"
"1415","9039.592"
"1416","9049.539"
"1417","9082.386"
"1418","9140.279"
"1419","9194.755"
"1420","9206.987"
"1421","9149.172"
"1422","9058.876"
"1423","8997.661"
"1424","9014.694"
"1425","9079.296"
"1426","9129.316"
"1427","9113.092"
"1428","9051.647"
"1429","8996.479"
"1430","8992.214"
"1431","9032.49"
"1432","9088.398"
"1433","9133.496"
"1434","9161.137"
"1435","9173.806"
"1436","9174.391"
"1437","9168.552"
"1438","9163.277"
"1439","9164.683"
"1440","9171.648"
"1441","9179.498"
"1442","9184.09"
"1443","9185.972"
"1444","9188.027"
"1445","9193.116"
"1446","9203.727"
"1447","9222.165"
"1448","9249.522"
"1449","9276.722"
"1450","9289.562"
"1451","9276.609"
"1452","9249.933"
"1453","9233.311"
"1454","9246.262"
"1455","9272.664"
"1456","9278.966"
"1457","9237.016"
"1458","9162.593"
"1459","9092.396"
"1460","9058.522"
"1461","9056.913"
"1462","9066.894"
"1463","9069.783"
"1464","9062.056"
"1465","9046.844"
"1466","9026.806"
"1467","9001.145"
"1468","8967.622"
"1469","8925.409"
"1470","8882.623"
"1471","8850.885"
"1472","8839.074"
"1473","8839.821"
"1474","8839.838"
"1475","8828.043"
"1476","8805.389"
"1477","8776.862"
"1478","8746.502"
"1479","8713.713"
"1480","8676.477"
"1481","8633.547"
"1482","8587.102"
"1483","8540.265"
"1484","8497.425"
"1485","8467.951"
"1486","8462.451"
"1487","8485.056"
"1488","8517.232"
"1489","8535.483"
"1490","8524.663"
"1491","8495.317"
"1492","8462.93"
"1493","8441.465"
"1494","8440.802"
"1495","8470.097"
"1496","8524.557"
"1497","8566.908"
"1498","8555.462"
"1499","8480.943"
"1500","8399.229"
"1501","8373.464"
"1502","8419.248"
"1503","8470.124"
"1504","8452.596"
"1505","8353.429"
"1506","8248.202"
"1507","8217.878"
"1508","8278.022"
"1509","8362.397"
"1510","8401.623"
"1511","8379.825"
"1512","8337.619"
"1513","8316.741"
"1514","8328.893"
"1515","8359.237"
"1516","8392.008"
"1517","8411.557"
"1518","8402.316"
"1519","8352.138"
"1520","8285.265"
"1521","8247.879"
"1522","8278.58"
"1523","8351.35"
"1524","8408.616"
"1525","8402.463"
"1526","8347.576"
"1527","8283.046"
"1528","8241.313"
"1529","8221.796"
"1530","8213.821"
"1531","8210.684"
"1532","8220.731"
"1533","8255.865"
"1534","8318.637"
"1535","8384.457"
"1536","8423.862"
"1537","8418.779"
"1538","8376.563"
"1539","8308.089"
"1540","8230.073"
"1541","8169.245"
"1542","8152.613"
"1543","8177.213"
"1544","8200.462"
"1545","8178.95"
"1546","8114.997"
"1547","8057.329"
"1548","8053.414"
"1549","8099.704"
"1550","8153.228"
"1551","8173.83"
"1552","8160.684"
"1553","8135.819"
"1554","8118.226"
"1555","8103.421"
"1556","8076.842"
"1557","8030.655"
"1558","7990.621"
"1559","7992.911"
"1560","8054.567"
"1561","8125.565"
"1562","8141.262"
"1563","8071.767"
"1564","7973.226"
"1565","7914.469"
"1566","7925.248"
"1567","7966.364"
"1568","7992.262"
"1569","7983.851"
"1570","7955.524"
"1571","7923.658"
"1572","7901.339"
"1573","7898.667"
"1574","7923.785"
"1575","7963.36"
"1576","7990.276"
"1577","7981.054"
"1578","7940.752"
"1579","7887.149"
"1580","7837.523"
"1581","7806.358"
"1582","7807.319"
"1583","7844.935"
"1584","7894.828"
"1585","7926.969"
"1586","7927.124"
"1587","7914.315"
"1588","7911.425"
"1589","7923.223"
"1590","7928.74"
"1591","7906.377"
"1592","7863.624"
"1593","7835.986"
"1594","7855.925"
"1595","7906.604"
"1596","7939.265"
"1597","7914.457"
"1598","7861.347"
"1599","7838.233"
"1600","7884.691"
"1601","7959.316"
"1602","7998.997"
"1603","7969.298"
"1604","7912.524"
"1605","7883.284"
"1606","7902.289"
"1607","7932.669"
"1608","7933.25"
"1609","7899.509"
"1610","7867.077"
"1611","7870.717"
"1612","7906.17"
"1613","7941.681"
"1614","7949.619"
"1615","7936.877"
"1616","7925.622"
"1617","7931.588"
"1618","7942.759"
"1619","7939.746"
"1620","7916.187"
"1621","7898.618"
"1622","7918.271"
"1623","7979.595"
"1624","8045.832"
"1625","8078.125"
"1626","8068.39"
"1627","8037.822"
"1628","8007.49"
"1629","7985.102"
"1630","7970.589"
"1631","7964.148"
"1632","7967.983"
"1633","7984.988"
"1634","8012.999"
"1635","8034.156"
"1636","8027.74"
"1637","7992.289"
"1638","7960.861"
"1639","7968.782"
"1640","8015.466"
"1641","8062.124"
"1642","8071.812"
"1643","8049.82"
"1644","8028.009"
"1645","8033.333"
"1646","8061.847"
"1647","8098.54"
"1648","8129.545"
"1649","8144.653"
"1650","8134.483"
"1651","8100.959"
"1652","8065.537"
"1653","8050.69"
"1654","8057.237"
"1655","8064.565"
"1656","8053.651"
"1657","8030.087"
"1658","8013.296"
"1659","8018.227"
"1660","8037.191"
"1661","8055.63"
"1662","8064.038"
"1663","8065.75"
"1664","8066.062"
"1665","8067.489"
"1666","8068.714"
"1667","8067.98"
"1668","8061.238"
"1669","8042.67"
"1670","8008.224"
"1671","7966.033"
"1672","7929.251"
"1673","7907.372"
"1674","7897.558"
"1675","7894.364"
"1676","7888.533"
"1677","7864.284"
"1678","7806.654"
"1679","7730.47"
"1680","7678.058"
"1681","7685.942"
"1682","7734.389"
"1683","7776.228"
"1684","7774.292"
"1685","7731.02"
"1686","7658.479"
"1687","7575.897"
"1688","7516.138"
"1689","7511.62"
"1690","7548.708"
"1691","7568.154"
"1692","7518.305"
"1693","7430.323"
"1694","7377.602"
"1695","7408.92"
"1696","7474.916"
"1697","7502.466"
"1698","7457.414"
"1699","7378.834"
"1700","7312.579"
"1701","7276.089"
"1702","7259.872"
"1703","7254.154"
"1704","7255.455"
"1705","7263.24"
"1706","7274.195"
"1707","7275.229"
"1708","7251.38"
"1709","7207.714"
"1710","7182.15"
"1711","7212.149"
"1712","7277.507"
"1713","7311.386"
"1714","7260.743"
"1715","7167.598"
"1716","7110.618"
"1717","7135.633"
"1718","7198.147"
"1719","7239.152"
"1720","7233.733"
"1721","7200.663"
"1722","7160.561"
"1723","7122.704"
"1724","7089.423"
"1725","7062.76"
"1726","7043.883"
"1727","7033.73"
"1728","7033.733"
"1729","7046.286"
"1730","7073.446"
"1731","7108.932"
"1732","7138.966"
"1733","7150.306"
"1734","7135.203"
"1735","7088.159"
"1736","7015.678"
"1737","6957.244"
"1738","6956.772"
"1739","7014.7"
"1740","7078.207"
"1741","7096.626"
"1742","7072.111"
"1743","7036.229"
"1744","7014.148"
"1745","7005.728"
"1746","7004.959"
"1747","7007.391"
"1748","7011.052"
"1749","7014.396"
"1750","7018.656"
"1751","7027.027"
"1752","7039.557"
"1753","7041.184"
"1754","7012.526"
"1755","6954.684"
"1756","6907.936"
"1757","6914.466"
"1758","6972.692"
"1759","7044.601"
"1760","7094.505"
"1761","7106.417"
"1762","7071.272"
"1763","6998.083"
"1764","6935.268"
"1765","6933.411"
"1766","6980.484"
"1767","7006.623"
"1768","6956.451"
"1769","6878.505"
"1770","6860.961"
"1771","6940.547"
"1772","7033.512"
"1773","7043.221"
"1774","6969.255"
"1775","6903.9"
"1776","6925.249"
"1777","6996.081"
"1778","7034.084"
"1779","6993.15"
"1780","6912.308"
"1781","6841.425"
"1782","6801.225"
"1783","6784.87"
"1784","6784.726"
"1785","6794.957"
"1786","6810.379"
"1787","6824.514"
"1788","6828.049"
"1789","6812.155"
"1790","6783.807"
"1791","6763.784"
"1792","6769.08"
"1793","6793.563"
"1794","6823.351"
"1795","6847.354"
"1796","6859.903"
"1797","6856.62"
"1798","6843.008"
"1799","6832.08"
"1800","6832.122"
"1801","6829.393"
"1802","6804.215"
"1803","6752.69"
"1804","6696.188"
"1805","6658.164"
"1806","6659.445"
"1807","6719.272"
"1808","6837.054"
"1809","6943.487"
"1810","6956.4"
"1811","6871.97"
"1812","6784.481"
"1813","6779.688"
"1814","6826.934"
"1815","6840.921"
"1816","6778.637"
"1817","6705.191"
"1818","6698.905"
"1819","6761.472"
"1820","6823.611"
"1821","6828.069"
"1822","6796.387"
"1823","6775.848"
"1824","6784.849"
"1825","6790.796"
"1826","6759.84"
"1827","6704.576"
"1828","6667.515"
"1829","6676.244"
"1830","6705.37"
"1831","6718.946"
"1832","6707.241"
"1833","6691.301"
"1834","6690.057"
"1835","6696.056"
"1836","6690.988"
"1837","6669.007"
"1838","6650.64"
"1839","6657.87"
"1840","6685.301"
"1841","6707.251"
"1842","6703.143"
"1843","6674.14"
"1844","6626.959"
"1845","6579.484"
"1846","6563.675"
"1847","6604.476"
"1848","6670.277"
"1849","6705.155"
"1850","6684.709"
"1851","6651.826"
"1852","6654.086"
"1853","6684.313"
"1854","6695.808"
"1855","6658.62"
"1856","6606.781"
"1857","6587.671"
"1858","6613.001"
"1859","6653.324"
"1860","6679.834"
"1861","6682.03"
"1862","6656.444"
"1863","6613.322"
"1864","6587.593"
"1865","6611.931"
"1866","6667.267"
"1867","6703.661"
"1868","6690.327"
"1869","6651.93"
"1870","6621.985"
"1871","6616.254"
"1872","6634.585"
"1873","6671.769"
"1874","6702.86"
"1875","6698.209"
"1876","6658.955"
"1877","6626.52"
"1878","6635.936"
"1879","6660.203"
"1880","6646.983"
"1881","6580.741"
"1882","6515.191"
"1883","6505.408"
"1884","6539.967"
"1885","6568.143"
"1886","6560.051"
"1887","6542.893"
"1888","6551.255"
"1889","6585.983"
"1890","6620.46"
"1891","6633.486"
"1892","6627.308"
"1893","6609.725"
"1894","6590.271"
"1895","6580.36"
"1896","6586.398"
"1897","6588.499"
"1898","6558.858"
"1899","6496.437"
"1900","6438.082"
"1901","6418.206"
"1902","6433.88"
"1903","6466.374"
"1904","6497.141"
"1905","6508.129"
"1906","6484.79"
"1907","6444.72"
"1908","6422.753"
"1909","6436.13"
"1910","6461.755"
"1911","6472.802"
"1912","6465.208"
"1913","6449.954"
"1914","6436.821"
"1915","6431.428"
"1916","6438.179"
"1917","6453.506"
"1918","6467.519"
"1919","6474.287"
"1920","6481.731"
"1921","6499.828"
"1922","6521.228"
"1923","6522.632"
"1924","6490.491"
"1925","6452.018"
"1926","6442.775"
"1927","6455.18"
"1928","6436.529"
"1929","6354.059"
"1930","6274.209"
"1931","6288.308"
"1932","6393.745"
"1933","6479.082"
"1934","6454.229"
"1935","6366.927"
"1936","6306.229"
"1937","6304.753"
"1938","6324.316"
"1939","6329.83"
"1940","6327.374"
"1941","6336.484"
"1942","6363.736"
"1943","6398.539"
"1944","6429.174"
"1945","6444.437"
"1946","6433.536"
"1947","6397.555"
"1948","6353.746"
"1949","6317.659"
"1950","6288.059"
"1951","6257.938"
"1952","6229.984"
"1953","6220.183"
"1954","6238.854"
"1955","6258.249"
"1956","6237.91"
"1957","6174.008"
"1958","6112.026"
"1959","6092.187"
"1960","6105.815"
"1961","6127.594"
"1962","6137.125"
"1963","6120.41"
"1964","6072.721"
"1965","6035.187"
"1966","6061.996"
"1967","6146.027"
"1968","6206.204"
"1969","6179.367"
"1970","6108.843"
"1971","6067.673"
"1972","6078.083"
"1973","6106.244"
"1974","6120.942"
"1975","6114.481"
"1976","6085.781"
"1977","6044.293"
"1978","6009.828"
"1979","5995.465"
"1980","5987.991"
"1981","5969.139"
"1982","5937.737"
"1983","5907.267"
"1984","5891.229"
"1985","5901.559"
"1986","5947.278"
"1987","6000.857"
"1988","6008.116"
"1989","5944.706"
"1990","5863.719"
"1991","5824.863"
"1992","5827.324"
"1993","5833.755"
"1994","5819.781"
"1995","5788.854"
"1996","5750.042"
"1997","5730.078"
"1998","5763.708"
"1999","5840.115"
"2000","5873.828"
"2001","5795.293"
"2002","5676.761"
"2003","5641.856"
"2004","5713.139"
"2005","5783.624"
"2006","5765.742"
"2007","5700.75"
"2008","5664.237"
"2009","5673.884"
"2010","5690.506"
"2011","5686.147"
"2012","5678.503"
"2013","5692.671"
"2014","5723.766"
"2015","5744.873"
"2016","5739.953"
"2017","5720.309"
"2018","5699.789"
"2019","5678.798"
"2020","5650.613"
"2021","5614.238"
"2022","5578.486"
"2023","5550"
"2024","5516.386"
"2025","5459.002"
"2026","5388.353"
"2027","5349.857"
"2028","5376.774"
"2029","5445.126"
"2030","5516.845"
"2031","5558.9"
"2032","5542.461"
"2033","5464.903"
"2034","5391.554"
"2035","5390.199"
"2036","5445.119"
"2037","5494.417"
"2038","5505.85"
"2039","5498.573"
"2040","5494.132"
"2041","5498.707"
"2042","5512.677"
"2043","5527.547"
"2044","5525"
"2045","5497.283"
"2046","5475.348"
"2047","5494.458"
"2048","5533.877"
"2049","5533.423"
"2050","5471.402"
"2051","5409.165"
"2052","5407.3"
"2053","5444.398"
"2054","5464.158"
"2055","5440.311"
"2056","5385.462"
"2057","5317.402"
"2058","5264.196"
"2059","5254.163"
"2060","5278.492"
"2061","5299.527"
"2062","5298.461"
"2063","5301.045"
"2064","5331.852"
"2065","5360.3"
"2066","5332.091"
"2067","5246.875"
"2068","5174.745"
"2069","5169.454"
"2070","5200.864"
"2071","5221.319"
"2072","5230.016"
"2073","5260.936"
"2074","5319.744"
"2075","5350.811"
"2076","5303.652"
"2077","5214.681"
"2078","5154.506"
"2079","5151.458"
"2080","5185.078"
"2081","5231.045"
"2082","5261.393"
"2083","5250.554"
"2084","5209.077"
"2085","5169.857"
"2086","5153.181"
"2087","5157.279"
"2088","5178.074"
"2089","5210.632"
"2090","5249.425"
"2091","5283.399"
"2092","5296.606"
"2093","5279.628"
"2094","5239.326"
"2095","5186.213"
"2096","5139.731"
"2097","5122.371"
"2098","5123.477"
"2099","5092.531"
"2100","5007.636"
"2101","4950.073"
"2102","5008.799"
"2103","5125.948"
"2104","5157.664"
"2105","5065.645"
"2106","4977.787"
"2107","4996.135"
"2108","5045.388"
"2109","5010.972"
"2110","4913.696"
"2111","4875.196"
"2112","4939.521"
"2113","4996.067"
"2114","4945.584"
"2115","4849.047"
"2116","4817.167"
"2117","4867.078"
"2118","4932.224"
"2119","4967.664"
"2120","4985.003"
"2121","4998.968"
"2122","4993.385"
"2123","4941.161"
"2124","4849.894"
"2125","4762.536"
"2126","4712.214"
"2127","4702.178"
"2128","4728.546"
"2129","4770.114"
"2130","4798.606"
"2131","4804.96"
"2132","4801.432"
"2133","4795.288"
"2134","4776.716"
"2135","4735.941"
"2136","4686.742"
"2137","4653.6"
"2138","4648.792"
"2139","4670.466"
"2140","4704.984"
"2141","4707.364"
"2142","4638.162"
"2143","4546.408"
"2144","4520.329"
"2145","4565.853"
"2146","4594.909"
"2147","4559.794"
"2148","4539.943"
"2149","4619.344"
"2150","4749.608"
"2151","4824.396"
"2152","4796.741"
"2153","4684.085"
"2154","4523.145"
"2155","4391.819"
"2156","4358.976"
"2157","4386.111"
"2158","4393.363"
"2159","4371.882"
"2160","4382.137"
"2161","4448.586"
"2162","4506.899"
"2163","4495.188"
"2164","4438.189"
"2165","4390.059"
"2166","4374.503"
"2167","4389.387"
"2168","4420.474"
"2169","4431.87"
"2170","4400.423"
"2171","4375.289"
"2172","4418.979"
"2173","4488.587"
"2174","4469.133"
"2175","4344.11"
"2176","4252.83"
"2177","4298.33"
"2178","4399.421"
"2179","4441.841"
"2180","4401.363"
"2181","4304.063"
"2182","4206.218"
"2183","4199.964"
"2184","4321.407"
"2185","4447.3"
"2186","4447.602"
"2187","4329.936"
"2188","4158.774"
"2189","4009.093"
"2190","3964.742"
"2191","4044.564"
"2192","4138.941"
"2193","4148.059"
"2194","4086.996"
"2195","4004.353"
"2196","3956.423"
"2197","4002.618"
"2198","4116.423"
"2199","4153.617"
"2200","4036.466"
"2201","3914.135"
"2202","3946.631"
"2203","4064.361"
"2204","4104.664"
"2205","4038.605"
"2206","3960.893"
"2207","3932.332"
"2208","3938.72"
"2209","3959.631"
"2210","3985.017"
"2211","4007.264"
"2212","4015.35"
"2213","3996.849"
"2214","3960.998"
"2215","3943.497"
"2216","3958.741"
"2217","3962.29"
"2218","3913.914"
"2219","3851.664"
"2220","3837.286"
"2221","3871.139"
"2222","3907.979"
"2223","3916.748"
"2224","3889.474"
"2225","3826.09"
"2226","3745.51"
"2227","3670.898"
"2228","3628.363"
"2229","3642.302"
"2230","3682.209"
"2231","3670.701"
"2232","3590.263"
"2233","3529.052"
"2234","3554.64"
"2235","3622.826"
"2236","3668.244"
"2237","3657.096"
"2238","3572.883"
"2239","3449.19"
"2240","3365.946"
"2241","3363.785"
"2242","3408.24"
"2243","3458.077"
"2244","3477.089"
"2245","3437.006"
"2246","3365.14"
"2247","3314.741"
"2248","3318.289"
"2249","3388.154"
"2250","3490.504"
"2251","3510.227"
"2252","3376.58"
"2253","3209.472"
"2254","3150.302"
"2255","3176.29"
"2256","3193.151"
"2257","3170.47"
"2258","3133.758"
"2259","3103.322"
"2260","3087.861"
"2261","3085.728"
"2262","3065.769"
"2263","3000.866"
"2264","2928.589"
"2265","2906.235"
"2266","2901.293"
"2267","2815.561"
"2268","2651.673"
"2269","2554.317"
"2270","2606.201"
"2271","2700.38"
"2272","2719.982"
"2273","2656.255"
"2274","2539.041"
"2275","2440.175"
"2276","2453.414"
"2277","2569.518"
"2278","2665.862"
"2279","2660.647"
"2280","2565.727"
"2281","2413.987"
"2282","2275.535"
"2283","2215.667"
"2284","2196.26"
"2285","2137.955"
"2286","2050.909"
"2287","2016.925"
"2288","2051.943"
"2289","2074.275"
"2290","2023.988"
"2291","1917.702"
"2292","1787.632"
"2293","1681.923"
"2294","1647.751"
"2295","1674.419"
"2296","1718.85"
"2297","1736.112"
"2298","1680.406"
"2299","1552.053"
"2300","1429.319"
