,"Scan 01065"
"400","9920.312"
"401","9861.034"
"402","9795.565"
"403","9741.636"
"404","9716.834"
"405","9735.668"
"406","9786.982"
"407","9846.7"
"408","9890.812"
"409","9897.284"
"410","9867.651"
"411","9819.803"
"412","9771.836"
"413","9741.1"
"414","9732.185"
"415","9737.799"
"416","9750.238"
"417","9762.008"
"418","9770.735"
"419","9780.364"
"420","9795.195"
"421","9819.393"
"422","9850.427"
"423","9874.987"
"424","9878.867"
"425","9848.04"
"426","9780.247"
"427","9697.723"
"428","9625.632"
"429","9588.938"
"430","9600.677"
"431","9642.009"
"432","9688.903"
"433","9717.493"
"434","9711.743"
"435","9682.279"
"436","9645.39"
"437","9617.261"
"438","9609.899"
"439","9617.457"
"440","9629.229"
"441","9634.595"
"442","9625.026"
"443","9603.137"
"444","9575.297"
"445","9547.841"
"446","9526.038"
"447","9508.229"
"448","9489.908"
"449","9466.583"
"450","9434.652"
"451","9397.611"
"452","9362.421"
"453","9336.021"
"454","9324.521"
"455","9326.006"
"456","9333.972"
"457","9341.902"
"458","9343.864"
"459","9340.514"
"460","9336.857"
"461","9337.946"
"462","9348.254"
"463","9364.312"
"464","9376.735"
"465","9376.053"
"466","9353.494"
"467","9311.229"
"468","9260.538"
"469","9212.907"
"470","9179.339"
"471","9162.59"
"472","9157.865"
"473","9160.123"
"474","9164.524"
"475","9170.297"
"476","9180.687"
"477","9199.094"
"478","9228.614"
"479","9264.871"
"480","9295.592"
"481","9308.183"
"482","9290.689"
"483","9247.114"
"484","9199.29"
"485","9169.855"
"486","9180.637"
"487","9232.144"
"488","9300.14"
"489","9359.132"
"490","9384.352"
"491","9369.691"
"492","9331.282"
"493","9286.464"
"494","9252.123"
"495","9233.343"
"496","9220.985"
"497","9205.101"
"498","9176.152"
"499","9136.182"
"500","9101.169"
"501","9087.842"
"502","9112.504"
"503","9180.833"
"504","9285.91"
"505","9420.126"
"506","9576.809"
"507","9776.796"
"508","10072.67"
"509","10518.47"
"510","11166.68"
"511","12033.8"
"512","13096.54"
"513","14329.68"
"514","15705.96"
"515","17142.56"
"516","18498.57"
"517","19631.04"
"518","20401.14"
"519","20743.97"
"520","20666.95"
"521","20180.44"
"522","19298.16"
"523","18099.58"
"524","16723.33"
"525","15309.46"
"526","13993.13"
"527","12840.79"
"528","11862.55"
"529","11066.83"
"530","10459.71"
"531","10015.43"
"532","9684.892"
"533","9418.674"
"534","9170.668"
"535","8930.665"
"536","8711.811"
"537","8527.583"
"538","8389.627"
"539","8292.166"
"540","8219.59"
"541","8156.252"
"542","8088.32"
"543","8016.126"
"544","7946.885"
"545","7887.812"
"546","7844.671"
"547","7813.733"
"548","7787.403"
"549","7758.108"
"550","7719.813"
"551","7674.634"
"552","7627.431"
"553","7583.052"
"554","7545.612"
"555","7516.174"
"556","7494.946"
"557","7482.144"
"558","7477.129"
"559","7476.285"
"560","7475.366"
"561","7470.152"
"562","7457.667"
"563","7438.333"
"564","7413.15"
"565","7383.121"
"566","7351.136"
"567","7324.147"
"568","7309.605"
"569","7314.816"
"570","7338.634"
"571","7365.755"
"572","7379.582"
"573","7363.964"
"574","7317.176"
"575","7256.224"
"576","7199.299"
"577","7163.915"
"578","7153.936"
"579","7159.587"
"580","7170.541"
"581","7177.088"
"582","7178"
"583","7178.473"
"584","7183.846"
"585","7198.709"
"586","7220.515"
"587","7242.688"
"588","7258.638"
"589","7262.97"
"590","7258.217"
"591","7250.168"
"592","7244.593"
"593","7245.339"
"594","7247.383"
"595","7243.134"
"596","7225.039"
"597","7190.094"
"598","7149.877"
"599","7118.836"
"600","7111.319"
"601","7132.728"
"602","7168.695"
"603","7202.261"
"604","7216.719"
"605","7206.385"
"606","7182.481"
"607","7157.622"
"608","7144.021"
"609","7144.687"
"610","7152.815"
"611","7161.149"
"612","7162.944"
"613","7158.288"
"614","7152.271"
"615","7150.082"
"616","7156.257"
"617","7170.014"
"618","7187.966"
"619","7206.716"
"620","7223.277"
"621","7236.69"
"622","7246.653"
"623","7252.862"
"624","7254.655"
"625","7250.218"
"626","7237.513"
"627","7214.537"
"628","7182.796"
"629","7150.888"
"630","7128.234"
"631","7124.011"
"632","7139.404"
"633","7165.291"
"634","7191.905"
"635","7209.949"
"636","7217.594"
"637","7219.16"
"638","7219.137"
"639","7221.364"
"640","7224.063"
"641","7222.569"
"642","7212.196"
"643","7189.035"
"644","7152.895"
"645","7104.745"
"646","7045.56"
"647","6979.864"
"648","6922.409"
"649","6889.714"
"650","6898.068"
"651","6949.344"
"652","7021.111"
"653","7088.656"
"654","7128.049"
"655","7132.328"
"656","7111.705"
"657","7077.133"
"658","7039.377"
"659","7007.558"
"660","6989.795"
"661","6994.169"
"662","7025.744"
"663","7073.036"
"664","7118.929"
"665","7146.359"
"666","7144.716"
"667","7122.428"
"668","7091.426"
"669","7063.535"
"670","7046.022"
"671","7038.667"
"672","7040.563"
"673","7050.743"
"674","7066.968"
"675","7085.821"
"676","7103.849"
"677","7117.874"
"678","7127.064"
"679","7131.814"
"680","7132.524"
"681","7130.765"
"682","7133.23"
"683","7147.997"
"684","7183.093"
"685","7239.379"
"686","7301.722"
"687","7352.84"
"688","7375.957"
"689","7369.057"
"690","7347.758"
"691","7328.675"
"692","7327.098"
"693","7343.37"
"694","7368.258"
"695","7392.389"
"696","7408.353"
"697","7418.927"
"698","7430.22"
"699","7448.315"
"700","7475.583"
"701","7505.009"
"702","7528.125"
"703","7536.637"
"704","7527.939"
"705","7506.711"
"706","7478.104"
"707","7447.002"
"708","7415.275"
"709","7382.812"
"710","7349.459"
"711","7315.321"
"712","7281.804"
"713","7250.721"
"714","7223.88"
"715","7201.292"
"716","7178.742"
"717","7151.407"
"718","7114.73"
"719","7071.819"
"720","7034.594"
"721","7015.442"
"722","7024.716"
"723","7053.125"
"724","7080.33"
"725","7085.9"
"726","7056.73"
"727","7009.64"
"728","6969.099"
"729","6959.354"
"730","6987.431"
"731","7028.758"
"732","7055.427"
"733","7041.258"
"734","6990.624"
"735","6934.431"
"736","6904.426"
"737","6926.063"
"738","6984.233"
"739","7047.653"
"740","7085.069"
"741","7079.053"
"742","7049.535"
"743","7022.674"
"744","7023.958"
"745","7057.783"
"746","7103.044"
"747","7137.149"
"748","7140.127"
"749","7116.492"
"750","7084.186"
"751","7061.26"
"752","7060.703"
"753","7077.024"
"754","7100.516"
"755","7121.572"
"756","7135.522"
"757","7145.267"
"758","7154.35"
"759","7166.112"
"760","7181.474"
"761","7199.72"
"762","7220.099"
"763","7240.454"
"764","7252.319"
"765","7245.477"
"766","7209.87"
"767","7147.838"
"768","7083.772"
"769","7044.295"
"770","7054.087"
"771","7109.832"
"772","7186.996"
"773","7260.554"
"774","7309.61"
"775","7333.425"
"776","7337.416"
"777","7326.995"
"778","7307.967"
"779","7286.875"
"780","7270.336"
"781","7264.622"
"782","7271.012"
"783","7286.915"
"784","7309.645"
"785","7336.02"
"786","7360.455"
"787","7376.646"
"788","7378.356"
"789","7364.839"
"790","7345.186"
"791","7329.505"
"792","7327.102"
"793","7336.497"
"794","7348.46"
"795","7353.596"
"796","7345.339"
"797","7329.254"
"798","7314.16"
"799","7308.796"
"800","7317.262"
"801","7336.395"
"802","7362.405"
"803","7391.171"
"804","7414.955"
"805","7423.818"
"806","7407.8"
"807","7363.695"
"808","7311.648"
"809","7276.838"
"810","7283.798"
"811","7334.463"
"812","7402.459"
"813","7459.644"
"814","7481.989"
"815","7477.55"
"816","7469.473"
"817","7480.948"
"818","7523.394"
"819","7578.406"
"820","7622.937"
"821","7634.989"
"822","7613.277"
"823","7575.593"
"824","7540.436"
"825","7522.424"
"826","7515.918"
"827","7508.679"
"828","7488.588"
"829","7452.471"
"830","7412.562"
"831","7382.602"
"832","7375.134"
"833","7389.533"
"834","7417.005"
"835","7448.645"
"836","7477.394"
"837","7502.142"
"838","7522.978"
"839","7539.964"
"840","7552.355"
"841","7558.541"
"842","7556.864"
"843","7546.406"
"844","7530.677"
"845","7514.843"
"846","7504.049"
"847","7501.409"
"848","7506.254"
"849","7517.508"
"850","7534.096"
"851","7555.006"
"852","7579.269"
"853","7605.91"
"854","7633.331"
"855","7657.936"
"856","7675.748"
"857","7682.925"
"858","7679.073"
"859","7667.312"
"860","7650.921"
"861","7634.276"
"862","7627.558"
"863","7642.863"
"864","7692.053"
"865","7772.143"
"866","7856.683"
"867","7917.143"
"868","7929.208"
"869","7905.367"
"870","7877.153"
"871","7876.201"
"872","7918.981"
"873","7985.551"
"874","8050.62"
"875","8090.345"
"876","8102.28"
"877","8100.305"
"878","8098.715"
"879","8108.287"
"880","8127.16"
"881","8150.641"
"882","8174.135"
"883","8195.706"
"884","8216.274"
"885","8236.902"
"886","8258.212"
"887","8278.547"
"888","8295.509"
"889","8306.742"
"890","8312.231"
"891","8315.397"
"892","8319.934"
"893","8328.628"
"894","8337.613"
"895","8340.022"
"896","8329.032"
"897","8303.565"
"898","8273.742"
"899","8250.972"
"900","8245.519"
"901","8255.842"
"902","8273.48"
"903","8289.891"
"904","8298.064"
"905","8294.866"
"906","8277.768"
"907","8244.917"
"908","8204.122"
"909","8170.296"
"910","8158.515"
"911","8176.69"
"912","8210.11"
"913","8239.616"
"914","8247.071"
"915","8233.686"
"916","8217.867"
"917","8218.632"
"918","8247.37"
"919","8286.203"
"920","8310.237"
"921","8295.685"
"922","8246.315"
"923","8194.49"
"924","8173.901"
"925","8209.452"
"926","8286.479"
"927","8379.201"
"928","8462.223"
"929","8522.494"
"930","8561.434"
"931","8581.276"
"932","8584.771"
"933","8577.218"
"934","8564.729"
"935","8553.377"
"936","8547.522"
"937","8549.341"
"938","8560.859"
"939","8582.652"
"940","8607.235"
"941","8624.358"
"942","8623.989"
"943","8605.883"
"944","8583.057"
"945","8569.481"
"946","8576.281"
"947","8598.09"
"948","8623.609"
"949","8641.65"
"950","8646.254"
"951","8638.752"
"952","8621.01"
"953","8596.068"
"954","8573.847"
"955","8566.757"
"956","8586.864"
"957","8630.234"
"958","8670.859"
"959","8681.102"
"960","8641.006"
"961","8574.41"
"962","8520.656"
"963","8518.321"
"964","8573.415"
"965","8648.698"
"966","8703.935"
"967","8707.637"
"968","8675.195"
"969","8637.626"
"970","8625.329"
"971","8646.455"
"972","8681.6"
"973","8709.63"
"974","8713.371"
"975","8694.856"
"976","8661.935"
"977","8622.446"
"978","8583.766"
"979","8552.741"
"980","8536.204"
"981","8539.286"
"982","8559.923"
"983","8594.137"
"984","8637.772"
"985","8682.681"
"986","8716.788"
"987","8727.845"
"988","8708.642"
"989","8670.107"
"990","8627.254"
"991","8594.604"
"992","8578.208"
"993","8577.012"
"994","8589.731"
"995","8613.789"
"996","8642.743"
"997","8669.447"
"998","8687.306"
"999","8696.863"
"1000","8703.615"
"1001","8713.151"
"1002","8728.952"
"1003","8749.512"
"1004","8772.604"
"1005","8796.002"
"1006","8818.107"
"1007","8841.566"
"1008","8870.768"
"1009","8909.957"
"1010","8956.153"
"1011","8995.978"
"1012","9015.246"
"1013","9004.328"
"1014","8978.348"
"1015","8960.817"
"1016","8974.521"
"1017","9018.818"
"1018","9065.56"
"1019","9085.004"
"1020","9057.402"
"1021","9005.269"
"1022","8962.272"
"1023","8960.569"
"1024","9001.313"
"1025","9056.938"
"1026","9098.776"
"1027","9108.311"
"1028","9099.008"
"1029","9090.616"
"1030","9101.392"
"1031","9129.882"
"1032","9160.803"
"1033","9178.612"
"1034","9176.126"
"1035","9165.146"
"1036","9160.1"
"1037","9173.574"
"1038","9202.341"
"1039","9235.153"
"1040","9260.798"
"1041","9274.487"
"1042","9281.72"
"1043","9288.913"
"1044","9301.18"
"1045","9316.338"
"1046","9329.691"
"1047","9336.666"
"1048","9336.155"
"1049","9330.857"
"1050","9323.668"
"1051","9316.826"
"1052","9310.284"
"1053","9303.487"
"1054","9295.873"
"1055","9286.84"
"1056","9275.753"
"1057","9261.989"
"1058","9248.164"
"1059","9243.97"
"1060","9260.036"
"1061","9304.404"
"1062","9365.604"
"1063","9423.277"
"1064","9457.31"
"1065","9459.89"
"1066","9439.755"
"1067","9406.819"
"1068","9370.446"
"1069","9337.679"
"1070","9314.945"
"1071","9308.102"
"1072","9313.711"
"1073","9320.816"
"1074","9318.262"
"1075","9300.44"
"1076","9274.72"
"1077","9250.313"
"1078","9235.162"
"1079","9227.432"
"1080","9220.792"
"1081","9209.043"
"1082","9192.433"
"1083","9179.552"
"1084","9179.559"
"1085","9196.915"
"1086","9218.063"
"1087","9225.129"
"1088","9201.85"
"1089","9153.598"
"1090","9101.05"
"1091","9065.146"
"1092","9057.563"
"1093","9072.125"
"1094","9100.615"
"1095","9134.412"
"1096","9162.59"
"1097","9173.386"
"1098","9155.786"
"1099","9115.716"
"1100","9075.8"
"1101","9059.365"
"1102","9079.477"
"1103","9121.832"
"1104","9167.611"
"1105","9199.493"
"1106","9212.354"
"1107","9206.953"
"1108","9184.229"
"1109","9150.102"
"1110","9116.762"
"1111","9096.81"
"1112","9098.805"
"1113","9117.603"
"1114","9145.151"
"1115","9173.508"
"1116","9195.94"
"1117","9206.427"
"1118","9199.126"
"1119","9177.414"
"1120","9158.3"
"1121","9159.895"
"1122","9192.703"
"1123","9237.182"
"1124","9266.371"
"1125","9256.188"
"1126","9216.737"
"1127","9180.453"
"1128","9179.785"
"1129","9221.396"
"1130","9270.852"
"1131","9290.021"
"1132","9253.331"
"1133","9187.51"
"1134","9132.885"
"1135","9126.603"
"1136","9166.91"
"1137","9226.169"
"1138","9276.474"
"1139","9303.74"
"1140","9315.709"
"1141","9322.048"
"1142","9329.563"
"1143","9333.66"
"1144","9326.898"
"1145","9302.989"
"1146","9268.328"
"1147","9237.2"
"1148","9223.808"
"1149","9231.485"
"1150","9247.999"
"1151","9259.896"
"1152","9259.207"
"1153","9256.938"
"1154","9268.204"
"1155","9305.264"
"1156","9354.425"
"1157","9388.164"
"1158","9379.69"
"1159","9330.99"
"1160","9278.542"
"1161","9260.865"
"1162","9299.25"
"1163","9367.628"
"1164","9431.858"
"1165","9462.925"
"1166","9466.697"
"1167","9463.546"
"1168","9472.865"
"1169","9493.277"
"1170","9504.217"
"1171","9484.514"
"1172","9430.47"
"1173","9373.507"
"1174","9349.272"
"1175","9382.457"
"1176","9446.451"
"1177","9499.662"
"1178","9504.232"
"1179","9466.849"
"1180","9423.283"
"1181","9409.286"
"1182","9436.249"
"1183","9482.21"
"1184","9522.778"
"1185","9541.154"
"1186","9543.056"
"1187","9538.345"
"1188","9536.151"
"1189","9540.541"
"1190","9553.47"
"1191","9576.471"
"1192","9603.641"
"1193","9622.607"
"1194","9620.899"
"1195","9597.544"
"1196","9571.826"
"1197","9565.119"
"1198","9590.516"
"1199","9629.959"
"1200","9658.06"
"1201","9653.347"
"1202","9627.586"
"1203","9609.23"
"1204","9625.549"
"1205","9673.273"
"1206","9718.71"
"1207","9727.005"
"1208","9686.423"
"1209","9630.537"
"1210","9598.196"
"1211","9616.255"
"1212","9662.908"
"1213","9704.023"
"1214","9709.532"
"1215","9685.08"
"1216","9654.777"
"1217","9642.147"
"1218","9653.492"
"1219","9678.103"
"1220","9704.562"
"1221","9725.192"
"1222","9739.297"
"1223","9746.941"
"1224","9748.281"
"1225","9743.811"
"1226","9734.093"
"1227","9720.093"
"1228","9705.75"
"1229","9696.366"
"1230","9697.016"
"1231","9708.58"
"1232","9728.405"
"1233","9753.68"
"1234","9779.393"
"1235","9797.157"
"1236","9798.299"
"1237","9779.701"
"1238","9754.158"
"1239","9737.291"
"1240","9741.351"
"1241","9759.915"
"1242","9780.159"
"1243","9790.369"
"1244","9791.51"
"1245","9792.497"
"1246","9802.081"
"1247","9820.829"
"1248","9840.333"
"1249","9851.763"
"1250","9851.877"
"1251","9848.16"
"1252","9849.313"
"1253","9861.328"
"1254","9880.818"
"1255","9902.367"
"1256","9920.873"
"1257","9933.239"
"1258","9937.161"
"1259","9931.113"
"1260","9923.261"
"1261","9928.378"
"1262","9960.759"
"1263","10016.6"
"1264","10071.51"
"1265","10100.09"
"1266","10091.19"
"1267","10060.77"
"1268","10027.8"
"1269","10006.09"
"1270","9992.55"
"1271","9980.654"
"1272","9966"
"1273","9956.27"
"1274","9963.428"
"1275","9997.534"
"1276","10048.94"
"1277","10096.37"
"1278","10119.27"
"1279","10114.64"
"1280","10096.06"
"1281","10077.68"
"1282","10066.87"
"1283","10060.9"
"1284","10056.22"
"1285","10050.71"
"1286","10045.61"
"1287","10042.72"
"1288","10043.13"
"1289","10045.39"
"1290","10047.4"
"1291","10047.95"
"1292","10051.58"
"1293","10065.1"
"1294","10094.31"
"1295","10133.06"
"1296","10167.78"
"1297","10185.47"
"1298","10188.47"
"1299","10193.62"
"1300","10218.04"
"1301","10261.56"
"1302","10299.34"
"1303","10304.71"
"1304","10266.78"
"1305","10208.74"
"1306","10158.22"
"1307","10136.39"
"1308","10142.91"
"1309","10172.99"
"1310","10219.82"
"1311","10266.19"
"1312","10291.58"
"1313","10279.24"
"1314","10242.92"
"1315","10210.92"
"1316","10209.54"
"1317","10236.91"
"1318","10271.53"
"1319","10292.26"
"1320","10295.18"
"1321","10293.57"
"1322","10301.21"
"1323","10322.03"
"1324","10346.08"
"1325","10362.42"
"1326","10366.92"
"1327","10369.13"
"1328","10380.16"
"1329","10405.81"
"1330","10436.57"
"1331","10460.26"
"1332","10468.26"
"1333","10466.42"
"1334","10464.3"
"1335","10469.68"
"1336","10479.78"
"1337","10488.04"
"1338","10488.98"
"1339","10486.54"
"1340","10489.33"
"1341","10504.81"
"1342","10525.24"
"1343","10532.5"
"1344","10509.31"
"1345","10457.82"
"1346","10397.86"
"1347","10349.59"
"1348","10324.29"
"1349","10322.59"
"1350","10344.43"
"1351","10384.81"
"1352","10431.04"
"1353","10469.81"
"1354","10493.67"
"1355","10507.29"
"1356","10516.81"
"1357","10523.54"
"1358","10515.88"
"1359","10480.08"
"1360","10411.47"
"1361","10337.28"
"1362","10291.79"
"1363","10299.47"
"1364","10339.54"
"1365","10378.2"
"1366","10388.23"
"1367","10381.83"
"1368","10385.8"
"1369","10422.36"
"1370","10477.85"
"1371","10521.82"
"1372","10526.93"
"1373","10498.54"
"1374","10461.06"
"1375","10437.38"
"1376","10426.53"
"1377","10410.55"
"1378","10372.55"
"1379","10321.7"
"1380","10289.66"
"1381","10307.34"
"1382","10367.56"
"1383","10423.63"
"1384","10428.2"
"1385","10375.6"
"1386","10311.71"
"1387","10284.92"
"1388","10308.86"
"1389","10346.37"
"1390","10356.6"
"1391","10326.41"
"1392","10290.13"
"1393","10286.61"
"1394","10331.87"
"1395","10396.18"
"1396","10444.41"
"1397","10457.04"
"1398","10450.88"
"1399","10447.88"
"1400","10458.94"
"1401","10465.12"
"1402","10442.53"
"1403","10382.34"
"1404","10322.06"
"1405","10308.18"
"1406","10366.87"
"1407","10452.89"
"1408","10505.35"
"1409","10482.88"
"1410","10422.01"
"1411","10378.62"
"1412","10393.94"
"1413","10443.79"
"1414","10485.87"
"1415","10487.91"
"1416","10467.58"
"1417","10457.91"
"1418","10483.21"
"1419","10520.23"
"1420","10529.65"
"1421","10481.82"
"1422","10404.43"
"1423","10346.23"
"1424","10347.28"
"1425","10391.65"
"1426","10441.35"
"1427","10462.84"
"1428","10453.68"
"1429","10424.46"
"1430","10386.22"
"1431","10352.68"
"1432","10338.76"
"1433","10355.82"
"1434","10387.78"
"1435","10405.89"
"1436","10385.74"
"1437","10338.15"
"1438","10290.76"
"1439","10268.41"
"1440","10271.69"
"1441","10289.34"
"1442","10310.28"
"1443","10325.81"
"1444","10328.41"
"1445","10312.6"
"1446","10289.95"
"1447","10280.61"
"1448","10301.34"
"1449","10339.67"
"1450","10368.39"
"1451","10363.19"
"1452","10324.65"
"1453","10265.78"
"1454","10200.41"
"1455","10148.41"
"1456","10132.63"
"1457","10170.37"
"1458","10235"
"1459","10278.96"
"1460","10262.67"
"1461","10208.5"
"1462","10167.32"
"1463","10181.42"
"1464","10229.75"
"1465","10263.44"
"1466","10242.29"
"1467","10186.46"
"1468","10141.25"
"1469","10142.74"
"1470","10167.51"
"1471","10168.85"
"1472","10111.4"
"1473","10026.93"
"1474","9971.71"
"1475","9989.981"
"1476","10060.87"
"1477","10141.63"
"1478","10194.91"
"1479","10209.97"
"1480","10184.21"
"1481","10120.57"
"1482","10046.47"
"1483","9996.099"
"1484","9993.867"
"1485","10025.36"
"1486","10066.59"
"1487","10096.41"
"1488","10103.69"
"1489","10079.49"
"1490","10022.63"
"1491","9955.86"
"1492","9906.496"
"1493","9891.521"
"1494","9900.123"
"1495","9916.882"
"1496","9929.671"
"1497","9934.035"
"1498","9926.646"
"1499","9910.357"
"1500","9900.424"
"1501","9913.393"
"1502","9948.827"
"1503","9976.983"
"1504","9965.78"
"1505","9914.246"
"1506","9867.271"
"1507","9872.227"
"1508","9932.443"
"1509","9996.127"
"1510","10009.79"
"1511","9966.854"
"1512","9910.24"
"1513","9883.583"
"1514","9898.608"
"1515","9938.859"
"1516","9986.693"
"1517","10021.73"
"1518","10021.59"
"1519","9967.641"
"1520","9881.927"
"1521","9810.979"
"1522","9795.511"
"1523","9825.634"
"1524","9866.765"
"1525","9888.52"
"1526","9888.324"
"1527","9874.43"
"1528","9854.348"
"1529","9831.783"
"1530","9809.274"
"1531","9789.919"
"1532","9778.913"
"1533","9781.941"
"1534","9800.619"
"1535","9824.747"
"1536","9841.988"
"1537","9842.557"
"1538","9822.359"
"1539","9778.247"
"1540","9720.805"
"1541","9684.224"
"1542","9704.099"
"1543","9777.686"
"1544","9851.538"
"1545","9870.848"
"1546","9832.306"
"1547","9784.852"
"1548","9776.465"
"1549","9804.65"
"1550","9827.905"
"1551","9808.745"
"1552","9760.982"
"1553","9728.262"
"1554","9746.781"
"1555","9797.541"
"1556","9837.848"
"1557","9834.417"
"1558","9801.254"
"1559","9766.998"
"1560","9752.094"
"1561","9748.187"
"1562","9740.631"
"1563","9720.509"
"1564","9693.087"
"1565","9665.764"
"1566","9644.127"
"1567","9630.546"
"1568","9626.992"
"1569","9632.983"
"1570","9644.916"
"1571","9659.007"
"1572","9671.856"
"1573","9680.407"
"1574","9681.72"
"1575","9674.094"
"1576","9656.619"
"1577","9629.256"
"1578","9598.193"
"1579","9572.405"
"1580","9559.896"
"1581","9563.844"
"1582","9585.993"
"1583","9625.46"
"1584","9673.059"
"1585","9717.954"
"1586","9749.026"
"1587","9754.576"
"1588","9723.304"
"1589","9667.247"
"1590","9631.568"
"1591","9661.188"
"1592","9740.021"
"1593","9793.237"
"1594","9751.559"
"1595","9639.396"
"1596","9541.816"
"1597","9530.344"
"1598","9574.813"
"1599","9601.911"
"1600","9559.473"
"1601","9486.99"
"1602","9448.525"
"1603","9478.813"
"1604","9534.116"
"1605","9558.107"
"1606","9528.924"
"1607","9483.255"
"1608","9462.587"
"1609","9482.563"
"1610","9530.499"
"1611","9591.726"
"1612","9644.604"
"1613","9662.569"
"1614","9625.154"
"1615","9557.253"
"1616","9503.821"
"1617","9497.834"
"1618","9520.626"
"1619","9539.791"
"1620","9534.703"
"1621","9514.516"
"1622","9492.955"
"1623","9479.638"
"1624","9477.84"
"1625","9489.889"
"1626","9509.28"
"1627","9521.111"
"1628","9512.72"
"1629","9497.765"
"1630","9505.234"
"1631","9555.349"
"1632","9618.686"
"1633","9648.783"
"1634","9618.221"
"1635","9558.918"
"1636","9514.063"
"1637","9503.033"
"1638","9502.432"
"1639","9485.199"
"1640","9445.463"
"1641","9399.898"
"1642","9365.562"
"1643","9351.302"
"1644","9360.803"
"1645","9394.188"
"1646","9431.503"
"1647","9445.59"
"1648","9421.22"
"1649","9380.363"
"1650","9352.038"
"1651","9349.662"
"1652","9359.646"
"1653","9366.357"
"1654","9368.609"
"1655","9379.543"
"1656","9410.138"
"1657","9444.461"
"1658","9451.436"
"1659","9408.194"
"1660","9332.801"
"1661","9255.771"
"1662","9200.586"
"1663","9172.812"
"1664","9175.104"
"1665","9204.271"
"1666","9249.058"
"1667","9297.456"
"1668","9335.296"
"1669","9346.744"
"1670","9321.675"
"1671","9288.658"
"1672","9292.23"
"1673","9352.126"
"1674","9405.106"
"1675","9371.38"
"1676","9236.961"
"1677","9101.153"
"1678","9069.481"
"1679","9144.9"
"1680","9235.682"
"1681","9257.832"
"1682","9220.481"
"1683","9178.175"
"1684","9172.541"
"1685","9193.935"
"1686","9220.36"
"1687","9235.729"
"1688","9235.247"
"1689","9215.855"
"1690","9185.161"
"1691","9161.347"
"1692","9160.414"
"1693","9175.504"
"1694","9188.096"
"1695","9183.185"
"1696","9160.005"
"1697","9121.34"
"1698","9077.077"
"1699","9050.426"
"1700","9064.793"
"1701","9116.155"
"1702","9174.488"
"1703","9211.424"
"1704","9220.07"
"1705","9203.646"
"1706","9169.559"
"1707","9139.578"
"1708","9138.394"
"1709","9172.9"
"1710","9220.768"
"1711","9257.448"
"1712","9267.057"
"1713","9240.698"
"1714","9175.567"
"1715","9105.684"
"1716","9079.269"
"1717","9119.638"
"1718","9181.714"
"1719","9209.713"
"1720","9185.081"
"1721","9136.97"
"1722","9096.12"
"1723","9076.149"
"1724","9080.175"
"1725","9106.217"
"1726","9130.524"
"1727","9123.526"
"1728","9079.738"
"1729","9039.999"
"1730","9047.829"
"1731","9096.461"
"1732","9134.029"
"1733","9117.521"
"1734","9073.998"
"1735","9059.17"
"1736","9101.863"
"1737","9156.566"
"1738","9166.407"
"1739","9122.533"
"1740","9074.932"
"1741","9071.135"
"1742","9099.922"
"1743","9117.332"
"1744","9094.075"
"1745","9057.156"
"1746","9046.315"
"1747","9072.543"
"1748","9101.497"
"1749","9097.81"
"1750","9066.01"
"1751","9038.711"
"1752","9039.632"
"1753","9047.351"
"1754","9027.323"
"1755","8975.787"
"1756","8947.9"
"1757","9000.94"
"1758","9114.142"
"1759","9201.771"
"1760","9193.293"
"1761","9115.466"
"1762","9028.929"
"1763","8976.927"
"1764","8964.504"
"1765","8990.502"
"1766","9030.109"
"1767","9036.679"
"1768","8975.343"
"1769","8889.856"
"1770","8853.984"
"1771","8905.069"
"1772","8995.141"
"1773","9065.736"
"1774","9096.748"
"1775","9105.021"
"1776","9107.102"
"1777","9107.849"
"1778","9107.564"
"1779","9107.265"
"1780","9109.671"
"1781","9117.416"
"1782","9126.221"
"1783","9125.267"
"1784","9105.241"
"1785","9067.646"
"1786","9018.052"
"1787","8964.83"
"1788","8922.432"
"1789","8905.577"
"1790","8918.451"
"1791","8956.055"
"1792","9010.256"
"1793","9057.793"
"1794","9070.451"
"1795","9040.021"
"1796","8996.938"
"1797","8974.185"
"1798","8976.592"
"1799","8987.67"
"1800","8992.628"
"1801","8986.778"
"1802","8968.403"
"1803","8945.642"
"1804","8942.381"
"1805","8980.49"
"1806","9043.683"
"1807","9092.103"
"1808","9097.696"
"1809","9074.825"
"1810","9046.969"
"1811","9033.504"
"1812","9048.658"
"1813","9099.748"
"1814","9142.537"
"1815","9108.61"
"1816","8975.668"
"1817","8838.725"
"1818","8806.3"
"1819","8885.737"
"1820","8990.679"
"1821","9045.167"
"1822","9048.2"
"1823","9023.467"
"1824","8988.594"
"1825","8950.462"
"1826","8915.305"
"1827","8894.307"
"1828","8901.841"
"1829","8942.846"
"1830","8989.728"
"1831","9008.671"
"1832","8990.786"
"1833","8956.441"
"1834","8925.477"
"1835","8902.598"
"1836","8886.27"
"1837","8875.784"
"1838","8872.249"
"1839","8877.155"
"1840","8894.213"
"1841","8928.767"
"1842","8982.138"
"1843","9039.946"
"1844","9084.082"
"1845","9100.123"
"1846","9078.327"
"1847","9015.093"
"1848","8948.322"
"1849","8933.711"
"1850","8989.997"
"1851","9057.142"
"1852","9069.851"
"1853","9030.365"
"1854","8989.693"
"1855","8987.701"
"1856","9019.72"
"1857","9070.797"
"1858","9119.78"
"1859","9138.374"
"1860","9105.835"
"1861","9050.419"
"1862","9018.653"
"1863","9028.353"
"1864","9045.329"
"1865","9033.245"
"1866","8991.178"
"1867","8939.325"
"1868","8893.414"
"1869","8855.653"
"1870","8826.445"
"1871","8816.77"
"1872","8847.082"
"1873","8927.136"
"1874","9017.97"
"1875","9068.088"
"1876","9063.422"
"1877","9038.906"
"1878","9026.896"
"1879","9019.534"
"1880","8992.563"
"1881","8946.614"
"1882","8929.085"
"1883","8985.357"
"1884","9085.318"
"1885","9154.177"
"1886","9145.67"
"1887","9091.319"
"1888","9034.064"
"1889","8992.959"
"1890","8967.637"
"1891","8955.744"
"1892","8949.648"
"1893","8940.759"
"1894","8928.682"
"1895","8921.927"
"1896","8926.988"
"1897","8937.639"
"1898","8943.644"
"1899","8938.897"
"1900","8923.146"
"1901","8898.885"
"1902","8884.475"
"1903","8904.774"
"1904","8960.875"
"1905","9010.83"
"1906","9014.281"
"1907","8987.952"
"1908","8979.183"
"1909","9010.682"
"1910","9048.575"
"1911","9054.385"
"1912","9029.135"
"1913","8999.978"
"1914","8984.311"
"1915","8970.931"
"1916","8945.201"
"1917","8916.309"
"1918","8912.298"
"1919","8948.469"
"1920","8995.6"
"1921","9016.474"
"1922","9001.8"
"1923","8968.001"
"1924","8931.457"
"1925","8904.408"
"1926","8897.617"
"1927","8909.149"
"1928","8923.793"
"1929","8927.785"
"1930","8916.839"
"1931","8889.685"
"1932","8856.37"
"1933","8840.064"
"1934","8857.292"
"1935","8887.657"
"1936","8899.775"
"1937","8881.527"
"1938","8844.936"
"1939","8804.767"
"1940","8782.024"
"1941","8799.079"
"1942","8846.545"
"1943","8873.036"
"1944","8839.701"
"1945","8795.328"
"1946","8817.8"
"1947","8909.841"
"1948","8971.681"
"1949","8920.227"
"1950","8812.246"
"1951","8752.992"
"1952","8776.154"
"1953","8817.161"
"1954","8815.132"
"1955","8771.954"
"1956","8711.672"
"1957","8654.548"
"1958","8615.673"
"1959","8606.96"
"1960","8624.526"
"1961","8658.892"
"1962","8693.973"
"1963","8705.197"
"1964","8676.851"
"1965","8642.146"
"1966","8648.823"
"1967","8699.921"
"1968","8744.539"
"1969","8739.809"
"1970","8696.703"
"1971","8642.184"
"1972","8604.918"
"1973","8615.44"
"1974","8686.18"
"1975","8752.874"
"1976","8734.782"
"1977","8637.354"
"1978","8550.894"
"1979","8541.525"
"1980","8573.541"
"1981","8590.386"
"1982","8578.589"
"1983","8561.637"
"1984","8557.197"
"1985","8561.234"
"1986","8565.381"
"1987","8559.167"
"1988","8530.583"
"1989","8477.337"
"1990","8421.907"
"1991","8388.644"
"1992","8379.651"
"1993","8383.609"
"1994","8391.963"
"1995","8402.286"
"1996","8412.108"
"1997","8412.615"
"1998","8392.081"
"1999","8353.104"
"2000","8321.772"
"2001","8321.332"
"2002","8343.726"
"2003","8368.889"
"2004","8373.217"
"2005","8328.651"
"2006","8224.221"
"2007","8128.615"
"2008","8129.422"
"2009","8223.201"
"2010","8317.118"
"2011","8340.175"
"2012","8307.412"
"2013","8252.28"
"2014","8214.63"
"2015","8238.937"
"2016","8326.77"
"2017","8376.94"
"2018","8290.695"
"2019","8131.291"
"2020","8047.584"
"2021","8099.374"
"2022","8193.461"
"2023","8237.148"
"2024","8232.383"
"2025","8215.839"
"2026","8204.01"
"2027","8189.14"
"2028","8165.871"
"2029","8144.215"
"2030","8137.188"
"2031","8143.371"
"2032","8149.376"
"2033","8142.984"
"2034","8116.07"
"2035","8064.521"
"2036","8016.504"
"2037","8017.701"
"2038","8072.121"
"2039","8112.577"
"2040","8080.004"
"2041","8003.277"
"2042","7941.773"
"2043","7925.585"
"2044","7952.324"
"2045","8009.042"
"2046","8052.004"
"2047","8035.623"
"2048","7980.724"
"2049","7954.953"
"2050","7986.847"
"2051","8020.202"
"2052","8001.258"
"2053","7971.466"
"2054","8011.537"
"2055","8118.297"
"2056","8180.398"
"2057","8128.07"
"2058","8088.023"
"2059","8224.921"
"2060","8523.586"
"2061","8828.938"
"2062","9033.581"
"2063","9147.191"
"2064","9190.708"
"2065","9148.92"
"2066","8991.369"
"2067","8733.811"
"2068","8452.296"
"2069","8215.51"
"2070","8046.032"
"2071","7952.344"
"2072","7902.819"
"2073","7836.087"
"2074","7730.786"
"2075","7651.301"
"2076","7657.916"
"2077","7710.201"
"2078","7728.604"
"2079","7697.195"
"2080","7673.377"
"2081","7692.466"
"2082","7702.693"
"2083","7642.393"
"2084","7541.929"
"2085","7488.324"
"2086","7513.771"
"2087","7555.864"
"2088","7556.426"
"2089","7526.03"
"2090","7496.146"
"2091","7482.539"
"2092","7487.027"
"2093","7508.848"
"2094","7542.182"
"2095","7578.362"
"2096","7593.547"
"2097","7558.452"
"2098","7491.094"
"2099","7466.353"
"2100","7524.456"
"2101","7578.777"
"2102","7530.028"
"2103","7425.079"
"2104","7396.399"
"2105","7471.31"
"2106","7511.65"
"2107","7410.896"
"2108","7264.975"
"2109","7216.235"
"2110","7274.305"
"2111","7349.596"
"2112","7379.252"
"2113","7356.98"
"2114","7287.622"
"2115","7201.793"
"2116","7137.683"
"2117","7108.466"
"2118","7104.938"
"2119","7115.34"
"2120","7123.955"
"2121","7117.857"
"2122","7106.14"
"2123","7105.88"
"2124","7114.372"
"2125","7108.763"
"2126","7080.372"
"2127","7059.66"
"2128","7074.844"
"2129","7091.285"
"2130","7048.371"
"2131","6942.535"
"2132","6833.524"
"2133","6774.226"
"2134","6788.676"
"2135","6886.471"
"2136","7003.107"
"2137","7042.062"
"2138","6996.371"
"2139","6962.203"
"2140","6996.686"
"2141","7028.485"
"2142","6976.455"
"2143","6863.804"
"2144","6761.982"
"2145","6707.755"
"2146","6697.983"
"2147","6722.642"
"2148","6758.601"
"2149","6781.944"
"2150","6780.602"
"2151","6748.371"
"2152","6693.214"
"2153","6638.34"
"2154","6606.598"
"2155","6617.748"
"2156","6683.974"
"2157","6769.165"
"2158","6819.205"
"2159","6826.476"
"2160","6828.73"
"2161","6841.108"
"2162","6822.812"
"2163","6739.789"
"2164","6642.506"
"2165","6607.782"
"2166","6640.473"
"2167","6684.733"
"2168","6698.166"
"2169","6668.167"
"2170","6595.648"
"2171","6529.557"
"2172","6526.859"
"2173","6562.612"
"2174","6555.542"
"2175","6480.832"
"2176","6403.499"
"2177","6382.818"
"2178","6427.537"
"2179","6529.289"
"2180","6627.811"
"2181","6636.13"
"2182","6533.589"
"2183","6380.322"
"2184","6236.093"
"2185","6145.846"
"2186","6139.617"
"2187","6163.866"
"2188","6135.2"
"2189","6056.917"
"2190","6010.556"
"2191","6037.594"
"2192","6095.026"
"2193","6134.092"
"2194","6125.44"
"2195","6051.825"
"2196","5973.293"
"2197","5997.669"
"2198","6136.127"
"2199","6266.326"
"2200","6289.26"
"2201","6206.46"
"2202","6044.217"
"2203","5870.452"
"2204","5767.842"
"2205","5748.107"
"2206","5757.468"
"2207","5758.563"
"2208","5750.789"
"2209","5737.604"
"2210","5721.898"
"2211","5706.278"
"2212","5691.822"
"2213","5678.748"
"2214","5668.414"
"2215","5663.595"
"2216","5664.041"
"2217","5661.552"
"2218","5648.92"
"2219","5632.033"
"2220","5620.964"
"2221","5618.858"
"2222","5623.531"
"2223","5624.459"
"2224","5598.818"
"2225","5543.084"
"2226","5517.792"
"2227","5577.983"
"2228","5650.661"
"2229","5614.342"
"2230","5465.492"
"2231","5302.779"
"2232","5204.466"
"2233","5207.592"
"2234","5318.912"
"2235","5451.109"
"2236","5504.486"
"2237","5450.438"
"2238","5297.972"
"2239","5138.564"
"2240","5139.08"
"2241","5319.99"
"2242","5429.477"
"2243","5284.396"
"2244","5068.936"
"2245","5018.236"
"2246","5081"
"2247","5075.057"
"2248","4973.923"
"2249","4897.038"
"2250","4906.314"
"2251","4950.25"
"2252","4968.987"
"2253","4915.712"
"2254","4760.895"
"2255","4584.421"
"2256","4510.675"
"2257","4559.76"
"2258","4660.544"
"2259","4735.693"
"2260","4703.037"
"2261","4529.152"
"2262","4337.652"
"2263","4265.01"
"2264","4325.62"
"2265","4478.823"
"2266","4591.362"
"2267","4464.712"
"2268","4115.642"
"2269","3861.681"
"2270","3899.555"
"2271","4051.377"
"2272","4107.741"
"2273","4010.95"
"2274","3764.247"
"2275","3504.33"
"2276","3441.348"
"2277","3567.53"
"2278","3635.029"
"2279","3514.764"
"2280","3340.147"
"2281","3242.332"
"2282","3224.364"
"2283","3255.749"
"2284","3281.933"
"2285","3242.029"
"2286","3151.586"
"2287","3087.104"
"2288","3062.078"
"2289","2996.984"
"2290","2852.353"
"2291","2711.595"
"2292","2653.208"
"2293","2634.205"
"2294","2581.595"
"2295","2491.755"
"2296","2398.609"
"2297","2312.071"
"2298","2218.508"
"2299","2120.621"
"2300","2050.301"
