,"Scan 01076"
"400","14517.33"
"401","14506.77"
"402","14490.67"
"403","14481.3"
"404","14490.84"
"405","14529.33"
"406","14589.12"
"407","14653.61"
"408","14706.27"
"409","14731.84"
"410","14730.26"
"411","14712.03"
"412","14687.76"
"413","14667.75"
"414","14656.46"
"415","14652.99"
"416","14656.22"
"417","14665.04"
"418","14677.99"
"419","14693.23"
"420","14708.9"
"421","14723.15"
"422","14734.64"
"423","14742.81"
"424","14747.19"
"425","14747.3"
"426","14744.39"
"427","14743.2"
"428","14748.91"
"429","14766.66"
"430","14798.95"
"431","14841.26"
"432","14887.93"
"433","14933.35"
"434","14972.24"
"435","15000.4"
"436","15013.89"
"437","15008.81"
"438","14984.04"
"439","14950.56"
"440","14922.61"
"441","14914.34"
"442","14935.96"
"443","14976.63"
"444","15018.41"
"445","15043.5"
"446","15037.15"
"447","15004.78"
"448","14960.07"
"449","14916.61"
"450","14886.08"
"451","14864.57"
"452","14840.59"
"453","14802.65"
"454","14740.86"
"455","14660.61"
"456","14576.09"
"457","14501.45"
"458","14449.59"
"459","14418.58"
"460","14396.8"
"461","14372.5"
"462","14334.69"
"463","14282.47"
"464","14222.43"
"465","14161.3"
"466","14105.62"
"467","14059.17"
"468","14023.47"
"469","13999.92"
"470","13989.62"
"471","13986.63"
"472","13978.64"
"473","13953.19"
"474","13898.56"
"475","13818.23"
"476","13730.74"
"477","13655.2"
"478","13610.01"
"479","13598.79"
"480","13609.48"
"481","13629.35"
"482","13645.95"
"483","13652.85"
"484","13650.37"
"485","13639.13"
"486","13619.85"
"487","13594.63"
"488","13567.24"
"489","13541.53"
"490","13521.26"
"491","13508.06"
"492","13501.07"
"493","13499.25"
"494","13501.53"
"495","13504.14"
"496","13500.12"
"497","13482.35"
"498","13444.01"
"499","13387.01"
"500","13323.75"
"501","13267.19"
"502","13229.96"
"503","13216.77"
"504","13222.88"
"505","13243.01"
"506","13271.9"
"507","13302.93"
"508","13327.95"
"509","13338.75"
"510","13327.53"
"511","13296"
"512","13256.39"
"513","13221.44"
"514","13203.4"
"515","13204.6"
"516","13216.95"
"517","13231.92"
"518","13241.28"
"519","13242.87"
"520","13240.45"
"521","13237.99"
"522","13239.2"
"523","13243.1"
"524","13244.46"
"525","13237.95"
"526","13218.58"
"527","13187.14"
"528","13149.15"
"529","13110.21"
"530","13075.75"
"531","13048.81"
"532","13030.71"
"533","13022.72"
"534","13025.84"
"535","13038.44"
"536","13057.11"
"537","13078.44"
"538","13099.01"
"539","13115.12"
"540","13122.9"
"541","13118.52"
"542","13098.8"
"543","13065.8"
"544","13024.12"
"545","12978.36"
"546","12933.07"
"547","12892.69"
"548","12861.61"
"549","12844.17"
"550","12843.75"
"551","12858.55"
"552","12885.02"
"553","12919.6"
"554","12957.91"
"555","12991.75"
"556","13011.93"
"557","13009.27"
"558","12979.74"
"559","12936.97"
"560","12898.42"
"561","12881.44"
"562","12896.34"
"563","12934.2"
"564","12982.85"
"565","13030.21"
"566","13067.06"
"567","13090.28"
"568","13097.54"
"569","13086.57"
"570","13058.38"
"571","13019.46"
"572","12976.79"
"573","12937.26"
"574","12905.91"
"575","12885.37"
"576","12878.08"
"577","12886.32"
"578","12908.72"
"579","12940.26"
"580","12975.79"
"581","13010.34"
"582","13041.54"
"583","13068.97"
"584","13092.28"
"585","13111.17"
"586","13126.03"
"587","13137.65"
"588","13146.83"
"589","13154.21"
"590","13159.62"
"591","13162.54"
"592","13162.43"
"593","13159.27"
"594","13155.37"
"595","13153.71"
"596","13157.26"
"597","13167.85"
"598","13183.68"
"599","13202.21"
"600","13220.94"
"601","13237.71"
"602","13251.1"
"603","13259.81"
"604","13262.58"
"605","13259.91"
"606","13255.01"
"607","13251.29"
"608","13252.08"
"609","13257.64"
"610","13265.06"
"611","13271.27"
"612","13273.33"
"613","13269.69"
"614","13259.86"
"615","13243.4"
"616","13219.84"
"617","13188.76"
"618","13149.8"
"619","13102.55"
"620","13047.37"
"621","12988.41"
"622","12930.99"
"623","12880.43"
"624","12841.08"
"625","12814.3"
"626","12800.81"
"627","12801.32"
"628","12812.62"
"629","12823.55"
"630","12822.06"
"631","12796.42"
"632","12745.45"
"633","12681.65"
"634","12618.35"
"635","12568.32"
"636","12535.66"
"637","12517.29"
"638","12509.93"
"639","12510.23"
"640","12514.19"
"641","12517.46"
"642","12515.69"
"643","12506.02"
"644","12492.85"
"645","12482.81"
"646","12482.5"
"647","12495.29"
"648","12515.38"
"649","12535.27"
"650","12547.6"
"651","12548.07"
"652","12537.66"
"653","12517.85"
"654","12490.15"
"655","12457.15"
"656","12422.48"
"657","12389.86"
"658","12362.6"
"659","12340.13"
"660","12319.59"
"661","12298.07"
"662","12273.46"
"663","12248.09"
"664","12225.82"
"665","12210.48"
"666","12204.62"
"667","12206.98"
"668","12215.62"
"669","12228.59"
"670","12244.29"
"671","12261.67"
"672","12279.72"
"673","12297.34"
"674","12311.48"
"675","12317.25"
"676","12309.74"
"677","12285.14"
"678","12249.65"
"679","12214.64"
"680","12191.49"
"681","12188.21"
"682","12198.19"
"683","12210.86"
"684","12215.68"
"685","12207.03"
"686","12190.22"
"687","12172.03"
"688","12159.06"
"689","12152.79"
"690","12148.55"
"691","12141.36"
"692","12126.86"
"693","12108.31"
"694","12093.82"
"695","12091.56"
"696","12106.97"
"697","12131.24"
"698","12150.91"
"699","12152.54"
"700","12128.71"
"701","12087.07"
"702","12037.61"
"703","11990.27"
"704","11952.48"
"705","11928.58"
"706","11922.66"
"707","11937.82"
"708","11965.19"
"709","11988.03"
"710","11989.49"
"711","11958.25"
"712","11911.2"
"713","11874.22"
"714","11873.11"
"715","11918.13"
"716","11982.93"
"717","12035.92"
"718","12046.48"
"719","12011.17"
"720","11957.79"
"721","11915.84"
"722","11911.43"
"723","11938.34"
"724","11972.1"
"725","11988.13"
"726","11969.26"
"727","11928.82"
"728","11887.91"
"729","11867.46"
"730","11876.18"
"731","11900.26"
"732","11923.56"
"733","11930.67"
"734","11919.91"
"735","11901.45"
"736","11885.86"
"737","11882.26"
"738","11890.63"
"739","11907.27"
"740","11928.46"
"741","11950.24"
"742","11967.85"
"743","11976.41"
"744","11971.22"
"745","11952.76"
"746","11927.74"
"747","11903.27"
"748","11886.19"
"749","11880.91"
"750","11890.52"
"751","11918.1"
"752","11963"
"753","12010.93"
"754","12044.52"
"755","12046.68"
"756","12014.73"
"757","11968.18"
"758","11928.37"
"759","11914.89"
"760","11925.86"
"761","11944.81"
"762","11955.06"
"763","11944.95"
"764","11925.21"
"765","11912.84"
"766","11924.68"
"767","11965.51"
"768","12018.71"
"769","12065.51"
"770","12088.19"
"771","12084.47"
"772","12063.81"
"773","12035.89"
"774","12009.34"
"775","11987.32"
"776","11971.36"
"777","11962.97"
"778","11963.08"
"779","11971.53"
"780","11988.03"
"781","12012.15"
"782","12040.99"
"783","12069.81"
"784","12093.82"
"785","12109.33"
"786","12118.11"
"787","12123.59"
"788","12129.13"
"789","12134.86"
"790","12135.14"
"791","12123.69"
"792","12095.08"
"793","12055.09"
"794","12017.55"
"795","11996.44"
"796","12001.15"
"797","12021.36"
"798","12041.45"
"799","12045.99"
"800","12031.6"
"801","12013.68"
"802","12009.26"
"803","12033.21"
"804","12076.9"
"805","12117.42"
"806","12131.66"
"807","12106.07"
"808","12060.08"
"809","12020.22"
"810","12012.43"
"811","12040.92"
"812","12082.68"
"813","12113.03"
"814","12110.97"
"815","12084.27"
"816","12054.23"
"817","12042.21"
"818","12059.04"
"819","12089.03"
"820","12112.31"
"821","12109.97"
"822","12081.55"
"823","12043.66"
"824","12013.49"
"825","12005.03"
"826","12015.44"
"827","12036.38"
"828","12059.54"
"829","12078.49"
"830","12089.95"
"831","12090.96"
"832","12079.14"
"833","12058.51"
"834","12037"
"835","12022.64"
"836","12020.81"
"837","12028.46"
"838","12040.86"
"839","12053.32"
"840","12062.58"
"841","12066.9"
"842","12064.64"
"843","12054.98"
"844","12042.16"
"845","12032.28"
"846","12031.42"
"847","12041.61"
"848","12057.33"
"849","12072.27"
"850","12080.69"
"851","12083.67"
"852","12086.62"
"853","12095"
"854","12110.96"
"855","12126.12"
"856","12130.03"
"857","12112.83"
"858","12079.24"
"859","12048.81"
"860","12041.76"
"861","12072.7"
"862","12126.44"
"863","12177.99"
"864","12202.56"
"865","12190.51"
"866","12156.08"
"867","12115.63"
"868","12084.45"
"869","12068.63"
"870","12069.48"
"871","12088.25"
"872","12123.1"
"873","12164.77"
"874","12202.9"
"875","12227.81"
"876","12240.09"
"877","12248.15"
"878","12260.59"
"879","12282.45"
"880","12305.87"
"881","12320.16"
"882","12315.08"
"883","12293.15"
"884","12270.62"
"885","12264.42"
"886","12287.04"
"887","12327.74"
"888","12368.21"
"889","12390.39"
"890","12387.86"
"891","12371.31"
"892","12352.82"
"893","12343.18"
"894","12343.68"
"895","12351.37"
"896","12363.31"
"897","12378.41"
"898","12399.27"
"899","12428.87"
"900","12469.44"
"901","12514.85"
"902","12554.13"
"903","12576.27"
"904","12576.91"
"905","12568.43"
"906","12565.82"
"907","12582.78"
"908","12615.18"
"909","12645.73"
"910","12656.86"
"911","12637.1"
"912","12594.34"
"913","12540.28"
"914","12486.65"
"915","12445.75"
"916","12430.35"
"917","12453.27"
"918","12518.43"
"919","12595.65"
"920","12646.58"
"921","12634.55"
"922","12564.6"
"923","12485.06"
"924","12446.3"
"925","12484.6"
"926","12572.97"
"927","12666.64"
"928","12721.79"
"929","12725.18"
"930","12699.36"
"931","12668.92"
"932","12654.34"
"933","12655.09"
"934","12664"
"935","12674.02"
"936","12682.99"
"937","12695"
"938","12714.56"
"939","12744.44"
"940","12777.79"
"941","12804.5"
"942","12814.61"
"943","12807.17"
"944","12793.39"
"945","12785.36"
"946","12792.32"
"947","12807.13"
"948","12816.73"
"949","12808.3"
"950","12779.52"
"951","12742.7"
"952","12711.24"
"953","12696.73"
"954","12700.17"
"955","12718.73"
"956","12749.51"
"957","12787.28"
"958","12823.58"
"959","12849.71"
"960","12859.59"
"961","12861.97"
"962","12870.89"
"963","12900.02"
"964","12948.75"
"965","12997.43"
"966","13025.11"
"967","13016.08"
"968","12982.64"
"969","12946.46"
"970","12928.78"
"971","12935.87"
"972","12955.49"
"973","12974.22"
"974","12981.22"
"975","12978.08"
"976","12970.2"
"977","12962.82"
"978","12958.1"
"979","12954.63"
"980","12950.85"
"981","12945.63"
"982","12939.8"
"983","12934.69"
"984","12931.7"
"985","12933.71"
"986","12945.04"
"987","12970.11"
"988","13009.99"
"989","13053.91"
"990","13088.41"
"991","13100.62"
"992","13087.99"
"993","13056.61"
"994","13012.84"
"995","12965.37"
"996","12929.73"
"997","12922.71"
"998","12959.06"
"999","13026.83"
"1000","13095.6"
"1001","13134.58"
"1002","13127.65"
"1003","13093.22"
"1004","13054.71"
"1005","13035.54"
"1006","13054.26"
"1007","13096.6"
"1008","13134.75"
"1009","13141.32"
"1010","13112.56"
"1011","13078.57"
"1012","13072.13"
"1013","13118.22"
"1014","13199.42"
"1015","13284.04"
"1016","13340.95"
"1017","13359.34"
"1018","13352.27"
"1019","13334.15"
"1020","13317.87"
"1021","13309.94"
"1022","13315.15"
"1023","13337.99"
"1024","13376.15"
"1025","13421.1"
"1026","13464.05"
"1027","13498.22"
"1028","13523.25"
"1029","13540.02"
"1030","13549.43"
"1031","13552.78"
"1032","13551.61"
"1033","13547.49"
"1034","13542.68"
"1035","13541.07"
"1036","13546.76"
"1037","13562.86"
"1038","13584.04"
"1039","13600.65"
"1040","13603.18"
"1041","13591.82"
"1042","13582.34"
"1043","13591.92"
"1044","13633.62"
"1045","13697.79"
"1046","13766.93"
"1047","13823.92"
"1048","13862.85"
"1049","13890.04"
"1050","13912.46"
"1051","13935.13"
"1052","13956.13"
"1053","13972.02"
"1054","13979.67"
"1055","13980.14"
"1056","13977.52"
"1057","13975.97"
"1058","13979.69"
"1059","13992.93"
"1060","14019.97"
"1061","14063.65"
"1062","14116.18"
"1063","14164.92"
"1064","14197.4"
"1065","14209.52"
"1066","14208.43"
"1067","14202.09"
"1068","14198.58"
"1069","14206.6"
"1070","14234.99"
"1071","14291.57"
"1072","14367.62"
"1073","14441.06"
"1074","14489.44"
"1075","14501"
"1076","14488.97"
"1077","14470.13"
"1078","14460.01"
"1079","14464.43"
"1080","14484.79"
"1081","14522.27"
"1082","14572.21"
"1083","14622.27"
"1084","14659.64"
"1085","14676.06"
"1086","14680.96"
"1087","14687.94"
"1088","14709.74"
"1089","14747.17"
"1090","14792.53"
"1091","14838.01"
"1092","14880.12"
"1093","14923.72"
"1094","14974.63"
"1095","15036.7"
"1096","15102.6"
"1097","15160.92"
"1098","15200.48"
"1099","15215.36"
"1100","15204.76"
"1101","15168.15"
"1102","15112.28"
"1103","15063.36"
"1104","15050.8"
"1105","15098.21"
"1106","15182.13"
"1107","15256.35"
"1108","15275.61"
"1109","15235.7"
"1110","15184.05"
"1111","15171.44"
"1112","15230.64"
"1113","15333.36"
"1114","15438.32"
"1115","15507.63"
"1116","15538.12"
"1117","15547.05"
"1118","15551.79"
"1119","15562.12"
"1120","15576.5"
"1121","15592.5"
"1122","15608.43"
"1123","15625.55"
"1124","15645.84"
"1125","15671.07"
"1126","15700.88"
"1127","15733.45"
"1128","15766.95"
"1129","15798.47"
"1130","15823.43"
"1131","15837.1"
"1132","15837.01"
"1133","15830.19"
"1134","15826.11"
"1135","15833.91"
"1136","15858.19"
"1137","15900.58"
"1138","15962.54"
"1139","16037.33"
"1140","16105.34"
"1141","16145.79"
"1142","16146.89"
"1143","16132.47"
"1144","16135.26"
"1145","16184.62"
"1146","16272.35"
"1147","16366.88"
"1148","16436.65"
"1149","16468.28"
"1150","16474.45"
"1151","16469.87"
"1152","16467.01"
"1153","16470.65"
"1154","16483.86"
"1155","16509.5"
"1156","16548.5"
"1157","16600.72"
"1158","16665.92"
"1159","16739.92"
"1160","16813.87"
"1161","16878.62"
"1162","16928.43"
"1163","16966.82"
"1164","16998.95"
"1165","17029.25"
"1166","17057.52"
"1167","17081.67"
"1168","17099.77"
"1169","17114.08"
"1170","17130.74"
"1171","17155.98"
"1172","17192.59"
"1173","17236.32"
"1174","17282.13"
"1175","17325.96"
"1176","17368.39"
"1177","17411.42"
"1178","17456.62"
"1179","17500.68"
"1180","17537.13"
"1181","17559.62"
"1182","17568.99"
"1183","17575.97"
"1184","17592.01"
"1185","17624.94"
"1186","17671.88"
"1187","17727.99"
"1188","17787.65"
"1189","17840.24"
"1190","17873"
"1191","17874.61"
"1192","17859.39"
"1193","17864.01"
"1194","17925.54"
"1195","18050.59"
"1196","18192.05"
"1197","18297.28"
"1198","18330.09"
"1199","18316.19"
"1200","18295.84"
"1201","18305.81"
"1202","18352.95"
"1203","18429.13"
"1204","18525.92"
"1205","18631.05"
"1206","18728.42"
"1207","18801.83"
"1208","18841.89"
"1209","18852.74"
"1210","18840.03"
"1211","18811.38"
"1212","18782.33"
"1213","18770.38"
"1214","18790.8"
"1215","18839.04"
"1216","18900.28"
"1217","18959.95"
"1218","19011.17"
"1219","19054.69"
"1220","19091.58"
"1221","19124.53"
"1222","19159.32"
"1223","19202.04"
"1224","19255.04"
"1225","19306.96"
"1226","19343.22"
"1227","19352.39"
"1228","19346.77"
"1229","19349.49"
"1230","19382.37"
"1231","19442.77"
"1232","19507.37"
"1233","19552.44"
"1234","19570.43"
"1235","19578.7"
"1236","19596.71"
"1237","19637.7"
"1238","19696.99"
"1239","19766.76"
"1240","19838.66"
"1241","19901.55"
"1242","19943.36"
"1243","19953.87"
"1244","19944.39"
"1245","19939.65"
"1246","19963.89"
"1247","20020.48"
"1248","20089.89"
"1249","20151.51"
"1250","20194.14"
"1251","20224.75"
"1252","20252.31"
"1253","20285.43"
"1254","20331.18"
"1255","20396.36"
"1256","20483.72"
"1257","20570.18"
"1258","20622.44"
"1259","20610.95"
"1260","20552.92"
"1261","20497.45"
"1262","20493.06"
"1263","20551.99"
"1264","20645.21"
"1265","20741.56"
"1266","20822.29"
"1267","20892.32"
"1268","20959.22"
"1269","21028.01"
"1270","21095.39"
"1271","21156.35"
"1272","21206.51"
"1273","21244.82"
"1274","21271.47"
"1275","21287.8"
"1276","21307.25"
"1277","21350.39"
"1278","21436.6"
"1279","21558.77"
"1280","21684.73"
"1281","21781.73"
"1282","21839.87"
"1283","21883.4"
"1284","21939.39"
"1285","22025.06"
"1286","22133.99"
"1287","22256.28"
"1288","22382.27"
"1289","22503.27"
"1290","22610.81"
"1291","22699.26"
"1292","22781.32"
"1293","22877.04"
"1294","23004.39"
"1295","23157.66"
"1296","23316.31"
"1297","23460.32"
"1298","23585.69"
"1299","23703.69"
"1300","23826.07"
"1301","23959.97"
"1302","24105.86"
"1303","24263.7"
"1304","24432.73"
"1305","24610.66"
"1306","24794.99"
"1307","24981.59"
"1308","25160.97"
"1309","25322.52"
"1310","25460.58"
"1311","25594.93"
"1312","25753.49"
"1313","25959.08"
"1314","26193.7"
"1315","26419.72"
"1316","26602.21"
"1317","26742.59"
"1318","26867.68"
"1319","27004.34"
"1320","27167.37"
"1321","27359.68"
"1322","27583.36"
"1323","27828.28"
"1324","28067.06"
"1325","28271.2"
"1326","28431.97"
"1327","28580.18"
"1328","28751.34"
"1329","28966.89"
"1330","29208.48"
"1331","29450.72"
"1332","29672.32"
"1333","29868.73"
"1334","30039.69"
"1335","30187.62"
"1336","30330.72"
"1337","30492.9"
"1338","30694.39"
"1339","30923.94"
"1340","31154.5"
"1341","31360.37"
"1342","31534.25"
"1343","31681.38"
"1344","31807.35"
"1345","31920.46"
"1346","32031.38"
"1347","32150.62"
"1348","32280.06"
"1349","32411.24"
"1350","32535.19"
"1351","32647.49"
"1352","32750.88"
"1353","32848.75"
"1354","32945.45"
"1355","33047.39"
"1356","33161.2"
"1357","33288.45"
"1358","33417.13"
"1359","33532.94"
"1360","33625.98"
"1361","33701.78"
"1362","33769.24"
"1363","33835.91"
"1364","33902.79"
"1365","33969.03"
"1366","34034.84"
"1367","34106.68"
"1368","34193.33"
"1369","34299.63"
"1370","34399.7"
"1371","34453.28"
"1372","34426.14"
"1373","34346.03"
"1374","34276.84"
"1375","34278.11"
"1376","34344.52"
"1377","34424.5"
"1378","34468.01"
"1379","34471.28"
"1380","34470.51"
"1381","34501.52"
"1382","34557.15"
"1383","34585.64"
"1384","34534.77"
"1385","34408.54"
"1386","34280.41"
"1387","34227.05"
"1388","34265.01"
"1389","34323.18"
"1390","34324.05"
"1391","34238.82"
"1392","34122.26"
"1393","34037.14"
"1394","34015.97"
"1395","34030.69"
"1396","34046.01"
"1397","34037.91"
"1398","34008.55"
"1399","33963.82"
"1400","33906.73"
"1401","33832.58"
"1402","33735.38"
"1403","33614.8"
"1404","33487.95"
"1405","33375.3"
"1406","33291.86"
"1407","33233.41"
"1408","33191.52"
"1409","33157.5"
"1410","33121.68"
"1411","33074.14"
"1412","33008.13"
"1413","32930.96"
"1414","32853.88"
"1415","32785.22"
"1416","32718.93"
"1417","32644.52"
"1418","32554.25"
"1419","32455.38"
"1420","32360.24"
"1421","32279.27"
"1422","32211.57"
"1423","32152.11"
"1424","32095.74"
"1425","32036.58"
"1426","31968.5"
"1427","31886.29"
"1428","31791.14"
"1429","31686.9"
"1430","31578.04"
"1431","31473.34"
"1432","31383.48"
"1433","31316.19"
"1434","31256.47"
"1435","31178.86"
"1436","31063.15"
"1437","30931.7"
"1438","30827.21"
"1439","30785.14"
"1440","30780.34"
"1441","30757.96"
"1442","30670.52"
"1443","30534.47"
"1444","30398.1"
"1445","30303.96"
"1446","30243.75"
"1447","30183.6"
"1448","30094.29"
"1449","29987.51"
"1450","29895.48"
"1451","29844.87"
"1452","29813.98"
"1453","29757.05"
"1454","29636.34"
"1455","29481.09"
"1456","29353.39"
"1457","29305.97"
"1458","29315.65"
"1459","29323.11"
"1460","29276.08"
"1461","29178.07"
"1462","29058.22"
"1463","28943.01"
"1464","28838.49"
"1465","28741.75"
"1466","28650.36"
"1467","28565.38"
"1468","28489.33"
"1469","28424.38"
"1470","28370.41"
"1471","28326.37"
"1472","28289.13"
"1473","28243.11"
"1474","28168.2"
"1475","28052.16"
"1476","27925.18"
"1477","27831.72"
"1478","27804.31"
"1479","27816.72"
"1480","27824.75"
"1481","27793.68"
"1482","27730.84"
"1483","27655.16"
"1484","27582.23"
"1485","27514.28"
"1486","27450.24"
"1487","27389.74"
"1488","27334.77"
"1489","27287.87"
"1490","27250.69"
"1491","27222.29"
"1492","27201.21"
"1493","27184.82"
"1494","27167.41"
"1495","27142.69"
"1496","27102.29"
"1497","27032.87"
"1498","26920.54"
"1499","26772.37"
"1500","26637.53"
"1501","26569.79"
"1502","26583.68"
"1503","26626.03"
"1504","26637.63"
"1505","26598.46"
"1506","26546.22"
"1507","26522.28"
"1508","26531.31"
"1509","26532.13"
"1510","26482.22"
"1511","26380.83"
"1512","26271.31"
"1513","26197.38"
"1514","26169.91"
"1515","26170.78"
"1516","26181.03"
"1517","26184.95"
"1518","26169.18"
"1519","26122.43"
"1520","26054.98"
"1521","25990.05"
"1522","25949.23"
"1523","25938.61"
"1524","25956.75"
"1525","25999.26"
"1526","26043.18"
"1527","26058.3"
"1528","26021.62"
"1529","25945.4"
"1530","25852.73"
"1531","25763.97"
"1532","25689.06"
"1533","25635.49"
"1534","25605.95"
"1535","25589.18"
"1536","25571.4"
"1537","25541.72"
"1538","25495.66"
"1539","25429.7"
"1540","25347.86"
"1541","25267.05"
"1542","25205.31"
"1543","25171.68"
"1544","25163.35"
"1545","25176.2"
"1546","25193.97"
"1547","25188.11"
"1548","25132.22"
"1549","25041.11"
"1550","24961.41"
"1551","24935.98"
"1552","24960.25"
"1553","25002.09"
"1554","25031.37"
"1555","25034.87"
"1556","25006.52"
"1557","24943.74"
"1558","24860.83"
"1559","24777.31"
"1560","24709.06"
"1561","24659.02"
"1562","24627.31"
"1563","24612.18"
"1564","24607.27"
"1565","24605.54"
"1566","24602.46"
"1567","24597.98"
"1568","24592.45"
"1569","24585.65"
"1570","24576.56"
"1571","24564.01"
"1572","24544.39"
"1573","24511.85"
"1574","24461.75"
"1575","24403.86"
"1576","24357.28"
"1577","24338.01"
"1578","24338.24"
"1579","24339.54"
"1580","24325.81"
"1581","24292.53"
"1582","24238.6"
"1583","24167.93"
"1584","24100.17"
"1585","24058"
"1586","24051.53"
"1587","24064.25"
"1588","24076.56"
"1589","24080"
"1590","24081.98"
"1591","24090.61"
"1592","24102"
"1593","24100.72"
"1594","24072.42"
"1595","24020.59"
"1596","23960.29"
"1597","23906.22"
"1598","23869.06"
"1599","23857.79"
"1600","23875.38"
"1601","23899.09"
"1602","23899.3"
"1603","23857.63"
"1604","23785.8"
"1605","23700.56"
"1606","23620.13"
"1607","23565.16"
"1608","23555.52"
"1609","23581.5"
"1610","23600.98"
"1611","23574.27"
"1612","23516.08"
"1613","23479.48"
"1614","23508.4"
"1615","23573.98"
"1616","23615.17"
"1617","23586.47"
"1618","23509.56"
"1619","23424.01"
"1620","23359.83"
"1621","23322.96"
"1622","23315.39"
"1623","23329.56"
"1624","23343.21"
"1625","23333.73"
"1626","23298.76"
"1627","23255.13"
"1628","23218.78"
"1629","23188.49"
"1630","23152.98"
"1631","23104.1"
"1632","23051.54"
"1633","23011.14"
"1634","22990.67"
"1635","22972.97"
"1636","22936.17"
"1637","22877.29"
"1638","22827.13"
"1639","22818.71"
"1640","22849.85"
"1641","22880.88"
"1642","22873.83"
"1643","22830.89"
"1644","22779.49"
"1645","22742.79"
"1646","22716.95"
"1647","22688.44"
"1648","22649.04"
"1649","22607.19"
"1650","22574.44"
"1651","22551.99"
"1652","22523.22"
"1653","22470.7"
"1654","22399.76"
"1655","22338.31"
"1656","22312.04"
"1657","22315.74"
"1658","22326.83"
"1659","22325.73"
"1660","22308.72"
"1661","22276.87"
"1662","22230.83"
"1663","22170.23"
"1664","22094.67"
"1665","22010.22"
"1666","21931.87"
"1667","21874.3"
"1668","21838.03"
"1669","21812.66"
"1670","21789.69"
"1671","21775.13"
"1672","21781"
"1673","21810.87"
"1674","21840.06"
"1675","21838.21"
"1676","21794.27"
"1677","21730.46"
"1678","21671.55"
"1679","21627.71"
"1680","21595.55"
"1681","21571.16"
"1682","21550.22"
"1683","21528.21"
"1684","21500.19"
"1685","21459.5"
"1686","21399.16"
"1687","21322.58"
"1688","21252.95"
"1689","21214.79"
"1690","21210.81"
"1691","21222.1"
"1692","21229.62"
"1693","21221.17"
"1694","21188.05"
"1695","21125.51"
"1696","21044.1"
"1697","20958.22"
"1698","20886.29"
"1699","20854.34"
"1700","20887.02"
"1701","20962.26"
"1702","21013.72"
"1703","20983"
"1704","20888.57"
"1705","20785.21"
"1706","20716.43"
"1707","20685.53"
"1708","20686.88"
"1709","20706.21"
"1710","20715.1"
"1711","20685.35"
"1712","20615.18"
"1713","20524.12"
"1714","20431.92"
"1715","20355.47"
"1716","20310.63"
"1717","20302.87"
"1718","20309.41"
"1719","20303.06"
"1720","20274.75"
"1721","20238.63"
"1722","20209.2"
"1723","20187.89"
"1724","20168.11"
"1725","20145.92"
"1726","20129.5"
"1727","20130.24"
"1728","20146.12"
"1729","20149.29"
"1730","20111.2"
"1731","20046.15"
"1732","20006.89"
"1733","20036.71"
"1734","20106.29"
"1735","20156.62"
"1736","20144.67"
"1737","20071.82"
"1738","19947.73"
"1739","19806.74"
"1740","19713.36"
"1741","19724.58"
"1742","19806.83"
"1743","19876.01"
"1744","19873.66"
"1745","19839.5"
"1746","19835.51"
"1747","19879.12"
"1748","19917.51"
"1749","19896.09"
"1750","19819.48"
"1751","19733.99"
"1752","19678.3"
"1753","19650.46"
"1754","19636.53"
"1755","19628.09"
"1756","19627.3"
"1757","19637.03"
"1758","19652.04"
"1759","19660.38"
"1760","19652.65"
"1761","19635.16"
"1762","19619.72"
"1763","19615.02"
"1764","19622.99"
"1765","19644.25"
"1766","19670.53"
"1767","19685.39"
"1768","19674.25"
"1769","19636.44"
"1770","19576.59"
"1771","19506.25"
"1772","19453.04"
"1773","19445.55"
"1774","19481.87"
"1775","19530.75"
"1776","19563.54"
"1777","19575.95"
"1778","19573.29"
"1779","19560.77"
"1780","19543.47"
"1781","19526.44"
"1782","19514.6"
"1783","19512.76"
"1784","19524.06"
"1785","19541.34"
"1786","19553.6"
"1787","19555.47"
"1788","19553.93"
"1789","19556.8"
"1790","19557.39"
"1791","19536.28"
"1792","19481.59"
"1793","19424.36"
"1794","19409.82"
"1795","19455.38"
"1796","19524.57"
"1797","19576.69"
"1798","19600.05"
"1799","19604.89"
"1800","19602.05"
"1801","19602.42"
"1802","19616.74"
"1803","19644.12"
"1804","19665.04"
"1805","19660.45"
"1806","19634.73"
"1807","19606.8"
"1808","19593.66"
"1809","19604.85"
"1810","19647.67"
"1811","19706.15"
"1812","19735.21"
"1813","19696.41"
"1814","19618.09"
"1815","19559.95"
"1816","19562.22"
"1817","19614.98"
"1818","19699.57"
"1819","19778.65"
"1820","19797.63"
"1821","19718.92"
"1822","19599.31"
"1823","19526.35"
"1824","19539.98"
"1825","19596.12"
"1826","19645.14"
"1827","19673.87"
"1828","19692.52"
"1829","19709.56"
"1830","19726.12"
"1831","19741.48"
"1832","19747.79"
"1833","19728.83"
"1834","19673.38"
"1835","19607.53"
"1836","19572.75"
"1837","19588.07"
"1838","19625"
"1839","19651.12"
"1840","19664.71"
"1841","19686.79"
"1842","19731.2"
"1843","19781.98"
"1844","19816.38"
"1845","19828.64"
"1846","19834.39"
"1847","19846.89"
"1848","19852.81"
"1849","19827.43"
"1850","19771.18"
"1851","19738.01"
"1852","19782.86"
"1853","19879.33"
"1854","19942.2"
"1855","19914.02"
"1856","19842.83"
"1857","19798.92"
"1858","19802.17"
"1859","19814.24"
"1860","19800.13"
"1861","19765.39"
"1862","19730.88"
"1863","19715.69"
"1864","19735.62"
"1865","19802.29"
"1866","19886.88"
"1867","19936.42"
"1868","19918.27"
"1869","19858.37"
"1870","19792.06"
"1871","19736.76"
"1872","19693.85"
"1873","19664.04"
"1874","19647.65"
"1875","19644.82"
"1876","19655.39"
"1877","19678.69"
"1878","19712.26"
"1879","19741.69"
"1880","19747.7"
"1881","19721.91"
"1882","19676.52"
"1883","19626.17"
"1884","19587.12"
"1885","19576.58"
"1886","19594.19"
"1887","19592.69"
"1888","19521.98"
"1889","19413.5"
"1890","19365.01"
"1891","19435.46"
"1892","19530.77"
"1893","19525.08"
"1894","19406.53"
"1895","19287.03"
"1896","19260.65"
"1897","19296.42"
"1898","19324.1"
"1899","19314.63"
"1900","19297.3"
"1901","19299.21"
"1902","19301.06"
"1903","19264.26"
"1904","19183.14"
"1905","19111.68"
"1906","19101.89"
"1907","19129.13"
"1908","19127.59"
"1909","19062.09"
"1910","18967.93"
"1911","18887.57"
"1912","18831.82"
"1913","18790.5"
"1914","18758.62"
"1915","18746.59"
"1916","18765.2"
"1917","18789.39"
"1918","18765.7"
"1919","18661.82"
"1920","18519.2"
"1921","18393.99"
"1922","18325.91"
"1923","18339.61"
"1924","18439.88"
"1925","18555.83"
"1926","18600.21"
"1927","18547.18"
"1928","18435.11"
"1929","18304.12"
"1930","18188.12"
"1931","18118.19"
"1932","18088.28"
"1933","18049.39"
"1934","17962.14"
"1935","17847.67"
"1936","17745.4"
"1937","17675.35"
"1938","17633.13"
"1939","17612.85"
"1940","17608.95"
"1941","17615.79"
"1942","17622.46"
"1943","17611.12"
"1944","17566.41"
"1945","17490.06"
"1946","17389.94"
"1947","17279.56"
"1948","17180.12"
"1949","17111.12"
"1950","17078.67"
"1951","17083.76"
"1952","17111.34"
"1953","17124.42"
"1954","17089.19"
"1955","16999.82"
"1956","16860.98"
"1957","16702.45"
"1958","16587.68"
"1959","16565.34"
"1960","16588.45"
"1961","16578.51"
"1962","16509.67"
"1963","16424.02"
"1964","16358.63"
"1965","16300.92"
"1966","16223.06"
"1967","16124.48"
"1968","16037.56"
"1969","15986.56"
"1970","15947.96"
"1971","15885.56"
"1972","15805.22"
"1973","15759.17"
"1974","15779.5"
"1975","15803.24"
"1976","15745.77"
"1977","15600.96"
"1978","15439.95"
"1979","15324.81"
"1980","15271.94"
"1981","15284.99"
"1982","15324.76"
"1983","15315.22"
"1984","15215.12"
"1985","15094.17"
"1986","15036.99"
"1987","15037.99"
"1988","15025.69"
"1989","14957.04"
"1990","14865.25"
"1991","14791.69"
"1992","14736.87"
"1993","14676.65"
"1994","14600.74"
"1995","14528.06"
"1996","14478.4"
"1997","14448.92"
"1998","14425.79"
"1999","14398.07"
"2000","14359.71"
"2001","14307.82"
"2002","14256.22"
"2003","14224.37"
"2004","14202.17"
"2005","14141.73"
"2006","14010.17"
"2007","13855.16"
"2008","13745.25"
"2009","13698.66"
"2010","13684.15"
"2011","13672.04"
"2012","13644.99"
"2013","13590.21"
"2014","13523.73"
"2015","13482.64"
"2016","13481.29"
"2017","13478.32"
"2018","13430.17"
"2019","13348.57"
"2020","13274.58"
"2021","13227.6"
"2022","13189.74"
"2023","13144.68"
"2024","13108.08"
"2025","13106.22"
"2026","13123.28"
"2027","13092.91"
"2028","12973.93"
"2029","12838.03"
"2030","12778.91"
"2031","12782.25"
"2032","12744.29"
"2033","12612.05"
"2034","12472.33"
"2035","12424.1"
"2036","12464.58"
"2037","12534.39"
"2038","12581.95"
"2039","12570.15"
"2040","12477.56"
"2041","12365.61"
"2042","12322.53"
"2043","12352.13"
"2044","12364.66"
"2045","12291.37"
"2046","12154.54"
"2047","11997.37"
"2048","11875.33"
"2049","11852.45"
"2050","11940.89"
"2051","12043.13"
"2052","12063.52"
"2053","12021.68"
"2054","11985.74"
"2055","11964.28"
"2056","11888.93"
"2057","11719.21"
"2058","11547.46"
"2059","11491.73"
"2060","11548.77"
"2061","11621"
"2062","11639.95"
"2063","11609.34"
"2064","11544.26"
"2065","11470.92"
"2066","11419.99"
"2067","11397.7"
"2068","11378.42"
"2069","11344.43"
"2070","11318.11"
"2071","11328.26"
"2072","11353.15"
"2073","11333.63"
"2074","11251.04"
"2075","11173.85"
"2076","11166.02"
"2077","11186.53"
"2078","11154.15"
"2079","11070.15"
"2080","11030.8"
"2081","11090.59"
"2082","11147.36"
"2083","11080.25"
"2084","10924.73"
"2085","10812.78"
"2086","10804.91"
"2087","10837.66"
"2088","10845.77"
"2089","10816.66"
"2090","10754.99"
"2091","10677.79"
"2092","10613.08"
"2093","10578.28"
"2094","10564.27"
"2095","10557.47"
"2096","10541.04"
"2097","10497.38"
"2098","10434.8"
"2099","10392.68"
"2100","10395.67"
"2101","10412.98"
"2102","10405.59"
"2103","10370.22"
"2104","10324.78"
"2105","10280.87"
"2106","10239.91"
"2107","10203.36"
"2108","10176.86"
"2109","10167.07"
"2110","10178.5"
"2111","10213.92"
"2112","10258.03"
"2113","10260.8"
"2114","10184.39"
"2115","10080.07"
"2116","10025.85"
"2117","10029.79"
"2118","10037.33"
"2119","10008.75"
"2120","9943.6"
"2121","9852.889"
"2122","9786.368"
"2123","9805.775"
"2124","9886.739"
"2125","9917.234"
"2126","9840.516"
"2127","9753.78"
"2128","9759.051"
"2129","9811.272"
"2130","9802.811"
"2131","9706.245"
"2132","9583.33"
"2133","9488.539"
"2134","9442.601"
"2135","9452.861"
"2136","9467.483"
"2137","9409.371"
"2138","9282.175"
"2139","9182.516"
"2140","9172.55"
"2141","9200.586"
"2142","9202.37"
"2143","9175.325"
"2144","9145.494"
"2145","9122.801"
"2146","9098.6"
"2147","9068.481"
"2148","9042.652"
"2149","9033.336"
"2150","9048.649"
"2151","9093.85"
"2152","9147.827"
"2153","9161.095"
"2154","9103.611"
"2155","8999.477"
"2156","8882.272"
"2157","8790.622"
"2158","8762.959"
"2159","8784.856"
"2160","8790.396"
"2161","8745.747"
"2162","8695.36"
"2163","8683.332"
"2164","8688.148"
"2165","8666.873"
"2166","8614.499"
"2167","8558.027"
"2168","8516.928"
"2169","8494.15"
"2170","8485.27"
"2171","8459.984"
"2172","8385.845"
"2173","8302.951"
"2174","8300.697"
"2175","8382.333"
"2176","8415.246"
"2177","8303.867"
"2178","8133.257"
"2179","8020.4"
"2180","7989.053"
"2181","8011.619"
"2182","8053.057"
"2183","8070.026"
"2184","8039.143"
"2185","7993.216"
"2186","7967.069"
"2187","7944.875"
"2188","7892.388"
"2189","7820.414"
"2190","7780.354"
"2191","7792.893"
"2192","7815.36"
"2193","7806.883"
"2194","7769.127"
"2195","7716.424"
"2196","7669.116"
"2197","7650.824"
"2198","7656.548"
"2199","7642.026"
"2200","7577.175"
"2201","7483.534"
"2202","7391.909"
"2203","7329.381"
"2204","7319.68"
"2205","7349.906"
"2206","7373.546"
"2207","7370.636"
"2208","7375.262"
"2209","7406.714"
"2210","7393.306"
"2211","7252.077"
"2212","7041.536"
"2213","6901.737"
"2214","6882.696"
"2215","6922.912"
"2216","6968.378"
"2217","7002.106"
"2218","7014.411"
"2219","7004.492"
"2220","6975.156"
"2221","6935.495"
"2222","6899.187"
"2223","6873.121"
"2224","6853.779"
"2225","6831.336"
"2226","6778.898"
"2227","6674.691"
"2228","6556.914"
"2229","6487.347"
"2230","6487.592"
"2231","6544.052"
"2232","6617.671"
"2233","6627.825"
"2234","6519.327"
"2235","6343.494"
"2236","6173.748"
"2237","6068.108"
"2238","6073.567"
"2239","6157.14"
"2240","6211.684"
"2241","6182.485"
"2242","6115.905"
"2243","6056.368"
"2244","6000.42"
"2245","5936.541"
"2246","5878.293"
"2247","5849.321"
"2248","5831.226"
"2249","5766.715"
"2250","5648.419"
"2251","5561.134"
"2252","5560.956"
"2253","5565.794"
"2254","5479.37"
"2255","5334.516"
"2256","5219.6"
"2257","5158.98"
"2258","5120.878"
"2259","5067.349"
"2260","4953.603"
"2261","4770.929"
"2262","4627.528"
"2263","4629.065"
"2264","4711.773"
"2265","4751.195"
"2266","4725.973"
"2267","4691.629"
"2268","4654.688"
"2269","4551.165"
"2270","4366.103"
"2271","4226.025"
"2272","4234.514"
"2273","4258.047"
"2274","4111.933"
"2275","3883.103"
"2276","3814.784"
"2277","3904.791"
"2278","3879.636"
"2279","3622.599"
"2280","3358.401"
"2281","3284.073"
"2282","3335.78"
"2283","3394.583"
"2284","3392.715"
"2285","3289.278"
"2286","3108.874"
"2287","2928.812"
"2288","2800.777"
"2289","2737.255"
"2290","2736.911"
"2291","2770.368"
"2292","2804.279"
"2293","2808.586"
"2294","2756.648"
"2295","2646.174"
"2296","2489.273"
"2297","2316.179"
"2298","2174.231"
"2299","2081.461"
"2300","2005.133"
