,"Scan 01075"
"400","21754.41"
"401","21705.59"
"402","21662.4"
"403","21630.37"
"404","21614.96"
"405","21620.51"
"406","21641.36"
"407","21666.91"
"408","21686.57"
"409","21690.45"
"410","21676.58"
"411","21648.53"
"412","21609.95"
"413","21564.59"
"414","21519.06"
"415","21482.61"
"416","21464.53"
"417","21473.62"
"418","21504.57"
"419","21534.64"
"420","21540.19"
"421","21498.03"
"422","21404.96"
"423","21289.75"
"424","21183.98"
"425","21118.82"
"426","21108.85"
"427","21134.06"
"428","21170.29"
"429","21193.51"
"430","21188.76"
"431","21165.11"
"432","21135.6"
"433","21113.15"
"434","21106.32"
"435","21108.63"
"436","21110.47"
"437","21102.25"
"438","21076.84"
"439","21037.58"
"440","20990.64"
"441","20942.15"
"442","20897.7"
"443","20860.21"
"444","20831.64"
"445","20813.98"
"446","20808.4"
"447","20810.73"
"448","20814.66"
"449","20813.9"
"450","20802.98"
"451","20783.07"
"452","20758.57"
"453","20733.86"
"454","20712.57"
"455","20691.01"
"456","20661.24"
"457","20615.36"
"458","20546.79"
"459","20464.54"
"460","20387.88"
"461","20336.14"
"462","20326.83"
"463","20352.52"
"464","20387.18"
"465","20404.5"
"466","20379.94"
"467","20316.45"
"468","20239.84"
"469","20176.45"
"470","20151.3"
"471","20165.56"
"472","20198.64"
"473","20229.25"
"474","20237.02"
"475","20219.39"
"476","20191.48"
"477","20169.05"
"478","20167.22"
"479","20186.04"
"480","20209.69"
"481","20221.63"
"482","20206"
"483","20162.17"
"484","20106.54"
"485","20056.36"
"486","20028.26"
"487","20023.88"
"488","20027.42"
"489","20022.2"
"490","19992.1"
"491","19935.34"
"492","19867.32"
"493","19804.33"
"494","19762.17"
"495","19743.67"
"496","19735.96"
"497","19725.3"
"498","19698.43"
"499","19654.67"
"500","19608.49"
"501","19575.21"
"502","19569.68"
"503","19594.95"
"504","19640.07"
"505","19693.33"
"506","19743.86"
"507","19803.52"
"508","19910.48"
"509","20104.15"
"510","20422.59"
"511","20872.38"
"512","21425.27"
"513","22051.35"
"514","22720.41"
"515","23390.59"
"516","24007.77"
"517","24517.55"
"518","24866.77"
"519","25023.24"
"520","24975.24"
"521","24711.98"
"522","24225.17"
"523","23553.92"
"524","22780"
"525","21986.25"
"526","21252.6"
"527","20616.77"
"528","20081.93"
"529","19650.2"
"530","19322.72"
"531","19086.73"
"532","18919.28"
"533","18797.29"
"534","18698.87"
"535","18614.49"
"536","18542.72"
"537","18482.26"
"538","18431.29"
"539","18382.77"
"540","18326.72"
"541","18253.19"
"542","18154.61"
"543","18042.49"
"544","17937.6"
"545","17860.63"
"546","17828.27"
"547","17830.88"
"548","17848.12"
"549","17859.71"
"550","17848.99"
"551","17818.55"
"552","17777.45"
"553","17734.68"
"554","17697.62"
"555","17666.42"
"556","17639.28"
"557","17614.42"
"558","17590.18"
"559","17565.31"
"560","17538.66"
"561","17509.09"
"562","17476.65"
"563","17444.65"
"564","17416.98"
"565","17397.45"
"566","17388"
"567","17386.52"
"568","17390.36"
"569","17396.86"
"570","17402.34"
"571","17401.26"
"572","17387.97"
"573","17356.99"
"574","17309.46"
"575","17255.07"
"576","17204.08"
"577","17166.29"
"578","17143.08"
"579","17127.31"
"580","17111.54"
"581","17088.92"
"582","17060.74"
"583","17034.55"
"584","17017.99"
"585","17017.87"
"586","17033.3"
"587","17058.98"
"588","17089.6"
"589","17119.54"
"590","17140.85"
"591","17144.66"
"592","17122.17"
"593","17068.97"
"594","17001.3"
"595","16941.34"
"596","16911.15"
"597","16923.4"
"598","16960.64"
"599","16999.48"
"600","17016.67"
"601","17000.29"
"602","16963.39"
"603","16922.31"
"604","16893.19"
"605","16882.62"
"606","16882.62"
"607","16883.99"
"608","16877.88"
"609","16863.84"
"610","16850.36"
"611","16846.33"
"612","16859.73"
"613","16886.12"
"614","16911.94"
"615","16923.51"
"616","16909.33"
"617","16875.83"
"618","16838.3"
"619","16811.98"
"620","16808.78"
"621","16823.42"
"622","16845.18"
"623","16863.39"
"624","16870.3"
"625","16867.44"
"626","16858.18"
"627","16845.89"
"628","16833.38"
"629","16822.4"
"630","16814.56"
"631","16811.42"
"632","16813.75"
"633","16821.19"
"634","16833.38"
"635","16849.79"
"636","16867.95"
"637","16883.78"
"638","16893.14"
"639","16892.26"
"640","16880.18"
"641","16857.42"
"642","16824.5"
"643","16782.46"
"644","16734.9"
"645","16686.2"
"646","16640.72"
"647","16601.73"
"648","16569.31"
"649","16543"
"650","16522.33"
"651","16505.91"
"652","16490.78"
"653","16473.85"
"654","16452.19"
"655","16426.4"
"656","16400.72"
"657","16379.51"
"658","16366.7"
"659","16361.68"
"660","16361.11"
"661","16361.6"
"662","16359.93"
"663","16353.56"
"664","16340.16"
"665","16317.46"
"666","16285.5"
"667","16251.19"
"668","16222.71"
"669","16208.14"
"670","16210.33"
"671","16223.55"
"672","16241.3"
"673","16257.25"
"674","16268.62"
"675","16275.86"
"676","16279.58"
"677","16280.35"
"678","16278.51"
"679","16274.25"
"680","16267.81"
"681","16259.88"
"682","16253.46"
"683","16252.12"
"684","16259.45"
"685","16276.93"
"686","16301.5"
"687","16329.43"
"688","16357.11"
"689","16383.24"
"690","16409.3"
"691","16436.92"
"692","16467.35"
"693","16497.36"
"694","16520.84"
"695","16531.64"
"696","16525.58"
"697","16508.64"
"698","16490.12"
"699","16479.27"
"700","16481"
"701","16489.15"
"702","16495.85"
"703","16493.38"
"704","16479.05"
"705","16456.55"
"706","16430.01"
"707","16403.26"
"708","16376.72"
"709","16348.55"
"710","16316.9"
"711","16280.43"
"712","16240.48"
"713","16199.25"
"714","16158.94"
"715","16120.97"
"716","16084.96"
"717","16050.27"
"718","16016.32"
"719","15984.23"
"720","15957.11"
"721","15938.19"
"722","15929.95"
"723","15927.96"
"724","15923.86"
"725","15909.28"
"726","15879.12"
"727","15841.69"
"728","15808.71"
"729","15791.83"
"730","15795.31"
"731","15809.86"
"732","15824.77"
"733","15829.8"
"734","15822.69"
"735","15808.14"
"736","15791.07"
"737","15776.09"
"738","15765.76"
"739","15761.85"
"740","15766.1"
"741","15777.62"
"742","15788.37"
"743","15789.1"
"744","15770.95"
"745","15736.05"
"746","15699.89"
"747","15678.73"
"748","15686.94"
"749","15721.32"
"750","15769.01"
"751","15817.07"
"752","15854.72"
"753","15878.92"
"754","15888.43"
"755","15882.07"
"756","15863.11"
"757","15841.59"
"758","15828.14"
"759","15832.48"
"760","15853.53"
"761","15882.88"
"762","15911.99"
"763","15933.42"
"764","15944.58"
"765","15944.24"
"766","15931.18"
"767","15906.05"
"768","15872.81"
"769","15835.77"
"770","15799.32"
"771","15769.66"
"772","15754.3"
"773","15760.8"
"774","15793.64"
"775","15842.3"
"776","15891.71"
"777","15926.85"
"778","15940.49"
"779","15939.84"
"780","15933.71"
"781","15930.43"
"782","15931.37"
"783","15932.48"
"784","15929.61"
"785","15920.47"
"786","15911.87"
"787","15913.35"
"788","15934.34"
"789","15973.36"
"790","16009.38"
"791","16019.37"
"792","15982.4"
"793","15905.98"
"794","15818.03"
"795","15746.91"
"796","15714.18"
"797","15712.37"
"798","15726.19"
"799","15740.48"
"800","15747.98"
"801","15753.71"
"802","15763.82"
"803","15783.46"
"804","15807.75"
"805","15825.66"
"806","15826.07"
"807","15803.08"
"808","15768.72"
"809","15738.93"
"810","15729.31"
"811","15744.88"
"812","15777.4"
"813","15817.81"
"814","15857.18"
"815","15887.68"
"816","15902.02"
"817","15892.92"
"818","15858.64"
"819","15811.5"
"820","15765.98"
"821","15736.06"
"822","15725.56"
"823","15728.93"
"824","15740.3"
"825","15754.4"
"826","15769.21"
"827","15783.73"
"828","15797.01"
"829","15807.15"
"830","15810.76"
"831","15804.29"
"832","15784.97"
"833","15758.91"
"834","15737.67"
"835","15732.89"
"836","15751.33"
"837","15784.04"
"838","15818.85"
"839","15843.88"
"840","15853.05"
"841","15846.68"
"842","15825.39"
"843","15790.53"
"844","15747.72"
"845","15704.16"
"846","15667.06"
"847","15643.37"
"848","15639.53"
"849","15661.94"
"850","15715.49"
"851","15787.7"
"852","15855.08"
"853","15893.93"
"854","15889.91"
"855","15858.16"
"856","15819.58"
"857","15794.57"
"858","15790.37"
"859","15800.89"
"860","15819.37"
"861","15840.01"
"862","15861.87"
"863","15885.61"
"864","15911.87"
"865","15940.49"
"866","15970.04"
"867","15998.98"
"868","16025.76"
"869","16049.08"
"870","16067.69"
"871","16080.4"
"872","16088.14"
"873","16097.02"
"874","16113.92"
"875","16144.95"
"876","16184.95"
"877","16220.17"
"878","16236.63"
"879","16226.18"
"880","16201.61"
"881","16180.37"
"882","16179.42"
"883","16202.01"
"884","16236.69"
"885","16271.25"
"886","16295.44"
"887","16309.14"
"888","16315.55"
"889","16317.88"
"890","16319.95"
"891","16326.47"
"892","16342.25"
"893","16370.16"
"894","16399.13"
"895","16411.77"
"896","16390.82"
"897","16333.08"
"898","16262.79"
"899","16207.34"
"900","16191.27"
"901","16209.67"
"902","16240.34"
"903","16260.9"
"904","16258.02"
"905","16241.07"
"906","16222.95"
"907","16215.7"
"908","16219.49"
"909","16225.75"
"910","16225.71"
"911","16212.83"
"912","16187.78"
"913","16152.63"
"914","16109.93"
"915","16071.87"
"916","16059.2"
"917","16092.94"
"918","16181.73"
"919","16286.62"
"920","16357.22"
"921","16345.21"
"922","16252.84"
"923","16134.83"
"924","16048.37"
"925","16037.58"
"926","16087.69"
"927","16167.45"
"928","16245.97"
"929","16305.58"
"930","16344.06"
"931","16360.06"
"932","16353.92"
"933","16334.3"
"934","16312.55"
"935","16299.84"
"936","16299.64"
"937","16305.69"
"938","16311.05"
"939","16309.73"
"940","16300.88"
"941","16285.4"
"942","16264.29"
"943","16241.2"
"944","16223.38"
"945","16218.38"
"946","16231.4"
"947","16254.17"
"948","16273.58"
"949","16276.72"
"950","16260.38"
"951","16234.85"
"952","16211.39"
"953","16199.54"
"954","16198.64"
"955","16204.32"
"956","16212.22"
"957","16219.32"
"958","16224.35"
"959","16226.19"
"960","16224.29"
"961","16221.39"
"962","16221.36"
"963","16228.03"
"964","16241.91"
"965","16259.14"
"966","16275.57"
"967","16287.12"
"968","16290.15"
"969","16281.18"
"970","16256.99"
"971","16223.53"
"972","16198.08"
"973","16198.64"
"974","16235.95"
"975","16285.49"
"976","16312.08"
"977","16281.8"
"978","16197.77"
"979","16104.58"
"980","16049.05"
"981","16065.07"
"982","16131.63"
"983","16213.08"
"984","16274.76"
"985","16303.15"
"986","16305.63"
"987","16290.44"
"988","16266.2"
"989","16242.84"
"990","16230.58"
"991","16238.95"
"992","16265.5"
"993","16297.73"
"994","16322.81"
"995","16333.13"
"996","16336.41"
"997","16343.23"
"998","16363.22"
"999","16393.92"
"1000","16424.5"
"1001","16443.96"
"1002","16446.55"
"1003","16438.89"
"1004","16429.36"
"1005","16426.37"
"1006","16437.15"
"1007","16461.07"
"1008","16494.27"
"1009","16532.82"
"1010","16570.63"
"1011","16598.52"
"1012","16607.04"
"1013","16590.47"
"1014","16563.4"
"1015","16547.28"
"1016","16562.84"
"1017","16608.6"
"1018","16656.89"
"1019","16678.55"
"1020","16654.34"
"1021","16607.06"
"1022","16570.6"
"1023","16577.29"
"1024","16627.04"
"1025","16689.81"
"1026","16734.4"
"1027","16739.78"
"1028","16716.95"
"1029","16683.22"
"1030","16655.16"
"1031","16639.56"
"1032","16636.31"
"1033","16645.17"
"1034","16663.39"
"1035","16682.52"
"1036","16693.31"
"1037","16688.3"
"1038","16675.24"
"1039","16669.58"
"1040","16686.62"
"1041","16727.48"
"1042","16770.57"
"1043","16792.25"
"1044","16775.07"
"1045","16735.89"
"1046","16703.46"
"1047","16705.61"
"1048","16744.62"
"1049","16794.77"
"1050","16828.92"
"1051","16828.34"
"1052","16804.19"
"1053","16774.22"
"1054","16755.19"
"1055","16750.41"
"1056","16753.38"
"1057","16757.41"
"1058","16759.99"
"1059","16767.74"
"1060","16788.51"
"1061","16827.74"
"1062","16872.97"
"1063","16903.6"
"1064","16899.32"
"1065","16856.52"
"1066","16793.97"
"1067","16732.04"
"1068","16687.64"
"1069","16663.14"
"1070","16657.09"
"1071","16667.7"
"1072","16688.73"
"1073","16710.26"
"1074","16722.27"
"1075","16718.27"
"1076","16699.99"
"1077","16670.36"
"1078","16632.96"
"1079","16596.56"
"1080","16572.31"
"1081","16571.09"
"1082","16591.76"
"1083","16617.66"
"1084","16631.07"
"1085","16619.89"
"1086","16593.5"
"1087","16566.48"
"1088","16552.44"
"1089","16552.52"
"1090","16559.01"
"1091","16564.02"
"1092","16561.94"
"1093","16551.47"
"1094","16531.83"
"1095","16503.2"
"1096","16471.32"
"1097","16443.97"
"1098","16428.6"
"1099","16425.85"
"1100","16429.61"
"1101","16433.46"
"1102","16433.91"
"1103","16435.15"
"1104","16442.64"
"1105","16460.45"
"1106","16481.36"
"1107","16492.66"
"1108","16482"
"1109","16450.39"
"1110","16415.64"
"1111","16396.67"
"1112","16405.18"
"1113","16428.5"
"1114","16448.76"
"1115","16450.01"
"1116","16436.28"
"1117","16423.29"
"1118","16426.69"
"1119","16449.38"
"1120","16475.33"
"1121","16487"
"1122","16472.9"
"1123","16445.39"
"1124","16422.71"
"1125","16421.5"
"1126","16439.33"
"1127","16461.25"
"1128","16472.26"
"1129","16465.68"
"1130","16448.16"
"1131","16427.52"
"1132","16410.81"
"1133","16401.81"
"1134","16403.44"
"1135","16418.21"
"1136","16444.03"
"1137","16475.63"
"1138","16507.78"
"1139","16536.83"
"1140","16561.75"
"1141","16581.73"
"1142","16595.53"
"1143","16600.29"
"1144","16592.73"
"1145","16570.33"
"1146","16539.13"
"1147","16510.46"
"1148","16495.58"
"1149","16498.03"
"1150","16510.19"
"1151","16523.62"
"1152","16531.49"
"1153","16532.68"
"1154","16527.26"
"1155","16515.67"
"1156","16501.53"
"1157","16490.15"
"1158","16486.66"
"1159","16490.67"
"1160","16495.08"
"1161","16492.42"
"1162","16480.75"
"1163","16473.3"
"1164","16485.91"
"1165","16530.3"
"1166","16590.21"
"1167","16637.76"
"1168","16646.37"
"1169","16616.13"
"1170","16571.84"
"1171","16539.13"
"1172","16532.55"
"1173","16544.28"
"1174","16563.82"
"1175","16582.06"
"1176","16596.34"
"1177","16605.91"
"1178","16610.04"
"1179","16608.44"
"1180","16601.14"
"1181","16588.27"
"1182","16575.49"
"1183","16576.03"
"1184","16603.66"
"1185","16661.79"
"1186","16723.07"
"1187","16754.5"
"1188","16729.9"
"1189","16669.97"
"1190","16614.93"
"1191","16603.2"
"1192","16638.75"
"1193","16695.66"
"1194","16747.08"
"1195","16777.85"
"1196","16793.36"
"1197","16801.11"
"1198","16805.53"
"1199","16799.59"
"1200","16773.54"
"1201","16720.41"
"1202","16656.74"
"1203","16610.87"
"1204","16610.11"
"1205","16656.09"
"1206","16724.81"
"1207","16791.19"
"1208","16838.2"
"1209","16864.56"
"1210","16870.83"
"1211","16857.91"
"1212","16828.21"
"1213","16784.51"
"1214","16730.58"
"1215","16679.05"
"1216","16647.09"
"1217","16651.13"
"1218","16689.95"
"1219","16744.77"
"1220","16796.18"
"1221","16830.76"
"1222","16846.44"
"1223","16842.38"
"1224","16819.18"
"1225","16782.69"
"1226","16739.95"
"1227","16698.34"
"1228","16667.29"
"1229","16657.2"
"1230","16677.6"
"1231","16722.3"
"1232","16771.85"
"1233","16806.53"
"1234","16817.31"
"1235","16811.61"
"1236","16798.25"
"1237","16784.42"
"1238","16772.69"
"1239","16764.84"
"1240","16762.5"
"1241","16766.82"
"1242","16778.71"
"1243","16798.67"
"1244","16821.93"
"1245","16840.5"
"1246","16846.55"
"1247","16839.29"
"1248","16825.63"
"1249","16812.86"
"1250","16807.66"
"1251","16815.48"
"1252","16841.66"
"1253","16887.28"
"1254","16938.75"
"1255","16979.32"
"1256","16994.99"
"1257","16989.68"
"1258","16974.3"
"1259","16959.21"
"1260","16946.96"
"1261","16934.79"
"1262","16919.96"
"1263","16902.34"
"1264","16884.81"
"1265","16870.41"
"1266","16861.23"
"1267","16857.57"
"1268","16859.52"
"1269","16866.79"
"1270","16877.8"
"1271","16890.72"
"1272","16903.61"
"1273","16913.82"
"1274","16918.44"
"1275","16915.14"
"1276","16907.25"
"1277","16901.42"
"1278","16904.12"
"1279","16916.65"
"1280","16935.43"
"1281","16956.67"
"1282","16976.61"
"1283","16991.47"
"1284","16997.5"
"1285","16992.49"
"1286","16977.93"
"1287","16955.88"
"1288","16930.09"
"1289","16911.02"
"1290","16910.76"
"1291","16936.9"
"1292","16967.49"
"1293","16968.77"
"1294","16911.58"
"1295","16818.9"
"1296","16746.3"
"1297","16747.36"
"1298","16821.36"
"1299","16916.02"
"1300","16977.56"
"1301","16982.79"
"1302","16952.26"
"1303","16909.8"
"1304","16874.37"
"1305","16854.19"
"1306","16856.15"
"1307","16880.98"
"1308","16909.11"
"1309","16916.76"
"1310","16887.39"
"1311","16841.52"
"1312","16811.52"
"1313","16825.19"
"1314","16873.34"
"1315","16929.09"
"1316","16966.95"
"1317","16981.67"
"1318","16982.13"
"1319","16977.18"
"1320","16968.87"
"1321","16952.52"
"1322","16923.33"
"1323","16885.69"
"1324","16856.89"
"1325","16855.14"
"1326","16885.62"
"1327","16927.64"
"1328","16957.43"
"1329","16960.46"
"1330","16948.33"
"1331","16937.3"
"1332","16939.91"
"1333","16953.58"
"1334","16971.9"
"1335","16989.13"
"1336","17003.5"
"1337","17014.7"
"1338","17022.4"
"1339","17026.17"
"1340","17025.56"
"1341","17020.26"
"1342","17012.01"
"1343","17003.92"
"1344","16999.04"
"1345","16998.58"
"1346","17002.06"
"1347","17008.83"
"1348","17015.13"
"1349","17013.42"
"1350","16996.1"
"1351","16964.64"
"1352","16934.71"
"1353","16923.19"
"1354","16937.17"
"1355","16963.8"
"1356","16987.82"
"1357","16997.95"
"1358","16993.75"
"1359","16976.55"
"1360","16949.33"
"1361","16920.8"
"1362","16900.95"
"1363","16897.53"
"1364","16908.08"
"1365","16927.18"
"1366","16949.38"
"1367","16968.99"
"1368","16980.24"
"1369","16978.05"
"1370","16962.77"
"1371","16937.28"
"1372","16904.73"
"1373","16870.68"
"1374","16842.12"
"1375","16825.46"
"1376","16819.3"
"1377","16816.59"
"1378","16810.59"
"1379","16801.47"
"1380","16795.46"
"1381","16798.56"
"1382","16807.63"
"1383","16809.96"
"1384","16792.84"
"1385","16758.08"
"1386","16725.46"
"1387","16715.6"
"1388","16732.83"
"1389","16757.74"
"1390","16769.2"
"1391","16759.25"
"1392","16742.52"
"1393","16735.78"
"1394","16747.54"
"1395","16769.7"
"1396","16792.16"
"1397","16807.41"
"1398","16813.91"
"1399","16810.95"
"1400","16795.8"
"1401","16760.24"
"1402","16695.16"
"1403","16603.09"
"1404","16522.41"
"1405","16498.45"
"1406","16555.65"
"1407","16645.05"
"1408","16701.52"
"1409","16680.83"
"1410","16621.86"
"1411","16584.17"
"1412","16610.98"
"1413","16672.84"
"1414","16720.08"
"1415","16714.59"
"1416","16675.32"
"1417","16638.86"
"1418","16634.09"
"1419","16647.94"
"1420","16653.16"
"1421","16627.88"
"1422","16582.19"
"1423","16537.91"
"1424","16514.09"
"1425","16511.68"
"1426","16524.58"
"1427","16545.85"
"1428","16563.48"
"1429","16563.23"
"1430","16534.45"
"1431","16492.27"
"1432","16463.28"
"1433","16469.95"
"1434","16502.94"
"1435","16538.19"
"1436","16554.05"
"1437","16548.46"
"1438","16528.77"
"1439","16501.71"
"1440","16468.57"
"1441","16427.93"
"1442","16380.17"
"1443","16340.52"
"1444","16331.64"
"1445","16371.39"
"1446","16436.48"
"1447","16482.93"
"1448","16472.54"
"1449","16417.7"
"1450","16356.13"
"1451","16322.16"
"1452","16319.7"
"1453","16337.52"
"1454","16364.34"
"1455","16389.41"
"1456","16402.22"
"1457","16393.66"
"1458","16365.65"
"1459","16325.34"
"1460","16280.15"
"1461","16239.22"
"1462","16212.48"
"1463","16207.51"
"1464","16214.86"
"1465","16217.58"
"1466","16201.71"
"1467","16174.18"
"1468","16150.59"
"1469","16144.23"
"1470","16153.28"
"1471","16170.06"
"1472","16187.22"
"1473","16199.74"
"1474","16203.4"
"1475","16195.54"
"1476","16181.93"
"1477","16171.14"
"1478","16168.3"
"1479","16161.66"
"1480","16134.25"
"1481","16076.08"
"1482","16007.93"
"1483","15959.06"
"1484","15950.16"
"1485","15967.94"
"1486","15990.69"
"1487","16002.24"
"1488","16005.7"
"1489","16008.42"
"1490","16015.03"
"1491","16021.7"
"1492","16023"
"1493","16015.52"
"1494","16001.28"
"1495","15983.15"
"1496","15962.81"
"1497","15939.05"
"1498","15910.29"
"1499","15881.35"
"1500","15869.93"
"1501","15894.98"
"1502","15950.78"
"1503","15989.08"
"1504","15958.28"
"1505","15855.87"
"1506","15751.67"
"1507","15719.68"
"1508","15773.79"
"1509","15852.68"
"1510","15892.01"
"1511","15872.72"
"1512","15823.58"
"1513","15774.97"
"1514","15744.18"
"1515","15736.89"
"1516","15757.18"
"1517","15791.93"
"1518","15815.4"
"1519","15804.69"
"1520","15770.22"
"1521","15742.5"
"1522","15747.74"
"1523","15774.62"
"1524","15793.51"
"1525","15779.3"
"1526","15736.39"
"1527","15680.69"
"1528","15627.3"
"1529","15587.18"
"1530","15569.99"
"1531","15582.11"
"1532","15617.44"
"1533","15666.91"
"1534","15719.46"
"1535","15758.33"
"1536","15765.75"
"1537","15734.91"
"1538","15683.44"
"1539","15632.25"
"1540","15598.35"
"1541","15592.06"
"1542","15622.57"
"1543","15679.8"
"1544","15728.19"
"1545","15731.96"
"1546","15691.63"
"1547","15644.58"
"1548","15627.19"
"1549","15635.55"
"1550","15634.59"
"1551","15592.66"
"1552","15521.54"
"1553","15458.2"
"1554","15434.43"
"1555","15442.96"
"1556","15459.82"
"1557","15465.75"
"1558","15465.53"
"1559","15471.36"
"1560","15489.56"
"1561","15505.82"
"1562","15501.31"
"1563","15468.58"
"1564","15428.33"
"1565","15405.35"
"1566","15407.9"
"1567","15415.01"
"1568","15403.18"
"1569","15364.5"
"1570","15310.86"
"1571","15255.68"
"1572","15217.11"
"1573","15217.61"
"1574","15275.79"
"1575","15363.76"
"1576","15423.74"
"1577","15407.55"
"1578","15341.58"
"1579","15285.4"
"1580","15284.03"
"1581","15311.4"
"1582","15320.09"
"1583","15283.92"
"1584","15244.05"
"1585","15254.74"
"1586","15333.55"
"1587","15420.79"
"1588","15448.05"
"1589","15401.52"
"1590","15345.01"
"1591","15345.17"
"1592","15401.1"
"1593","15446.81"
"1594","15419.84"
"1595","15330.5"
"1596","15236.25"
"1597","15188.01"
"1598","15185.72"
"1599","15207.66"
"1600","15234.76"
"1601","15259.64"
"1602","15278.06"
"1603","15286.09"
"1604","15280.63"
"1605","15258.73"
"1606","15219.41"
"1607","15164.98"
"1608","15098.75"
"1609","15042.51"
"1610","15038.29"
"1611","15123.42"
"1612","15259.24"
"1613","15353.5"
"1614","15328.29"
"1615","15218.87"
"1616","15110.6"
"1617","15070.9"
"1618","15089.58"
"1619","15135.76"
"1620","15181.73"
"1621","15207.83"
"1622","15195.97"
"1623","15148.52"
"1624","15099.41"
"1625","15083.79"
"1626","15105.55"
"1627","15138.84"
"1628","15158.81"
"1629","15163.21"
"1630","15162.95"
"1631","15165.69"
"1632","15160.2"
"1633","15128.74"
"1634","15065.96"
"1635","15005"
"1636","14986.16"
"1637","15020.44"
"1638","15066.25"
"1639","15077.96"
"1640","15048.42"
"1641","15011.44"
"1642","14999.33"
"1643","15004.89"
"1644","14996.03"
"1645","14949.12"
"1646","14891.74"
"1647","14869.78"
"1648","14906.41"
"1649","14953.79"
"1650","14950.85"
"1651","14883.62"
"1652","14819.57"
"1653","14830.88"
"1654","14910.61"
"1655","14973.57"
"1656","14942.41"
"1657","14849.85"
"1658","14790.49"
"1659","14833.31"
"1660","14919.16"
"1661","14949.92"
"1662","14876.11"
"1663","14771.71"
"1664","14728.69"
"1665","14774.2"
"1666","14845.91"
"1667","14878.35"
"1668","14858.18"
"1669","14811.95"
"1670","14765.75"
"1671","14735.36"
"1672","14732.33"
"1673","14760.32"
"1674","14796.67"
"1675","14813.41"
"1676","14800.2"
"1677","14776.92"
"1678","14765.61"
"1679","14769.95"
"1680","14776.71"
"1681","14773.61"
"1682","14761.56"
"1683","14747.86"
"1684","14736.86"
"1685","14721.18"
"1686","14690.69"
"1687","14647.35"
"1688","14616.17"
"1689","14623.48"
"1690","14666.16"
"1691","14711.96"
"1692","14730.41"
"1693","14717.41"
"1694","14682.34"
"1695","14635.21"
"1696","14588.1"
"1697","14553.59"
"1698","14539.71"
"1699","14545.99"
"1700","14570.73"
"1701","14606.2"
"1702","14639.01"
"1703","14657.38"
"1704","14664.27"
"1705","14669.61"
"1706","14679.78"
"1707","14688.66"
"1708","14687.47"
"1709","14672.03"
"1710","14645.73"
"1711","14612.63"
"1712","14576.12"
"1713","14539.05"
"1714","14504.59"
"1715","14478.14"
"1716","14465.94"
"1717","14468.84"
"1718","14472.9"
"1719","14462.2"
"1720","14441.92"
"1721","14444.26"
"1722","14498.41"
"1723","14581.05"
"1724","14636.59"
"1725","14624.85"
"1726","14575.82"
"1727","14538.63"
"1728","14538.95"
"1729","14557.29"
"1730","14569.55"
"1731","14562.62"
"1732","14533.22"
"1733","14481.58"
"1734","14428.91"
"1735","14405.06"
"1736","14425.33"
"1737","14465.02"
"1738","14493.09"
"1739","14496.7"
"1740","14485.42"
"1741","14469.9"
"1742","14458.18"
"1743","14456.82"
"1744","14468.22"
"1745","14479.09"
"1746","14472.72"
"1747","14446.46"
"1748","14419.92"
"1749","14412.97"
"1750","14423.41"
"1751","14433.44"
"1752","14428.42"
"1753","14410.28"
"1754","14385.88"
"1755","14361.43"
"1756","14341.95"
"1757","14332.06"
"1758","14331.5"
"1759","14336"
"1760","14341.79"
"1761","14348.72"
"1762","14357.92"
"1763","14369.15"
"1764","14379.16"
"1765","14384.56"
"1766","14386.58"
"1767","14390.77"
"1768","14401.22"
"1769","14412.29"
"1770","14414.57"
"1771","14400.37"
"1772","14366.06"
"1773","14309.66"
"1774","14252.73"
"1775","14239.46"
"1776","14301.7"
"1777","14386.59"
"1778","14408.15"
"1779","14332.7"
"1780","14249.23"
"1781","14259.69"
"1782","14367.9"
"1783","14484.86"
"1784","14530.31"
"1785","14500.15"
"1786","14418.86"
"1787","14317.7"
"1788","14242.58"
"1789","14238.64"
"1790","14299.83"
"1791","14375.37"
"1792","14420.57"
"1793","14432.06"
"1794","14420.31"
"1795","14394.23"
"1796","14359.73"
"1797","14322.74"
"1798","14294.72"
"1799","14291.27"
"1800","14319.63"
"1801","14349.05"
"1802","14338.6"
"1803","14282.69"
"1804","14232.17"
"1805","14237.91"
"1806","14293.81"
"1807","14358.63"
"1808","14397.12"
"1809","14396.84"
"1810","14351.17"
"1811","14284.93"
"1812","14262.34"
"1813","14335.08"
"1814","14436.83"
"1815","14445.83"
"1816","14308.58"
"1817","14145.6"
"1818","14098.36"
"1819","14178.67"
"1820","14278.22"
"1821","14304.97"
"1822","14278.62"
"1823","14255.46"
"1824","14261.66"
"1825","14270.21"
"1826","14252.04"
"1827","14217.49"
"1828","14202.29"
"1829","14227.73"
"1830","14263.98"
"1831","14271.2"
"1832","14238.84"
"1833","14190.83"
"1834","14150.08"
"1835","14119.16"
"1836","14092.3"
"1837","14070.12"
"1838","14066.86"
"1839","14096.92"
"1840","14151.95"
"1841","14206.71"
"1842","14239.86"
"1843","14246.67"
"1844","14226.67"
"1845","14188.62"
"1846","14152.87"
"1847","14137.15"
"1848","14135.01"
"1849","14129.62"
"1850","14118.2"
"1851","14127.91"
"1852","14185.87"
"1853","14265.5"
"1854","14301.45"
"1855","14254.67"
"1856","14184.6"
"1857","14170.78"
"1858","14222.37"
"1859","14267.38"
"1860","14244.92"
"1861","14190.19"
"1862","14174.33"
"1863","14224.42"
"1864","14287.66"
"1865","14307.56"
"1866","14277.69"
"1867","14221.52"
"1868","14162.72"
"1869","14124.29"
"1870","14127.56"
"1871","14163.55"
"1872","14196.09"
"1873","14197.94"
"1874","14185.84"
"1875","14188.06"
"1876","14209.69"
"1877","14225.52"
"1878","14212.94"
"1879","14181.04"
"1880","14151.93"
"1881","14137.77"
"1882","14131.88"
"1883","14125.88"
"1884","14115.63"
"1885","14099.48"
"1886","14080.08"
"1887","14071.43"
"1888","14088.05"
"1889","14121.93"
"1890","14146.7"
"1891","14141.99"
"1892","14112.06"
"1893","14067.2"
"1894","14024.32"
"1895","14007.55"
"1896","14031.38"
"1897","14058.83"
"1898","14037.38"
"1899","13965.53"
"1900","13914.04"
"1901","13945.77"
"1902","14029.81"
"1903","14095.95"
"1904","14108.26"
"1905","14093.24"
"1906","14080.83"
"1907","14071.96"
"1908","14051.94"
"1909","14013.5"
"1910","13966.43"
"1911","13923.52"
"1912","13904.51"
"1913","13933.74"
"1914","14010.13"
"1915","14061.75"
"1916","14010.89"
"1917","13884.55"
"1918","13792.57"
"1919","13808.46"
"1920","13875.64"
"1921","13913.46"
"1922","13905.29"
"1923","13893.46"
"1924","13908.9"
"1925","13928.66"
"1926","13917.74"
"1927","13872.35"
"1928","13821.3"
"1929","13790.75"
"1930","13787.76"
"1931","13813.44"
"1932","13849.24"
"1933","13853.84"
"1934","13799.87"
"1935","13735.86"
"1936","13732.13"
"1937","13789.31"
"1938","13820.74"
"1939","13758.51"
"1940","13666.29"
"1941","13649.91"
"1942","13735.51"
"1943","13843.66"
"1944","13900.66"
"1945","13907.23"
"1946","13889.96"
"1947","13868.54"
"1948","13853.17"
"1949","13848.38"
"1950","13829.71"
"1951","13763.24"
"1952","13657.32"
"1953","13578.23"
"1954","13580.42"
"1955","13625.67"
"1956","13644.08"
"1957","13616.92"
"1958","13594.48"
"1959","13618.35"
"1960","13654.81"
"1961","13645.6"
"1962","13586.72"
"1963","13544.11"
"1964","13569.27"
"1965","13614.37"
"1966","13601.71"
"1967","13528.86"
"1968","13484.25"
"1969","13532.4"
"1970","13598.45"
"1971","13570.04"
"1972","13443.25"
"1973","13333.6"
"1974","13328.61"
"1975","13370.8"
"1976","13367.94"
"1977","13306.13"
"1978","13248.53"
"1979","13242.08"
"1980","13262.31"
"1981","13270.04"
"1982","13254.04"
"1983","13227.09"
"1984","13204.46"
"1985","13206.56"
"1986","13251.38"
"1987","13309.03"
"1988","13314.7"
"1989","13237.7"
"1990","13136.14"
"1991","13076.47"
"1992","13063.89"
"1993","13066.56"
"1994","13060.77"
"1995","13040.65"
"1996","13004.02"
"1997","12960.75"
"1998","12926.57"
"1999","12910.01"
"2000","12907.79"
"2001","12913.54"
"2002","12909.04"
"2003","12872.26"
"2004","12811.99"
"2005","12776.38"
"2006","12799.45"
"2007","12838.55"
"2008","12831.39"
"2009","12770.51"
"2010","12702.28"
"2011","12662.54"
"2012","12644.18"
"2013","12631.54"
"2014","12614.51"
"2015","12587.14"
"2016","12550.29"
"2017","12521.04"
"2018","12516.01"
"2019","12525.78"
"2020","12527.13"
"2021","12508.74"
"2022","12479.8"
"2023","12451.72"
"2024","12437"
"2025","12447.87"
"2026","12472.04"
"2027","12467.92"
"2028","12411.64"
"2029","12357.55"
"2030","12374.76"
"2031","12450.14"
"2032","12502.39"
"2033","12477.42"
"2034","12397.83"
"2035","12298.62"
"2036","12214.67"
"2037","12180.4"
"2038","12195.94"
"2039","12203.1"
"2040","12150.13"
"2041","12056.17"
"2042","11965.41"
"2043","11911.48"
"2044","11916.18"
"2045","11983.8"
"2046","12059.41"
"2047","12079.2"
"2048","12035.05"
"2049","11958.3"
"2050","11881.07"
"2051","11835.14"
"2052","11844.56"
"2053","11877.7"
"2054","11879.74"
"2055","11838.03"
"2056","11794.29"
"2057","11779.1"
"2058","11763.58"
"2059","11707.28"
"2060","11621.83"
"2061","11559.39"
"2062","11552.43"
"2063","11586.27"
"2064","11635.15"
"2065","11639.72"
"2066","11528.08"
"2067","11340.05"
"2068","11261.04"
"2069","11412.21"
"2070","11620.97"
"2071","11658.35"
"2072","11533.74"
"2073","11433.91"
"2074","11460.5"
"2075","11526.59"
"2076","11536.43"
"2077","11495.78"
"2078","11450.96"
"2079","11420.36"
"2080","11390.16"
"2081","11353.04"
"2082","11329.16"
"2083","11341.46"
"2084","11379.75"
"2085","11413.17"
"2086","11412.9"
"2087","11354.15"
"2088","11226.04"
"2089","11086.41"
"2090","11011.29"
"2091","11007.54"
"2092","11020.62"
"2093","11012.44"
"2094","10990.08"
"2095","10966.99"
"2096","10954.11"
"2097","10960.58"
"2098","10971.14"
"2099","10941.23"
"2100","10851.6"
"2101","10773.23"
"2102","10785.4"
"2103","10856"
"2104","10887.41"
"2105","10844.61"
"2106","10791.52"
"2107","10784.22"
"2108","10806.32"
"2109","10822.37"
"2110","10808.73"
"2111","10750.73"
"2112","10657.86"
"2113","10585.77"
"2114","10579.94"
"2115","10600.61"
"2116","10582.87"
"2117","10536.78"
"2118","10539.27"
"2119","10617.17"
"2120","10676.94"
"2121","10627.87"
"2122","10508.4"
"2123","10405.9"
"2124","10343.06"
"2125","10276.62"
"2126","10185.91"
"2127","10116.66"
"2128","10117.17"
"2129","10175.89"
"2130","10254.55"
"2131","10312.21"
"2132","10305.21"
"2133","10221.13"
"2134","10135.33"
"2135","10125.33"
"2136","10164.67"
"2137","10179.53"
"2138","10143.43"
"2139","10084.6"
"2140","10025.18"
"2141","9960.911"
"2142","9887.887"
"2143","9841.662"
"2144","9873.942"
"2145","9960.245"
"2146","9989.24"
"2147","9906.074"
"2148","9826.914"
"2149","9871.412"
"2150","9961.076"
"2151","9932.89"
"2152","9770.698"
"2153","9617.123"
"2154","9569.399"
"2155","9586.464"
"2156","9609.946"
"2157","9614.263"
"2158","9588.299"
"2159","9542.425"
"2160","9507.919"
"2161","9505.586"
"2162","9530.201"
"2163","9568.137"
"2164","9578.287"
"2165","9514.067"
"2166","9406.939"
"2167","9353.799"
"2168","9388.034"
"2169","9416.695"
"2170","9361.753"
"2171","9284.785"
"2172","9279.808"
"2173","9324.567"
"2174","9316.874"
"2175","9232.768"
"2176","9172.847"
"2177","9207.266"
"2178","9253.824"
"2179","9208.407"
"2180","9092.883"
"2181","8996.685"
"2182","8952.552"
"2183","8923.61"
"2184","8884.188"
"2185","8850.854"
"2186","8839.158"
"2187","8810.065"
"2188","8706.551"
"2189","8557.271"
"2190","8468.055"
"2191","8484.228"
"2192","8526.565"
"2193","8521.48"
"2194","8488.536"
"2195","8470.572"
"2196","8471.368"
"2197","8469.807"
"2198","8456.995"
"2199","8441.398"
"2200","8435.525"
"2201","8460.202"
"2202","8525.332"
"2203","8551.882"
"2204","8429.917"
"2205","8207.34"
"2206","8077.07"
"2207","8112.455"
"2208","8144.167"
"2209","8033.518"
"2210","7896.92"
"2211","7899.751"
"2212","7994.271"
"2213","8009.981"
"2214","7910.798"
"2215","7826.938"
"2216","7839.104"
"2217","7874.525"
"2218","7853.093"
"2219","7793.01"
"2220","7744.991"
"2221","7723.353"
"2222","7715.198"
"2223","7705.886"
"2224","7679.17"
"2225","7626.818"
"2226","7566.37"
"2227","7519.363"
"2228","7499.257"
"2229","7514.046"
"2230","7534.942"
"2231","7501.863"
"2232","7402.729"
"2233","7309.814"
"2234","7273.786"
"2235","7237.615"
"2236","7134.464"
"2237","7011.1"
"2238","6963.364"
"2239","6989.417"
"2240","6996.347"
"2241","6938.63"
"2242","6863.715"
"2243","6816.505"
"2244","6794.943"
"2245","6783.076"
"2246","6741.615"
"2247","6624.4"
"2248","6477.099"
"2249","6430.352"
"2250","6516.425"
"2251","6585.24"
"2252","6516.214"
"2253","6364.262"
"2254","6216.46"
"2255","6103.657"
"2256","6030.577"
"2257","5991.687"
"2258","5972.605"
"2259","5959.108"
"2260","5937.758"
"2261","5895.928"
"2262","5823.512"
"2263","5712.485"
"2264","5565.351"
"2265","5391.125"
"2266","5231.958"
"2267","5153.555"
"2268","5152.729"
"2269","5129.967"
"2270","5031.6"
"2271","4942.499"
"2272","4942.55"
"2273","4969.924"
"2274","4927.172"
"2275","4824.714"
"2276","4736.502"
"2277","4680.56"
"2278","4612.521"
"2279","4509.259"
"2280","4396.53"
"2281","4295.741"
"2282","4189.591"
"2283","4055.508"
"2284","3900.232"
"2285","3744.651"
"2286","3624.001"
"2287","3583.884"
"2288","3606.68"
"2289","3583.633"
"2290","3456.735"
"2291","3318.437"
"2292","3256.478"
"2293","3216.417"
"2294","3111.793"
"2295","2966.99"
"2296","2864.97"
"2297","2817.465"
"2298","2766.603"
"2299","2681.394"
"2300","2581.208"
