,"Scan 01046"
"400","10738.91"
"401","10710"
"402","10677.71"
"403","10656.16"
"404","10659.39"
"405","10698.57"
"406","10760.88"
"407","10821.42"
"408","10855.38"
"409","10840.22"
"410","10780.53"
"411","10699.73"
"412","10621.49"
"413","10568.56"
"414","10549.2"
"415","10558.11"
"416","10589.51"
"417","10637.63"
"418","10694.92"
"419","10751.64"
"420","10798.01"
"421","10824.41"
"422","10828.17"
"423","10817.82"
"424","10802.85"
"425","10792.62"
"426","10791.78"
"427","10795.05"
"428","10795.98"
"429","10788.17"
"430","10769.16"
"431","10747.05"
"432","10731.66"
"433","10732.73"
"434","10755.33"
"435","10788.51"
"436","10817.9"
"437","10829.28"
"438","10812.81"
"439","10777.78"
"440","10738.57"
"441","10709.52"
"442","10702.31"
"443","10714.77"
"444","10740.01"
"445","10771.2"
"446","10801.54"
"447","10824.29"
"448","10832.7"
"449","10820.1"
"450","10781.5"
"451","10725.5"
"452","10667.41"
"453","10622.45"
"454","10604.04"
"455","10608.38"
"456","10621.79"
"457","10630.58"
"458","10622.19"
"459","10596.95"
"460","10563.71"
"461","10531.4"
"462","10508.34"
"463","10494.56"
"464","10483.89"
"465","10470.06"
"466","10447.23"
"467","10415.96"
"468","10382.23"
"469","10352.11"
"470","10331.55"
"471","10324.57"
"472","10333.41"
"473","10360.25"
"474","10406.84"
"475","10465.94"
"476","10521.39"
"477","10556.71"
"478","10556.18"
"479","10520.06"
"480","10465.61"
"481","10410.8"
"482","10373.04"
"483","10356.94"
"484","10352.84"
"485","10350.35"
"486","10339.41"
"487","10317.31"
"488","10289.86"
"489","10263.36"
"490","10243.89"
"491","10232.76"
"492","10225.6"
"493","10217.72"
"494","10204.5"
"495","10182.96"
"496","10152.09"
"497","10110.99"
"498","10058.91"
"499","9999.228"
"500","9940.33"
"501","9890.853"
"502","9859.053"
"503","9842.541"
"504","9826.293"
"505","9794.622"
"506","9732.424"
"507","9639.354"
"508","9532.086"
"509","9428.15"
"510","9344.605"
"511","9287.991"
"512","9253.221"
"513","9234.627"
"514","9226.635"
"515","9225.039"
"516","9227.087"
"517","9230.098"
"518","9231.473"
"519","9229.949"
"520","9225.576"
"521","9218.446"
"522","9208.679"
"523","9196.587"
"524","9182.682"
"525","9167.475"
"526","9151.301"
"527","9131.609"
"528","9103.489"
"529","9061.985"
"530","9002.993"
"531","8934.046"
"532","8871.227"
"533","8830.718"
"534","8826.911"
"535","8853.832"
"536","8892.291"
"537","8922.977"
"538","8928.587"
"539","8910.75"
"540","8881.805"
"541","8854.144"
"542","8838.614"
"543","8833.934"
"544","8832.925"
"545","8828.418"
"546","8814.495"
"547","8793.411"
"548","8770.756"
"549","8752.1"
"550","8741.871"
"551","8738.415"
"552","8738.024"
"553","8737.012"
"554","8732.801"
"555","8727.622"
"556","8725.016"
"557","8728.5"
"558","8739.303"
"559","8750.684"
"560","8754.199"
"561","8741.456"
"562","8709.888"
"563","8672.895"
"564","8646.535"
"565","8646.732"
"566","8678.621"
"567","8724.196"
"568","8762.521"
"569","8772.941"
"570","8747.97"
"571","8702.154"
"572","8652.104"
"573","8614.105"
"574","8595.612"
"575","8592.577"
"576","8600.206"
"577","8613.774"
"578","8629.724"
"579","8645.664"
"580","8659.258"
"581","8668.286"
"582","8671.996"
"583","8670.748"
"584","8664.934"
"585","8655.248"
"586","8645.38"
"587","8640.712"
"588","8646.622"
"589","8667.054"
"590","8696.441"
"591","8725.323"
"592","8744.26"
"593","8746.395"
"594","8736.775"
"595","8723.877"
"596","8716.149"
"597","8719.673"
"598","8733.003"
"599","8753.196"
"600","8777.313"
"601","8801.033"
"602","8816.962"
"603","8817.315"
"604","8794.47"
"605","8748.269"
"606","8690.023"
"607","8631.977"
"608","8586.104"
"609","8558.681"
"610","8549.904"
"611","8559.673"
"612","8587.529"
"613","8627.993"
"614","8671.904"
"615","8710.058"
"616","8734.139"
"617","8743.007"
"618","8739.054"
"619","8724.688"
"620","8702.309"
"621","8674.333"
"622","8643.171"
"623","8611.223"
"624","8580.869"
"625","8554.418"
"626","8534.168"
"627","8522.389"
"628","8519.544"
"629","8522.46"
"630","8527.531"
"631","8531.252"
"632","8533.277"
"633","8537.335"
"634","8547.417"
"635","8567.188"
"636","8595.137"
"637","8625.481"
"638","8652.335"
"639","8670.24"
"640","8677.351"
"641","8673.697"
"642","8659.319"
"643","8635.641"
"644","8610.915"
"645","8595.492"
"646","8599.688"
"647","8627.397"
"648","8664.155"
"649","8692.267"
"650","8694.26"
"651","8665.208"
"652","8621.35"
"653","8580.918"
"654","8561.512"
"655","8567.117"
"656","8587.92"
"657","8613.515"
"658","8634.211"
"659","8647.617"
"660","8655.738"
"661","8660.634"
"662","8663.98"
"663","8665.416"
"664","8663.874"
"665","8658.296"
"666","8649.135"
"667","8641.336"
"668","8640.659"
"669","8652.793"
"670","8679.252"
"671","8714.714"
"672","8753.235"
"673","8788.937"
"674","8817.063"
"675","8833.885"
"676","8835.73"
"677","8820.052"
"678","8794.208"
"679","8770.688"
"680","8761.99"
"681","8776.597"
"682","8805.553"
"683","8835.164"
"684","8851.799"
"685","8848.376"
"686","8832.433"
"687","8813.469"
"688","8800.816"
"689","8798.813"
"690","8805.856"
"691","8819.995"
"692","8839.237"
"693","8861.069"
"694","8882.644"
"695","8901.111"
"696","8914.193"
"697","8922.558"
"698","8927.84"
"699","8931.661"
"700","8935.086"
"701","8937.743"
"702","8939.041"
"703","8938.419"
"704","8936.347"
"705","8934.623"
"706","8935.131"
"707","8939.402"
"708","8944.838"
"709","8946.122"
"710","8937.903"
"711","8917.027"
"712","8891.606"
"713","8873.337"
"714","8873.864"
"715","8897.267"
"716","8929.764"
"717","8955.019"
"718","8957.27"
"719","8937.107"
"720","8913.916"
"721","8908.09"
"722","8937.131"
"723","8990.706"
"724","9042.806"
"725","9067.3"
"726","9047.134"
"727","9002.359"
"728","8962.516"
"729","8956.889"
"730","8996.088"
"731","9056.444"
"732","9110.66"
"733","9132.776"
"734","9120.293"
"735","9091.084"
"736","9063.684"
"737","9054.085"
"738","9062"
"739","9080.654"
"740","9103.26"
"741","9124.365"
"742","9142.118"
"743","9155.26"
"744","9162.587"
"745","9164.422"
"746","9162.929"
"747","9160.384"
"748","9159.179"
"749","9162.84"
"750","9175.521"
"751","9201.377"
"752","9241.674"
"753","9287.135"
"754","9326.086"
"755","9347.016"
"756","9346.929"
"757","9335.888"
"758","9325.05"
"759","9324.919"
"760","9338.018"
"761","9361.461"
"762","9392.265"
"763","9426.849"
"764","9458.917"
"765","9481.434"
"766","9487.427"
"767","9475.278"
"768","9452.892"
"769","9429.131"
"770","9412.565"
"771","9407.622"
"772","9415.579"
"773","9437.639"
"774","9473.729"
"775","9517.552"
"776","9560.916"
"777","9595.691"
"778","9619.354"
"779","9639.874"
"780","9666.371"
"781","9707.203"
"782","9759.517"
"783","9811.802"
"784","9852.333"
"785","9871.923"
"786","9873.592"
"787","9864.054"
"788","9849.992"
"789","9836.548"
"790","9826.096"
"791","9820.723"
"792","9822.35"
"793","9830.637"
"794","9843.632"
"795","9859.345"
"796","9875.523"
"797","9888.787"
"798","9895.448"
"799","9891.925"
"800","9880.52"
"801","9872.751"
"802","9880.931"
"803","9915.676"
"804","9969.37"
"805","10023.27"
"806","10058.5"
"807","10062.5"
"808","10044.63"
"809","10018.98"
"810","9999.407"
"811","9992.789"
"812","9997.224"
"813","10010.26"
"814","10029.49"
"815","10052.96"
"816","10078.9"
"817","10105.54"
"818","10130.8"
"819","10151.75"
"820","10165.3"
"821","10168.7"
"822","10165.03"
"823","10162.74"
"824","10170.51"
"825","10194.47"
"826","10227.54"
"827","10258.35"
"828","10275.58"
"829","10273.44"
"830","10255.62"
"831","10226.74"
"832","10191.97"
"833","10162.21"
"834","10152"
"835","10175.89"
"836","10239.52"
"837","10319.75"
"838","10387.69"
"839","10415.33"
"840","10398.98"
"841","10361.42"
"842","10326.77"
"843","10315.13"
"844","10322.39"
"845","10335.38"
"846","10341.03"
"847","10334.42"
"848","10325.83"
"849","10327.15"
"850","10349.08"
"851","10388.3"
"852","10432.55"
"853","10469.46"
"854","10491.09"
"855","10503.65"
"856","10516.12"
"857","10536.97"
"858","10562.96"
"859","10578.82"
"860","10568.78"
"861","10522.92"
"862","10462.55"
"863","10419.28"
"864","10424.32"
"865","10485.36"
"866","10572.88"
"867","10654.05"
"868","10699.55"
"869","10710.6"
"870","10704.2"
"871","10697.46"
"872","10702.43"
"873","10718.93"
"874","10744.99"
"875","10778.54"
"876","10815.43"
"877","10850.04"
"878","10876.66"
"879","10891.1"
"880","10894.53"
"881","10889.34"
"882","10878.06"
"883","10867.2"
"884","10867.55"
"885","10890.11"
"886","10941.5"
"887","11005.34"
"888","11057.79"
"889","11075.39"
"890","11054.06"
"891","11018.27"
"892","10994.73"
"893","11006.5"
"894","11049.47"
"895","11107.38"
"896","11163.96"
"897","11208.26"
"898","11239.74"
"899","11259.06"
"900","11267.21"
"901","11268.64"
"902","11269.86"
"903","11277.38"
"904","11293.88"
"905","11312.48"
"906","11324.76"
"907","11323.17"
"908","11311.54"
"909","11302.14"
"910","11307.4"
"911","11334.52"
"912","11374.1"
"913","11413.46"
"914","11440.47"
"915","11453.43"
"916","11459.89"
"917","11467.74"
"918","11481.34"
"919","11491.63"
"920","11486.34"
"921","11453.91"
"922","11400.96"
"923","11352.98"
"924","11336.32"
"925","11369.73"
"926","11437.71"
"927","11515.11"
"928","11577.2"
"929","11612.17"
"930","11623.32"
"931","11614.82"
"932","11591.69"
"933","11563.15"
"934","11539.79"
"935","11531.96"
"936","11541.1"
"937","11557.21"
"938","11569.55"
"939","11569.82"
"940","11563.25"
"941","11559.68"
"942","11568.79"
"943","11591.92"
"944","11619.14"
"945","11639.7"
"946","11645.07"
"947","11639.72"
"948","11632.8"
"949","11633.24"
"950","11641.54"
"951","11646.42"
"952","11635.72"
"953","11601.03"
"954","11555.86"
"955","11521.72"
"956","11519.76"
"957","11555.43"
"958","11612.54"
"959","11673.3"
"960","11721.75"
"961","11752.36"
"962","11763.29"
"963","11752.84"
"964","11723.74"
"965","11684.68"
"966","11644.75"
"967","11612.76"
"968","11595.96"
"969","11601.08"
"970","11634.45"
"971","11689.1"
"972","11741.55"
"973","11767.28"
"974","11748.49"
"975","11700"
"976","11646.54"
"977","11612.21"
"978","11604.31"
"979","11611.23"
"980","11620.35"
"981","11622.71"
"982","11624.9"
"983","11637.65"
"984","11671.01"
"985","11720.16"
"986","11765.58"
"987","11787.15"
"988","11773.29"
"989","11743.3"
"990","11723.43"
"991","11738.36"
"992","11785.54"
"993","11839.61"
"994","11874.49"
"995","11874.88"
"996","11857.28"
"997","11844.04"
"998","11855.75"
"999","11890.11"
"1000","11928.94"
"1001","11953.75"
"1002","11954.23"
"1003","11939.3"
"1004","11920.64"
"1005","11909.97"
"1006","11917.08"
"1007","11938.85"
"1008","11966.83"
"1009","11992.63"
"1010","12011.42"
"1011","12023.47"
"1012","12029.45"
"1013","12030.17"
"1014","12027.05"
"1015","12021.79"
"1016","12016.04"
"1017","12011.54"
"1018","12010.03"
"1019","12013.28"
"1020","12022.56"
"1021","12037.1"
"1022","12055.54"
"1023","12076.63"
"1024","12100.6"
"1025","12129.07"
"1026","12163.7"
"1027","12204.3"
"1028","12244.79"
"1029","12277.93"
"1030","12297.15"
"1031","12304.87"
"1032","12309.76"
"1033","12320.64"
"1034","12341.77"
"1035","12367.12"
"1036","12389.21"
"1037","12401.62"
"1038","12406.87"
"1039","12412.02"
"1040","12424.08"
"1041","12444.73"
"1042","12467.08"
"1043","12483.47"
"1044","12487.98"
"1045","12484.29"
"1046","12479.39"
"1047","12480.13"
"1048","12488.55"
"1049","12501.48"
"1050","12515.48"
"1051","12529.47"
"1052","12550.73"
"1053","12588.39"
"1054","12649.97"
"1055","12720.8"
"1056","12770.15"
"1057","12766.98"
"1058","12703.98"
"1059","12625.64"
"1060","12583.37"
"1061","12619.82"
"1062","12711.82"
"1063","12806.28"
"1064","12850.82"
"1065","12831.46"
"1066","12785.88"
"1067","12755.42"
"1068","12771.19"
"1069","12820.93"
"1070","12880.98"
"1071","12928.59"
"1072","12956.2"
"1073","12968.46"
"1074","12970.42"
"1075","12965.07"
"1076","12950.72"
"1077","12924.99"
"1078","12887"
"1079","12847.16"
"1080","12821.11"
"1081","12824.16"
"1082","12857.84"
"1083","12905.79"
"1084","12950.42"
"1085","12978.1"
"1086","12990.33"
"1087","12992.21"
"1088","12988.66"
"1089","12982.09"
"1090","12973.08"
"1091","12962.2"
"1092","12950.27"
"1093","12938.57"
"1094","12928.43"
"1095","12921.14"
"1096","12917.62"
"1097","12918.68"
"1098","12924.94"
"1099","12932.55"
"1100","12933.33"
"1101","12918.89"
"1102","12887.87"
"1103","12857.65"
"1104","12848.68"
"1105","12877.57"
"1106","12929.67"
"1107","12975.22"
"1108","12985.12"
"1109","12957.3"
"1110","12923.74"
"1111","12918.61"
"1112","12962.4"
"1113","13029.2"
"1114","13083.2"
"1115","13091.87"
"1116","13056.15"
"1117","12996.73"
"1118","12934.45"
"1119","12885.61"
"1120","12859.77"
"1121","12865.96"
"1122","12907.56"
"1123","12965.63"
"1124","13015.72"
"1125","13035.31"
"1126","13024.91"
"1127","13000.02"
"1128","12976.34"
"1129","12961.57"
"1130","12950.78"
"1131","12937.86"
"1132","12919.31"
"1133","12902.38"
"1134","12897.11"
"1135","12912.34"
"1136","12942.36"
"1137","12971.75"
"1138","12985.15"
"1139","12980.71"
"1140","12977.96"
"1141","12998.32"
"1142","13053.61"
"1143","13117.51"
"1144","13154.16"
"1145","13131.95"
"1146","13066.24"
"1147","13001.65"
"1148","12982.62"
"1149","13021.81"
"1150","13086.35"
"1151","13139.83"
"1152","13156.29"
"1153","13145.98"
"1154","13126.99"
"1155","13115.95"
"1156","13116.15"
"1157","13123.79"
"1158","13135.03"
"1159","13148.38"
"1160","13165.09"
"1161","13186.56"
"1162","13212.51"
"1163","13237.98"
"1164","13257.23"
"1165","13266.15"
"1166","13271.81"
"1167","13285.9"
"1168","13319.28"
"1169","13365.16"
"1170","13400.46"
"1171","13401.58"
"1172","13361.84"
"1173","13308.43"
"1174","13272.66"
"1175","13278.44"
"1176","13315.18"
"1177","13362.21"
"1178","13399.92"
"1179","13421.38"
"1180","13427.93"
"1181","13421.16"
"1182","13406.93"
"1183","13396.99"
"1184","13403.48"
"1185","13431.74"
"1186","13466.8"
"1187","13489.93"
"1188","13486.01"
"1189","13464.56"
"1190","13445.31"
"1191","13447.22"
"1192","13474.05"
"1193","13516.29"
"1194","13564.02"
"1195","13607.46"
"1196","13637.14"
"1197","13643.58"
"1198","13622.92"
"1199","13592.27"
"1200","13573.7"
"1201","13586.57"
"1202","13627.23"
"1203","13680.44"
"1204","13731.08"
"1205","13767.92"
"1206","13783.64"
"1207","13771.2"
"1208","13733.17"
"1209","13691.08"
"1210","13668.66"
"1211","13682.35"
"1212","13718.89"
"1213","13757.54"
"1214","13779.45"
"1215","13782.72"
"1216","13774.19"
"1217","13760.68"
"1218","13746.86"
"1219","13735.26"
"1220","13728.31"
"1221","13727.51"
"1222","13732.54"
"1223","13742.92"
"1224","13758.37"
"1225","13779.32"
"1226","13806.4"
"1227","13839.84"
"1228","13877.09"
"1229","13914.29"
"1230","13947.61"
"1231","13973.35"
"1232","13987.98"
"1233","13988.1"
"1234","13977.63"
"1235","13971.76"
"1236","13986.65"
"1237","14029.15"
"1238","14079.5"
"1239","14113.22"
"1240","14111.36"
"1241","14085.62"
"1242","14058.26"
"1243","14050.06"
"1244","14065.15"
"1245","14097.25"
"1246","14139.81"
"1247","14183.27"
"1248","14214.83"
"1249","14221.6"
"1250","14202.78"
"1251","14180.76"
"1252","14180.54"
"1253","14216.76"
"1254","14268.1"
"1255","14305.43"
"1256","14305.23"
"1257","14279.78"
"1258","14255.51"
"1259","14256.98"
"1260","14284.92"
"1261","14323.87"
"1262","14358.3"
"1263","14381.29"
"1264","14395.74"
"1265","14405.02"
"1266","14410.83"
"1267","14411.6"
"1268","14405.4"
"1269","14391.11"
"1270","14370.23"
"1271","14344.75"
"1272","14317.98"
"1273","14300.31"
"1274","14304.71"
"1275","14341.8"
"1276","14398.25"
"1277","14446.66"
"1278","14460.55"
"1279","14437.65"
"1280","14398.52"
"1281","14364.42"
"1282","14345.87"
"1283","14337.23"
"1284","14331.56"
"1285","14324.68"
"1286","14318.91"
"1287","14317.57"
"1288","14322.78"
"1289","14332.02"
"1290","14341.6"
"1291","14349.35"
"1292","14362.84"
"1293","14393.53"
"1294","14451.15"
"1295","14525.63"
"1296","14594.51"
"1297","14636.06"
"1298","14647.98"
"1299","14646.46"
"1300","14648.12"
"1301","14654.77"
"1302","14647.05"
"1303","14604.09"
"1304","14524.18"
"1305","14446.98"
"1306","14417.59"
"1307","14462.86"
"1308","14549.13"
"1309","14630.2"
"1310","14667.89"
"1311","14665.19"
"1312","14638.23"
"1313","14603.02"
"1314","14574.5"
"1315","14567.11"
"1316","14593.35"
"1317","14640.38"
"1318","14677.72"
"1319","14675.78"
"1320","14634.58"
"1321","14583.52"
"1322","14552.98"
"1323","14556.24"
"1324","14582.6"
"1325","14619.52"
"1326","14656.22"
"1327","14685.41"
"1328","14700.18"
"1329","14697.21"
"1330","14683.37"
"1331","14667.34"
"1332","14656.22"
"1333","14650.71"
"1334","14649.87"
"1335","14653.36"
"1336","14664.29"
"1337","14686.98"
"1338","14724.08"
"1339","14763.62"
"1340","14786.28"
"1341","14774.58"
"1342","14734.86"
"1343","14689.58"
"1344","14660.71"
"1345","14653.86"
"1346","14659.82"
"1347","14668.98"
"1348","14675.63"
"1349","14678.72"
"1350","14677.55"
"1351","14675.66"
"1352","14683.17"
"1353","14710.75"
"1354","14758.66"
"1355","14805.93"
"1356","14828.97"
"1357","14812.81"
"1358","14765.6"
"1359","14699.33"
"1360","14626.85"
"1361","14564.1"
"1362","14527.69"
"1363","14529.22"
"1364","14557.23"
"1365","14593.6"
"1366","14622.88"
"1367","14645.53"
"1368","14667.91"
"1369","14694.65"
"1370","14717.22"
"1371","14720.88"
"1372","14693.32"
"1373","14647.18"
"1374","14609.63"
"1375","14605.89"
"1376","14632.51"
"1377","14665.56"
"1378","14681.75"
"1379","14677.58"
"1380","14666.64"
"1381","14662.55"
"1382","14666.19"
"1383","14665.16"
"1384","14646.92"
"1385","14615.55"
"1386","14595.65"
"1387","14612.58"
"1388","14665.91"
"1389","14717.53"
"1390","14726.7"
"1391","14683.17"
"1392","14629.03"
"1393","14611.28"
"1394","14648.86"
"1395","14704.46"
"1396","14734.05"
"1397","14715.26"
"1398","14675.9"
"1399","14650.9"
"1400","14659.43"
"1401","14678.19"
"1402","14676.86"
"1403","14638.55"
"1404","14587.96"
"1405","14557.76"
"1406","14568.32"
"1407","14596.69"
"1408","14610.38"
"1409","14588.6"
"1410","14556.9"
"1411","14552.4"
"1412","14600.48"
"1413","14674.19"
"1414","14732.05"
"1415","14741.32"
"1416","14712.58"
"1417","14669.79"
"1418","14634.13"
"1419","14611.59"
"1420","14603.02"
"1421","14608.39"
"1422","14622.26"
"1423","14637.23"
"1424","14647.69"
"1425","14659.52"
"1426","14683.16"
"1427","14726.1"
"1428","14775.69"
"1429","14810.8"
"1430","14815.31"
"1431","14809.91"
"1432","14831.56"
"1433","14909.28"
"1434","15010.67"
"1435","15074.95"
"1436","15051.35"
"1437","14970.31"
"1438","14901.07"
"1439","14904.67"
"1440","14972.65"
"1441","15062.47"
"1442","15134.2"
"1443","15172.01"
"1444","15172.05"
"1445","15133.21"
"1446","15076.75"
"1447","15035.17"
"1448","15036.29"
"1449","15067.47"
"1450","15095.72"
"1451","15091.31"
"1452","15053.17"
"1453","14994.47"
"1454","14928.94"
"1455","14873.81"
"1456","14848.03"
"1457","14865.65"
"1458","14901.55"
"1459","14911.99"
"1460","14860.9"
"1461","14771.95"
"1462","14696.19"
"1463","14676.42"
"1464","14694.02"
"1465","14703.41"
"1466","14666.32"
"1467","14595.42"
"1468","14524.64"
"1469","14483.23"
"1470","14470.23"
"1471","14472.86"
"1472","14477.85"
"1473","14469.31"
"1474","14430.37"
"1475","14352.33"
"1476","14270.71"
"1477","14235.82"
"1478","14281.21"
"1479","14357.85"
"1480","14391.45"
"1481","14329.93"
"1482","14219.71"
"1483","14134.47"
"1484","14127.88"
"1485","14174.58"
"1486","14229.67"
"1487","14257.46"
"1488","14254.56"
"1489","14224.65"
"1490","14175.56"
"1491","14127.8"
"1492","14104.36"
"1493","14117.07"
"1494","14147.88"
"1495","14173.78"
"1496","14178.04"
"1497","14158.53"
"1498","14115.28"
"1499","14056.07"
"1500","14004.26"
"1501","13984.92"
"1502","14005.97"
"1503","14045.76"
"1504","14080"
"1505","14099.14"
"1506","14115.43"
"1507","14142.4"
"1508","14176.56"
"1509","14193.13"
"1510","14167.27"
"1511","14107.25"
"1512","14056.29"
"1513","14056.82"
"1514","14103.8"
"1515","14150.31"
"1516","14151.11"
"1517","14105.36"
"1518","14044.72"
"1519","13999.64"
"1520","13978.76"
"1521","13977.66"
"1522","13991.53"
"1523","14014.09"
"1524","14038.34"
"1525","14057.03"
"1526","14061.45"
"1527","14042.33"
"1528","13994.06"
"1529","13929.08"
"1530","13865.37"
"1531","13817.84"
"1532","13789.78"
"1533","13781.71"
"1534","13791.23"
"1535","13807.46"
"1536","13817.96"
"1537","13816.55"
"1538","13810.96"
"1539","13810.73"
"1540","13819.09"
"1541","13828.45"
"1542","13830.36"
"1543","13824.11"
"1544","13819.26"
"1545","13825.62"
"1546","13842.13"
"1547","13856.69"
"1548","13857.34"
"1549","13841.98"
"1550","13816.11"
"1551","13785.93"
"1552","13762.33"
"1553","13758.96"
"1554","13786.1"
"1555","13830.13"
"1556","13867.15"
"1557","13878.27"
"1558","13869.62"
"1559","13855.07"
"1560","13843.73"
"1561","13828.01"
"1562","13796.67"
"1563","13747.86"
"1564","13702.95"
"1565","13686.66"
"1566","13705.5"
"1567","13733.86"
"1568","13743.31"
"1569","13723.21"
"1570","13685.41"
"1571","13643.14"
"1572","13608.04"
"1573","13590.29"
"1574","13598.57"
"1575","13624.56"
"1576","13649.07"
"1577","13655.09"
"1578","13643.16"
"1579","13621.62"
"1580","13598.8"
"1581","13582.52"
"1582","13580.52"
"1583","13595.15"
"1584","13611.92"
"1585","13613.03"
"1586","13592.6"
"1587","13569.91"
"1588","13567.11"
"1589","13591.2"
"1590","13627.64"
"1591","13660.25"
"1592","13673.42"
"1593","13652.11"
"1594","13584.42"
"1595","13495.37"
"1596","13433.87"
"1597","13440.67"
"1598","13496.64"
"1599","13557.21"
"1600","13587.37"
"1601","13593.36"
"1602","13592.52"
"1603","13594.74"
"1604","13589.96"
"1605","13565.02"
"1606","13523.06"
"1607","13494.87"
"1608","13512.81"
"1609","13576.89"
"1610","13651.7"
"1611","13701.6"
"1612","13712.85"
"1613","13687.08"
"1614","13629.42"
"1615","13568.19"
"1616","13541.95"
"1617","13576.72"
"1618","13644.7"
"1619","13703.78"
"1620","13725.16"
"1621","13713.73"
"1622","13679.62"
"1623","13633.21"
"1624","13585.26"
"1625","13546.64"
"1626","13529.46"
"1627","13547.07"
"1628","13608.79"
"1629","13682.78"
"1630","13713.17"
"1631","13659.1"
"1632","13564.58"
"1633","13502.77"
"1634","13519.94"
"1635","13578.71"
"1636","13625.69"
"1637","13632.22"
"1638","13614.03"
"1639","13591.24"
"1640","13577.47"
"1641","13579.43"
"1642","13602.24"
"1643","13637.28"
"1644","13667.21"
"1645","13677.9"
"1646","13674.77"
"1647","13670.2"
"1648","13673.12"
"1649","13681.68"
"1650","13691.96"
"1651","13701.02"
"1652","13707.71"
"1653","13711.07"
"1654","13711.24"
"1655","13709.41"
"1656","13707.06"
"1657","13707.76"
"1658","13716.34"
"1659","13732.38"
"1660","13730.08"
"1661","13675.94"
"1662","13561.7"
"1663","13443.12"
"1664","13385.02"
"1665","13405.42"
"1666","13457.65"
"1667","13492.57"
"1668","13495.48"
"1669","13478.03"
"1670","13452.51"
"1671","13430.78"
"1672","13424.56"
"1673","13437.67"
"1674","13447.59"
"1675","13426.57"
"1676","13368.68"
"1677","13305.67"
"1678","13271.25"
"1679","13263.57"
"1680","13248"
"1681","13195.41"
"1682","13132.24"
"1683","13112.03"
"1684","13167.35"
"1685","13248.82"
"1686","13287.53"
"1687","13249.95"
"1688","13170.25"
"1689","13089.33"
"1690","13027.68"
"1691","12985.56"
"1692","12962.24"
"1693","12955.72"
"1694","12963.33"
"1695","12980.48"
"1696","12995.02"
"1697","12992.98"
"1698","12968.04"
"1699","12928.3"
"1700","12883.49"
"1701","12845.08"
"1702","12826.13"
"1703","12837.31"
"1704","12869.63"
"1705","12904.87"
"1706","12929.24"
"1707","12944.8"
"1708","12956.95"
"1709","12966.38"
"1710","12966.07"
"1711","12948.86"
"1712","12918.07"
"1713","12885.41"
"1714","12861.88"
"1715","12852.02"
"1716","12857.89"
"1717","12875.88"
"1718","12886.79"
"1719","12869.38"
"1720","12824.89"
"1721","12783.48"
"1722","12773.98"
"1723","12789.95"
"1724","12803.33"
"1725","12793.16"
"1726","12771.24"
"1727","12758.33"
"1728","12764.57"
"1729","12779.64"
"1730","12791.32"
"1731","12796.29"
"1732","12799.13"
"1733","12804.28"
"1734","12813.38"
"1735","12826.9"
"1736","12842.15"
"1737","12847.77"
"1738","12831.35"
"1739","12796.08"
"1740","12764.21"
"1741","12756.53"
"1742","12767.9"
"1743","12778.73"
"1744","12776.15"
"1745","12772.97"
"1746","12787.66"
"1747","12816.24"
"1748","12819.31"
"1749","12759.26"
"1750","12663.4"
"1751","12604.75"
"1752","12636.58"
"1753","12713.25"
"1754","12760.12"
"1755","12742.16"
"1756","12700.15"
"1757","12681.28"
"1758","12694.91"
"1759","12718.9"
"1760","12732.3"
"1761","12726.27"
"1762","12696.26"
"1763","12644.93"
"1764","12590.69"
"1765","12553.42"
"1766","12539.33"
"1767","12542.02"
"1768","12555.58"
"1769","12580.33"
"1770","12618.94"
"1771","12668.9"
"1772","12715.66"
"1773","12743.49"
"1774","12748.64"
"1775","12738.93"
"1776","12721.28"
"1777","12693.8"
"1778","12651.22"
"1779","12599.26"
"1780","12569.43"
"1781","12595.11"
"1782","12670.69"
"1783","12753.65"
"1784","12803.48"
"1785","12801.36"
"1786","12736.67"
"1787","12625.23"
"1788","12540.78"
"1789","12559.75"
"1790","12664.57"
"1791","12755.69"
"1792","12751.6"
"1793","12684.1"
"1794","12622.79"
"1795","12604.3"
"1796","12601.57"
"1797","12582.98"
"1798","12557.58"
"1799","12565.24"
"1800","12628.71"
"1801","12690.52"
"1802","12671.7"
"1803","12563.99"
"1804","12472.14"
"1805","12499.7"
"1806","12623.28"
"1807","12741.14"
"1808","12776.17"
"1809","12741.4"
"1810","12669.47"
"1811","12594.59"
"1812","12552.88"
"1813","12571.43"
"1814","12605.65"
"1815","12577.3"
"1816","12457.27"
"1817","12341.57"
"1818","12340.55"
"1819","12455.54"
"1820","12586.92"
"1821","12647.75"
"1822","12639.78"
"1823","12594.02"
"1824","12536.95"
"1825","12486.93"
"1826","12460.12"
"1827","12456.11"
"1828","12463.86"
"1829","12472.84"
"1830","12475.13"
"1831","12463.53"
"1832","12437.83"
"1833","12406"
"1834","12376.75"
"1835","12360.7"
"1836","12369.23"
"1837","12405.01"
"1838","12452.47"
"1839","12494.42"
"1840","12524.48"
"1841","12544.32"
"1842","12555.64"
"1843","12559.61"
"1844","12557.29"
"1845","12548.77"
"1846","12532.96"
"1847","12510.51"
"1848","12494.78"
"1849","12504.55"
"1850","12542.12"
"1851","12574.76"
"1852","12567.99"
"1853","12525.35"
"1854","12477.89"
"1855","12454.25"
"1856","12471.81"
"1857","12543.97"
"1858","12639.75"
"1859","12676.92"
"1860","12591.45"
"1861","12448.82"
"1862","12363"
"1863","12388.29"
"1864","12470.86"
"1865","12548.33"
"1866","12588.66"
"1867","12577.95"
"1868","12514.71"
"1869","12431.89"
"1870","12367.48"
"1871","12338.28"
"1872","12342.05"
"1873","12373.47"
"1874","12416.61"
"1875","12452.66"
"1876","12468"
"1877","12455.77"
"1878","12414.5"
"1879","12376.29"
"1880","12386.83"
"1881","12455.06"
"1882","12520.98"
"1883","12524.29"
"1884","12482.52"
"1885","12459.17"
"1886","12486.43"
"1887","12511.27"
"1888","12471.57"
"1889","12387.19"
"1890","12344.73"
"1891","12396.47"
"1892","12458.59"
"1893","12419.88"
"1894","12292.54"
"1895","12222.88"
"1896","12323.05"
"1897","12493.64"
"1898","12569.62"
"1899","12499.96"
"1900","12395.23"
"1901","12361.97"
"1902","12392.37"
"1903","12430.51"
"1904","12446.12"
"1905","12455.72"
"1906","12477.07"
"1907","12493.94"
"1908","12471.89"
"1909","12402.33"
"1910","12335.53"
"1911","12324.95"
"1912","12362.75"
"1913","12400.55"
"1914","12404.16"
"1915","12381.24"
"1916","12346.59"
"1917","12312.92"
"1918","12291.33"
"1919","12291.28"
"1920","12316.8"
"1921","12369.61"
"1922","12427.7"
"1923","12447.17"
"1924","12399.1"
"1925","12316.87"
"1926","12248.25"
"1927","12215.6"
"1928","12214.77"
"1929","12237.3"
"1930","12261.02"
"1931","12260.7"
"1932","12235.38"
"1933","12212.34"
"1934","12213.83"
"1935","12229.1"
"1936","12237.52"
"1937","12234.29"
"1938","12234.39"
"1939","12248.55"
"1940","12257.96"
"1941","12234.88"
"1942","12192.36"
"1943","12197.36"
"1944","12298.04"
"1945","12414.61"
"1946","12424.7"
"1947","12312.06"
"1948","12205.2"
"1949","12216"
"1950","12298.61"
"1951","12352.01"
"1952","12330.26"
"1953","12263.07"
"1954","12184.4"
"1955","12120.42"
"1956","12094.05"
"1957","12103.89"
"1958","12115.78"
"1959","12102.57"
"1960","12088.98"
"1961","12116.4"
"1962","12180.31"
"1963","12217.04"
"1964","12174.46"
"1965","12081.22"
"1966","11991.42"
"1967","11935.76"
"1968","11916.73"
"1969","11932.45"
"1970","11968.45"
"1971","12006.82"
"1972","12038.46"
"1973","12063.96"
"1974","12080.31"
"1975","12067.13"
"1976","12001.33"
"1977","11901.5"
"1978","11827.37"
"1979","11822.47"
"1980","11864.71"
"1981","11917.58"
"1982","11955.55"
"1983","11962.41"
"1984","11932.17"
"1985","11889.3"
"1986","11862.44"
"1987","11856.22"
"1988","11857.76"
"1989","11856.42"
"1990","11848.51"
"1991","11832.37"
"1992","11817.08"
"1993","11818.16"
"1994","11839.88"
"1995","11863.17"
"1996","11868.7"
"1997","11858.63"
"1998","11845.57"
"1999","11835.12"
"2000","11821.3"
"2001","11798.63"
"2002","11771.27"
"2003","11747.01"
"2004","11731.9"
"2005","11729.73"
"2006","11741.31"
"2007","11754.45"
"2008","11753.56"
"2009","11730.22"
"2010","11683.12"
"2011","11616.79"
"2012","11554.26"
"2013","11521.29"
"2014","11526.79"
"2015","11567.24"
"2016","11621.51"
"2017","11627.16"
"2018","11529.31"
"2019","11398.52"
"2020","11371.29"
"2021","11485.61"
"2022","11610.73"
"2023","11627.65"
"2024","11589.34"
"2025","11609.99"
"2026","11697.72"
"2027","11733.56"
"2028","11633.43"
"2029","11483.68"
"2030","11407.84"
"2031","11434.22"
"2032","11512.15"
"2033","11588.71"
"2034","11611.61"
"2035","11538.78"
"2036","11426.54"
"2037","11385.11"
"2038","11443.11"
"2039","11489.39"
"2040","11426.92"
"2041","11320.31"
"2042","11288.32"
"2043","11341.62"
"2044","11371.07"
"2045","11302.09"
"2046","11203.27"
"2047","11168.29"
"2048","11206.39"
"2049","11267.1"
"2050","11306.92"
"2051","11299.93"
"2052","11230.62"
"2053","11142.27"
"2054","11102.15"
"2055","11112.72"
"2056","11092.94"
"2057","10992.21"
"2058","10904.95"
"2059","10951.98"
"2060","11096.66"
"2061","11180.06"
"2062","11122.56"
"2063","11032.12"
"2064","11023.39"
"2065","11065.77"
"2066","11064.31"
"2067","10988.18"
"2068","10890.49"
"2069","10820.9"
"2070","10792.32"
"2071","10807.17"
"2072","10846.1"
"2073","10873.64"
"2074","10871.81"
"2075","10860.36"
"2076","10858.81"
"2077","10853.08"
"2078","10816.41"
"2079","10756.13"
"2080","10718.71"
"2081","10740.66"
"2082","10817.69"
"2083","10932.25"
"2084","11014.04"
"2085","10961.04"
"2086","10769.66"
"2087","10604.14"
"2088","10604.01"
"2089","10698.79"
"2090","10756.46"
"2091","10738.89"
"2092","10691.28"
"2093","10647.27"
"2094","10605.5"
"2095","10563.7"
"2096","10551.46"
"2097","10610.6"
"2098","10714.09"
"2099","10752.09"
"2100","10660.74"
"2101","10546.08"
"2102","10535.73"
"2103","10609.78"
"2104","10661.2"
"2105","10639.17"
"2106","10582.34"
"2107","10530.28"
"2108","10492.21"
"2109","10468.51"
"2110","10451.43"
"2111","10427.09"
"2112","10381.37"
"2113","10300.03"
"2114","10184.22"
"2115","10118.84"
"2116","10209.15"
"2117","10401.67"
"2118","10501.12"
"2119","10410.58"
"2120","10270.48"
"2121","10228.85"
"2122","10265.69"
"2123","10296.22"
"2124","10290.13"
"2125","10272.75"
"2126","10260.58"
"2127","10240.59"
"2128","10198.92"
"2129","10150.49"
"2130","10122.23"
"2131","10117.94"
"2132","10115.8"
"2133","10099.17"
"2134","10069.98"
"2135","10031.96"
"2136","9978.192"
"2137","9897.794"
"2138","9812.64"
"2139","9782.196"
"2140","9829.381"
"2141","9866.438"
"2142","9805.111"
"2143","9710.212"
"2144","9714.841"
"2145","9825.896"
"2146","9906.045"
"2147","9868.187"
"2148","9787.781"
"2149","9756.252"
"2150","9772.104"
"2151","9792.233"
"2152","9787.359"
"2153","9743.391"
"2154","9661.361"
"2155","9579.436"
"2156","9536.054"
"2157","9530.485"
"2158","9545.551"
"2159","9558.727"
"2160","9542.425"
"2161","9491.801"
"2162","9454.397"
"2163","9469.383"
"2164","9484.72"
"2165","9421.112"
"2166","9296.813"
"2167","9212.068"
"2168","9214.376"
"2169","9244.486"
"2170","9245.67"
"2171","9231.261"
"2172","9233.64"
"2173","9263.522"
"2174","9316.257"
"2175","9372.249"
"2176","9389.163"
"2177","9338.185"
"2178","9247.854"
"2179","9158.939"
"2180","9102.015"
"2181","9100.933"
"2182","9139.325"
"2183","9152.193"
"2184","9106.256"
"2185","9063.241"
"2186","9082.962"
"2187","9104.175"
"2188","9022.325"
"2189","8855.743"
"2190","8733.663"
"2191","8723.204"
"2192","8761.264"
"2193","8783.334"
"2194","8788.676"
"2195","8794.15"
"2196","8809.863"
"2197","8841.22"
"2198","8877.596"
"2199","8886.553"
"2200","8846.751"
"2201","8775.304"
"2202","8696.298"
"2203","8631.476"
"2204","8599.935"
"2205","8586.401"
"2206","8544.183"
"2207","8463.764"
"2208","8410.039"
"2209","8436.303"
"2210","8507.859"
"2211","8567.276"
"2212","8569.93"
"2213","8480.741"
"2214","8333.427"
"2215","8245.557"
"2216","8280.935"
"2217","8351.941"
"2218","8365.084"
"2219","8332.212"
"2220","8299.696"
"2221","8271.07"
"2222","8218.445"
"2223","8146.259"
"2224","8108.67"
"2225","8138.227"
"2226","8186.083"
"2227","8196.214"
"2228","8175.811"
"2229","8157.317"
"2230","8140.522"
"2231","8097.077"
"2232","8017.085"
"2233","7924.038"
"2234","7845.566"
"2235","7811.931"
"2236","7844.032"
"2237","7883.788"
"2238","7840.552"
"2239","7724.752"
"2240","7641.026"
"2241","7651.185"
"2242","7732.109"
"2243","7830.698"
"2244","7816.296"
"2245","7573.717"
"2246","7261.917"
"2247","7159.106"
"2248","7264.375"
"2249","7316.167"
"2250","7182.97"
"2251","6984.905"
"2252","6847.707"
"2253","6821.875"
"2254","6927.551"
"2255","7081.821"
"2256","7159.516"
"2257","7127.708"
"2258","7033.897"
"2259","6910.968"
"2260","6763.417"
"2261","6604.574"
"2262","6483.892"
"2263","6445.736"
"2264","6453.88"
"2265","6442.779"
"2266","6389.83"
"2267","6305.625"
"2268","6232.715"
"2269","6256.627"
"2270","6388.213"
"2271","6435.229"
"2272","6233.962"
"2273","5938.953"
"2274","5781.98"
"2275","5722.428"
"2276","5561.582"
"2277","5306.134"
"2278","5190.069"
"2279","5292.391"
"2280","5358.95"
"2281","5196.323"
"2282","4993.145"
"2283","4985.78"
"2284","5088.241"
"2285","5079.805"
"2286","4917.326"
"2287","4701.901"
"2288","4500.574"
"2289","4325.307"
"2290","4190.073"
"2291","4124.822"
"2292","4141.354"
"2293","4150.005"
"2294","4043.804"
"2295","3850.02"
"2296","3667.843"
"2297","3531.491"
"2298","3411.332"
"2299","3289.347"
"2300","3171.605"
