,"Scan 01048"
"400","13883.19"
"401","13890.09"
"402","13873.31"
"403","13855.55"
"404","13859.39"
"405","13903.91"
"406","13979.51"
"407","14062.15"
"408","14127.82"
"409","14154.13"
"410","14137.51"
"411","14087.45"
"412","14013.65"
"413","13925.8"
"414","13834.87"
"415","13753.05"
"416","13692.48"
"417","13664.88"
"418","13670.08"
"419","13693.32"
"420","13719"
"421","13731.77"
"422","13723.18"
"423","13695.81"
"424","13653.24"
"425","13599.04"
"426","13539.33"
"427","13485.58"
"428","13449.87"
"429","13444.17"
"430","13472.89"
"431","13520.08"
"432","13566.56"
"433","13593.24"
"434","13587.47"
"435","13558.49"
"436","13520.21"
"437","13486.42"
"438","13467.59"
"439","13459.93"
"440","13455.78"
"441","13447.54"
"442","13428.96"
"443","13401.04"
"444","13367.21"
"445","13330.91"
"446","13295.52"
"447","13264.47"
"448","13241.19"
"449","13229.06"
"450","13230.79"
"451","13243.37"
"452","13261.04"
"453","13278.02"
"454","13288.76"
"455","13288.99"
"456","13275.29"
"457","13244.24"
"458","13193.24"
"459","13129.53"
"460","13066.78"
"461","13018.69"
"462","12997.74"
"463","12999.8"
"464","13008.37"
"465","13006.75"
"466","12979.43"
"467","12929.58"
"468","12875.89"
"469","12837.43"
"470","12832.13"
"471","12857.64"
"472","12893.13"
"473","12917.18"
"474","12909.45"
"475","12871.29"
"476","12825.53"
"477","12795.78"
"478","12804.63"
"479","12851.44"
"480","12910.99"
"481","12957.03"
"482","12964.15"
"483","12927.23"
"484","12863.76"
"485","12792.33"
"486","12731.11"
"487","12689.08"
"488","12664.53"
"489","12655.15"
"490","12658.55"
"491","12668.49"
"492","12674.17"
"493","12664.58"
"494","12629.1"
"495","12567.4"
"496","12491.64"
"497","12414.63"
"498","12348.89"
"499","12299.27"
"500","12261.4"
"501","12230.37"
"502","12201.37"
"503","12171.72"
"504","12141.25"
"505","12109.93"
"506","12077.7"
"507","12043"
"508","12002.62"
"509","11953.21"
"510","11891.75"
"511","11822.18"
"512","11756.19"
"513","11705.82"
"514","11682.52"
"515","11684.79"
"516","11697.52"
"517","11705.1"
"518","11692.56"
"519","11658.77"
"520","11616.07"
"521","11577.29"
"522","11554.61"
"523","11548.83"
"524","11550.47"
"525","11549.75"
"526","11537.43"
"527","11512.69"
"528","11481.57"
"529","11450.31"
"530","11424.77"
"531","11406.11"
"532","11392.03"
"533","11380.17"
"534","11368.29"
"535","11355.6"
"536","11342.23"
"537","11328.31"
"538","11313.78"
"539","11296.45"
"540","11272.91"
"541","11239.78"
"542","11194.92"
"543","11146.17"
"544","11106.18"
"545","11087.6"
"546","11100.16"
"547","11134.71"
"548","11174.36"
"549","11202.33"
"550","11204.59"
"551","11181.93"
"552","11140.12"
"553","11084.89"
"554","11022.88"
"555","10964.63"
"556","10921.72"
"557","10905.68"
"558","10922.69"
"559","10960.4"
"560","11002.48"
"561","11032.7"
"562","11040.09"
"563","11028.13"
"564","11002.73"
"565","10969.76"
"566","10935.87"
"567","10909.43"
"568","10899.01"
"569","10912.96"
"570","10949.38"
"571","10989.12"
"572","11011.46"
"573","10996.22"
"574","10940.46"
"575","10863.65"
"576","10786.66"
"577","10729.79"
"578","10701.93"
"579","10700.6"
"580","10722.8"
"581","10765.16"
"582","10818.03"
"583","10867.01"
"584","10897.69"
"585","10897.55"
"586","10872.46"
"587","10838.69"
"588","10812.54"
"589","10807.71"
"590","10820.58"
"591","10840.45"
"592","10856.62"
"593","10860.61"
"594","10853.97"
"595","10841.2"
"596","10826.74"
"597","10813.78"
"598","10801.42"
"599","10787.92"
"600","10771.6"
"601","10752.01"
"602","10731.57"
"603","10713.04"
"604","10699.16"
"605","10691.32"
"606","10688.81"
"607","10690.76"
"608","10696.25"
"609","10703.01"
"610","10707.34"
"611","10705.46"
"612","10694.01"
"613","10674.86"
"614","10653.74"
"615","10636.46"
"616","10627.94"
"617","10626.08"
"618","10625.33"
"619","10620.14"
"620","10606.78"
"621","10590.89"
"622","10581.09"
"623","10585.96"
"624","10608.51"
"625","10634.09"
"626","10644.52"
"627","10621.81"
"628","10561.4"
"629","10485.8"
"630","10420.68"
"631","10391.18"
"632","10404.77"
"633","10446.13"
"634","10498.52"
"635","10545.75"
"636","10580.52"
"637","10602.82"
"638","10612.87"
"639","10611.06"
"640","10599.28"
"641","10580.2"
"642","10556.46"
"643","10530.68"
"644","10505.18"
"645","10482.24"
"646","10464.08"
"647","10452.67"
"648","10449.11"
"649","10454.38"
"650","10469.39"
"651","10491.51"
"652","10512.11"
"653","10522.01"
"654","10512.56"
"655","10486.76"
"656","10459.49"
"657","10446.08"
"658","10460.08"
"659","10496.2"
"660","10537.89"
"661","10568.46"
"662","10574.18"
"663","10557.39"
"664","10525.93"
"665","10487.59"
"666","10448.86"
"667","10412.21"
"668","10379.4"
"669","10352.2"
"670","10333.17"
"671","10326.2"
"672","10335.3"
"673","10364.05"
"674","10407.85"
"675","10454.45"
"676","10491.34"
"677","10507.65"
"678","10506.56"
"679","10498.54"
"680","10494.09"
"681","10501.44"
"682","10518.9"
"683","10542.09"
"684","10566.63"
"685","10588.7"
"686","10605.69"
"687","10615.16"
"688","10614.76"
"689","10605.44"
"690","10592.04"
"691","10579.62"
"692","10572.83"
"693","10571.39"
"694","10571.93"
"695","10570.98"
"696","10565.23"
"697","10551.85"
"698","10528.17"
"699","10491.56"
"700","10443.61"
"701","10396.64"
"702","10364.6"
"703","10361.08"
"704","10385.78"
"705","10420.66"
"706","10446.59"
"707","10446.3"
"708","10424.73"
"709","10401.41"
"710","10396.09"
"711","10422.85"
"712","10466.92"
"713","10504.27"
"714","10511.01"
"715","10476.58"
"716","10421.92"
"717","10372.51"
"718","10353.12"
"719","10369.52"
"720","10405.64"
"721","10444.22"
"722","10469.42"
"723","10479.04"
"724","10478.52"
"725","10473.39"
"726","10468.64"
"727","10466.96"
"728","10470.47"
"729","10481.28"
"730","10498.44"
"731","10515.47"
"732","10525.32"
"733","10521.35"
"734","10504.48"
"735","10482.16"
"736","10462.08"
"737","10450.6"
"738","10445.65"
"739","10441.8"
"740","10433.63"
"741","10419"
"742","10404.71"
"743","10399"
"744","10409.87"
"745","10436.38"
"746","10466.86"
"747","10488.98"
"748","10492.43"
"749","10485.57"
"750","10487.01"
"751","10515.45"
"752","10580.28"
"753","10656.89"
"754","10712.97"
"755","10716.69"
"756","10663.82"
"757","10592.43"
"758","10544.13"
"759","10556.74"
"760","10621.9"
"761","10699.92"
"762","10750.58"
"763","10743.67"
"764","10693.42"
"765","10626.47"
"766","10569.28"
"767","10538.42"
"768","10532.9"
"769","10549.92"
"770","10586.23"
"771","10631.91"
"772","10672.02"
"773","10691.49"
"774","10680.14"
"775","10651.61"
"776","10626.85"
"777","10626.63"
"778","10659.67"
"779","10712.04"
"780","10767.36"
"781","10810.09"
"782","10836.99"
"783","10854.29"
"784","10868.49"
"785","10884.96"
"786","10903.68"
"787","10923"
"788","10941.28"
"789","10956.32"
"790","10964.93"
"791","10963.84"
"792","10950.17"
"793","10926.83"
"794","10900.81"
"795","10879.2"
"796","10867.86"
"797","10867.26"
"798","10876.42"
"799","10894.36"
"800","10918.3"
"801","10942.7"
"802","10961.74"
"803","10970.1"
"804","10967.28"
"805","10955.75"
"806","10938.01"
"807","10916.73"
"808","10895.2"
"809","10876.79"
"810","10864.89"
"811","10862.45"
"812","10871.88"
"813","10895.57"
"814","10934.8"
"815","10982.42"
"816","11027.29"
"817","11058.25"
"818","11068.8"
"819","11064.18"
"820","11051.45"
"821","11037.56"
"822","11027.29"
"823","11023.42"
"824","11028.67"
"825","11044.21"
"826","11063.25"
"827","11076.4"
"828","11074.4"
"829","11055.78"
"830","11032.55"
"831","11018.05"
"832","11024.27"
"833","11048.47"
"834","11078.8"
"835","11103.28"
"836","11113.29"
"837","11111.03"
"838","11100.89"
"839","11087.29"
"840","11075.54"
"841","11071.91"
"842","11082.71"
"843","11111.7"
"844","11147.25"
"845","11171.97"
"846","11168.59"
"847","11134.25"
"848","11092.81"
"849","11071.06"
"850","11092.76"
"851","11147.58"
"852","11203.37"
"853","11227.68"
"854","11202.21"
"855","11153.39"
"856","11116.43"
"857","11125.17"
"858","11180.97"
"859","11251.97"
"860","11304.81"
"861","11313.46"
"862","11290.81"
"863","11262.56"
"864","11254.14"
"865","11274.71"
"866","11307.7"
"867","11334.22"
"868","11337.75"
"869","11322.2"
"870","11302.02"
"871","11291.77"
"872","11301.46"
"873","11330.22"
"874","11375.6"
"875","11434.68"
"876","11497.92"
"877","11550.73"
"878","11578.4"
"879","11571.52"
"880","11539.89"
"881","11497.58"
"882","11458.48"
"883","11430.92"
"884","11417.35"
"885","11419.88"
"886","11439.2"
"887","11468.42"
"888","11498.2"
"889","11519.33"
"890","11529.51"
"891","11536.68"
"892","11549.54"
"893","11575.4"
"894","11611.11"
"895","11648.78"
"896","11680.57"
"897","11702.88"
"898","11720.36"
"899","11738.64"
"900","11762.39"
"901","11786.67"
"902","11800.93"
"903","11794.54"
"904","11764.63"
"905","11727.81"
"906","11703.71"
"907","11710.56"
"908","11746.79"
"909","11796.25"
"910","11842.48"
"911","11872.81"
"912","11886.68"
"913","11885.89"
"914","11872.49"
"915","11853.25"
"916","11839.13"
"917","11841.23"
"918","11864.91"
"919","11893.42"
"920","11904.71"
"921","11877.72"
"922","11815.92"
"923","11748.23"
"924","11704.77"
"925","11707.98"
"926","11745.86"
"927","11796.71"
"928","11839.25"
"929","11864.39"
"930","11877.38"
"931","11884.26"
"932","11890.06"
"933","11894.52"
"934","11895.67"
"935","11891.6"
"936","11881.76"
"937","11867.33"
"938","11849.62"
"939","11830.06"
"940","11810.98"
"941","11794.99"
"942","11784.65"
"943","11781.5"
"944","11785.56"
"945","11796.79"
"946","11814.35"
"947","11832.8"
"948","11845.08"
"949","11844.26"
"950","11830.68"
"951","11814.71"
"952","11807.47"
"953","11817.7"
"954","11840"
"955","11863.85"
"956","11878.86"
"957","11880.22"
"958","11870.87"
"959","11854.3"
"960","11834.18"
"961","11815.22"
"962","11802.47"
"963","11800.86"
"964","11809.94"
"965","11822.13"
"966","11829.34"
"967","11825.43"
"968","11814.75"
"969","11805.14"
"970","11804.27"
"971","11813.39"
"972","11825.85"
"973","11834.48"
"974","11833.2"
"975","11821.16"
"976","11799.09"
"977","11767.89"
"978","11733.71"
"979","11708.49"
"980","11704.53"
"981","11729.74"
"982","11773.47"
"983","11820.14"
"984","11854.48"
"985","11868.95"
"986","11863.54"
"987","11838.58"
"988","11797.07"
"989","11751.63"
"990","11717.05"
"991","11707.44"
"992","11724.71"
"993","11760.59"
"994","11806.47"
"995","11854.51"
"996","11899.03"
"997","11934.77"
"998","11956.85"
"999","11965.56"
"1000","11964.74"
"1001","11958.3"
"1002","11950.24"
"1003","11944.8"
"1004","11946.25"
"1005","11958.84"
"1006","11985.34"
"1007","12018.43"
"1008","12046.58"
"1009","12058.44"
"1010","12050.71"
"1011","12031.68"
"1012","12010.53"
"1013","11995.41"
"1014","11988.83"
"1015","11991.39"
"1016","12003.55"
"1017","12021.81"
"1018","12037.93"
"1019","12043.42"
"1020","12033.11"
"1021","12015.85"
"1022","12004.21"
"1023","12010.08"
"1024","12032"
"1025","12056.1"
"1026","12068.06"
"1027","12060.47"
"1028","12047.75"
"1029","12048.64"
"1030","12079.98"
"1031","12133.74"
"1032","12184.52"
"1033","12206.56"
"1034","12188.94"
"1035","12154.45"
"1036","12130.51"
"1037","12141.15"
"1038","12181.08"
"1039","12230.15"
"1040","12268.25"
"1041","12285.42"
"1042","12287.97"
"1043","12283.68"
"1044","12279.15"
"1045","12274.51"
"1046","12267.67"
"1047","12256.68"
"1048","12244.26"
"1049","12238.27"
"1050","12246.78"
"1051","12273.93"
"1052","12309.79"
"1053","12341.33"
"1054","12356.3"
"1055","12353.5"
"1056","12339.68"
"1057","12321.8"
"1058","12306.72"
"1059","12301.05"
"1060","12311.39"
"1061","12342.51"
"1062","12385.43"
"1063","12424.89"
"1064","12445.9"
"1065","12445.06"
"1066","12434.6"
"1067","12427.86"
"1068","12434.78"
"1069","12450.99"
"1070","12468.33"
"1071","12478.99"
"1072","12480.7"
"1073","12475.67"
"1074","12466.27"
"1075","12456.01"
"1076","12451.13"
"1077","12458.22"
"1078","12482.74"
"1079","12521.25"
"1080","12566.19"
"1081","12609.98"
"1082","12644.41"
"1083","12660.54"
"1084","12649.34"
"1085","12607.18"
"1086","12551.12"
"1087","12503.17"
"1088","12483.62"
"1089","12489.83"
"1090","12502.93"
"1091","12503.74"
"1092","12483.65"
"1093","12454.3"
"1094","12429.66"
"1095","12421.44"
"1096","12428.33"
"1097","12444.28"
"1098","12463.21"
"1099","12478.48"
"1100","12482.82"
"1101","12469"
"1102","12436.89"
"1103","12405.51"
"1104","12397"
"1105","12429.05"
"1106","12483.2"
"1107","12523.51"
"1108","12514.86"
"1109","12455.87"
"1110","12387.62"
"1111","12353.96"
"1112","12382.44"
"1113","12445.43"
"1114","12503.56"
"1115","12520.91"
"1116","12497.25"
"1117","12453.32"
"1118","12409.97"
"1119","12379.23"
"1120","12360.03"
"1121","12350.29"
"1122","12347.45"
"1123","12347.35"
"1124","12345.38"
"1125","12337.6"
"1126","12327.94"
"1127","12325.48"
"1128","12339.24"
"1129","12367.25"
"1130","12390.11"
"1131","12386.82"
"1132","12344.79"
"1133","12286.3"
"1134","12242.71"
"1135","12242.79"
"1136","12283.27"
"1137","12339.62"
"1138","12387.1"
"1139","12413.84"
"1140","12428.32"
"1141","12440.81"
"1142","12458.3"
"1143","12474.76"
"1144","12480.95"
"1145","12468.7"
"1146","12442.31"
"1147","12413.83"
"1148","12395.24"
"1149","12389.58"
"1150","12387.13"
"1151","12377.12"
"1152","12355.45"
"1153","12340.94"
"1154","12357.38"
"1155","12423.66"
"1156","12514.03"
"1157","12578.99"
"1158","12570.25"
"1159","12487.78"
"1160","12389.42"
"1161","12336.43"
"1162","12364.6"
"1163","12439.71"
"1164","12515.63"
"1165","12552.45"
"1166","12552.89"
"1167","12537.37"
"1168","12525.65"
"1169","12523.21"
"1170","12522.26"
"1171","12514.62"
"1172","12499.8"
"1173","12492.89"
"1174","12510.84"
"1175","12563.34"
"1176","12626.08"
"1177","12664.81"
"1178","12648.89"
"1179","12590.34"
"1180","12529.07"
"1181","12504.81"
"1182","12526.96"
"1183","12563.42"
"1184","12579.07"
"1185","12554.11"
"1186","12514.26"
"1187","12493.6"
"1188","12520.2"
"1189","12581"
"1190","12645.77"
"1191","12685.26"
"1192","12689.94"
"1193","12667.36"
"1194","12625.69"
"1195","12577.9"
"1196","12545.37"
"1197","12550.39"
"1198","12604.27"
"1199","12677.18"
"1200","12729.56"
"1201","12727.37"
"1202","12682.97"
"1203","12632.08"
"1204","12609.49"
"1205","12623.87"
"1206","12657.92"
"1207","12693.27"
"1208","12717.75"
"1209","12731.46"
"1210","12735.9"
"1211","12732.48"
"1212","12722.25"
"1213","12706.12"
"1214","12685.57"
"1215","12666.73"
"1216","12658.12"
"1217","12667.89"
"1218","12695.04"
"1219","12729.46"
"1220","12760.74"
"1221","12782.47"
"1222","12795.8"
"1223","12802.73"
"1224","12804.83"
"1225","12802.32"
"1226","12795.06"
"1227","12782.94"
"1228","12766.09"
"1229","12744.73"
"1230","12719.46"
"1231","12697.09"
"1232","12689.74"
"1233","12709.48"
"1234","12755.81"
"1235","12808.88"
"1236","12847.2"
"1237","12858.17"
"1238","12854.66"
"1239","12854.02"
"1240","12870.09"
"1241","12897.05"
"1242","12922.36"
"1243","12934.17"
"1244","12928.83"
"1245","12907.85"
"1246","12872.96"
"1247","12831.08"
"1248","12794.75"
"1249","12776.78"
"1250","12784.41"
"1251","12814.22"
"1252","12861.55"
"1253","12919.97"
"1254","12976.74"
"1255","13017.81"
"1256","13032.08"
"1257","13027.55"
"1258","13019.76"
"1259","13022.96"
"1260","13035.27"
"1261","13043.78"
"1262","13035.8"
"1263","13011.36"
"1264","12984.99"
"1265","12971.93"
"1266","12980.88"
"1267","13008.02"
"1268","13048.17"
"1269","13093.51"
"1270","13127.68"
"1271","13132.57"
"1272","13095.26"
"1273","13032.26"
"1274","12970.52"
"1275","12935.14"
"1276","12931.99"
"1277","12955.59"
"1278","12999.79"
"1279","13047.34"
"1280","13070.5"
"1281","13041.6"
"1282","12959.66"
"1283","12863.68"
"1284","12795.93"
"1285","12782.5"
"1286","12810.75"
"1287","12862.33"
"1288","12919.67"
"1289","12968.38"
"1290","12994.8"
"1291","12988.93"
"1292","12964.45"
"1293","12944.5"
"1294","12950.23"
"1295","12979.9"
"1296","13017.43"
"1297","13047.14"
"1298","13066.18"
"1299","13083.91"
"1300","13109.97"
"1301","13143.39"
"1302","13168.04"
"1303","13166.67"
"1304","13133.28"
"1305","13086.13"
"1306","13046.65"
"1307","13029.82"
"1308","13029.21"
"1309","13033.94"
"1310","13035.12"
"1311","13034.11"
"1312","13035.5"
"1313","13043.16"
"1314","13054.83"
"1315","13065.33"
"1316","13069.62"
"1317","13064.8"
"1318","13049.46"
"1319","13022.63"
"1320","12992.76"
"1321","12977.64"
"1322","12995.1"
"1323","13043.05"
"1324","13091.38"
"1325","13108.05"
"1326","13080.04"
"1327","13032.26"
"1328","12994.16"
"1329","12984.87"
"1330","12994.32"
"1331","13007.29"
"1332","13012.58"
"1333","13015.37"
"1334","13025.06"
"1335","13048.91"
"1336","13081.88"
"1337","13114.43"
"1338","13138.8"
"1339","13162.13"
"1340","13199.04"
"1341","13261.84"
"1342","13333"
"1343","13374.71"
"1344","13350.96"
"1345","13268.31"
"1346","13171.9"
"1347","13107.31"
"1348","13088.3"
"1349","13090.68"
"1350","13088.27"
"1351","13068.81"
"1352","13041.84"
"1353","13018.79"
"1354","13006.35"
"1355","13001.58"
"1356","13000.34"
"1357","12998.68"
"1358","12993.19"
"1359","12980.54"
"1360","12959.57"
"1361","12936.81"
"1362","12920.46"
"1363","12916.11"
"1364","12917.18"
"1365","12913.62"
"1366","12897.6"
"1367","12874.54"
"1368","12854.78"
"1369","12846.87"
"1370","12845.37"
"1371","12838.29"
"1372","12815.39"
"1373","12784.73"
"1374","12765.03"
"1375","12773.1"
"1376","12798.52"
"1377","12811.41"
"1378","12783.59"
"1379","12725.15"
"1380","12679.26"
"1381","12688.43"
"1382","12751.51"
"1383","12822"
"1384","12852.33"
"1385","12831.7"
"1386","12794.72"
"1387","12778.33"
"1388","12793.37"
"1389","12812.54"
"1390","12805.81"
"1391","12764.41"
"1392","12716.06"
"1393","12691.98"
"1394","12705.42"
"1395","12733.66"
"1396","12749.73"
"1397","12737.86"
"1398","12708.38"
"1399","12675.3"
"1400","12650.57"
"1401","12640.55"
"1402","12650.67"
"1403","12681.91"
"1404","12721.5"
"1405","12754.03"
"1406","12766.91"
"1407","12757.64"
"1408","12725.9"
"1409","12676.02"
"1410","12630.77"
"1411","12617.49"
"1412","12653.19"
"1413","12708.85"
"1414","12742.65"
"1415","12723.24"
"1416","12671.22"
"1417","12623.2"
"1418","12609.03"
"1419","12621.74"
"1420","12641.92"
"1421","12653.16"
"1422","12657.04"
"1423","12661.75"
"1424","12674.56"
"1425","12696.94"
"1426","12728.06"
"1427","12766.36"
"1428","12805.29"
"1429","12836.19"
"1430","12852.34"
"1431","12860.93"
"1432","12875.33"
"1433","12906.46"
"1434","12946.46"
"1435","12978.74"
"1436","12989.37"
"1437","12985.67"
"1438","12985.16"
"1439","13002.48"
"1440","13028.27"
"1441","13041.4"
"1442","13024.08"
"1443","12987.53"
"1444","12957.41"
"1445","12956.58"
"1446","12982.98"
"1447","13022.06"
"1448","13059.05"
"1449","13078.14"
"1450","13063.03"
"1451","13001.35"
"1452","12913.79"
"1453","12837.49"
"1454","12804.52"
"1455","12803.82"
"1456","12803.28"
"1457","12775.28"
"1458","12728.93"
"1459","12690.88"
"1460","12683.86"
"1461","12700.18"
"1462","12718.12"
"1463","12718.38"
"1464","12699.58"
"1465","12668.25"
"1466","12631.09"
"1467","12595.77"
"1468","12570.36"
"1469","12560.2"
"1470","12553.41"
"1471","12531.31"
"1472","12480.15"
"1473","12415.33"
"1474","12362.84"
"1475","12343.16"
"1476","12346.73"
"1477","12353.95"
"1478","12348.08"
"1479","12326.69"
"1480","12291.71"
"1481","12246.77"
"1482","12202.87"
"1483","12173.11"
"1484","12165.17"
"1485","12165.37"
"1486","12154.75"
"1487","12122.42"
"1488","12085.76"
"1489","12068.31"
"1490","12082.99"
"1491","12109.98"
"1492","12123.17"
"1493","12106.82"
"1494","12072.97"
"1495","12038.26"
"1496","12014.21"
"1497","12000.25"
"1498","11994.13"
"1499","11995.11"
"1500","12005.43"
"1501","12027.61"
"1502","12058.75"
"1503","12086.52"
"1504","12097.85"
"1505","12088.54"
"1506","12067.42"
"1507","12044.34"
"1508","12025.82"
"1509","12014.29"
"1510","12011.71"
"1511","12015.81"
"1512","12019.82"
"1513","12017.04"
"1514","12006.72"
"1515","11993.37"
"1516","11981.49"
"1517","11973.56"
"1518","11970.51"
"1519","11972.62"
"1520","11973.43"
"1521","11962.43"
"1522","11931.25"
"1523","11889.43"
"1524","11855.31"
"1525","11843.62"
"1526","11845.91"
"1527","11844.71"
"1528","11827.43"
"1529","11805.57"
"1530","11797.98"
"1531","11817.81"
"1532","11856.53"
"1533","11900.47"
"1534","11938.73"
"1535","11968.44"
"1536","11988.2"
"1537","11999.16"
"1538","12008.08"
"1539","12022.44"
"1540","12040.82"
"1541","12046.61"
"1542","12022.05"
"1543","11963.87"
"1544","11887.98"
"1545","11811.55"
"1546","11749.84"
"1547","11716.18"
"1548","11722.43"
"1549","11759.26"
"1550","11800.95"
"1551","11823.03"
"1552","11818.36"
"1553","11789.85"
"1554","11742.53"
"1555","11695.62"
"1556","11674.4"
"1557","11695.78"
"1558","11734.89"
"1559","11753.9"
"1560","11727.68"
"1561","11675.7"
"1562","11627.13"
"1563","11601.84"
"1564","11596.51"
"1565","11604.3"
"1566","11617.64"
"1567","11627.71"
"1568","11625.69"
"1569","11609.14"
"1570","11583.69"
"1571","11555.47"
"1572","11529.85"
"1573","11511.56"
"1574","11504.88"
"1575","11509.02"
"1576","11519.96"
"1577","11534.01"
"1578","11550.18"
"1579","11568.7"
"1580","11586.77"
"1581","11587"
"1582","11547.6"
"1583","11463.67"
"1584","11383.81"
"1585","11367.01"
"1586","11433.1"
"1587","11519.45"
"1588","11554.06"
"1589","11517.08"
"1590","11462.88"
"1591","11449.21"
"1592","11484.63"
"1593","11530.24"
"1594","11548.3"
"1595","11537.92"
"1596","11522.01"
"1597","11520.18"
"1598","11526.2"
"1599","11522.86"
"1600","11498.76"
"1601","11467.69"
"1602","11450.17"
"1603","11457.34"
"1604","11475.19"
"1605","11485.68"
"1606","11480.74"
"1607","11469.37"
"1608","11462.1"
"1609","11467"
"1610","11489.4"
"1611","11532.83"
"1612","11578.69"
"1613","11592.76"
"1614","11547.75"
"1615","11469.28"
"1616","11406.38"
"1617","11396.59"
"1618","11427.68"
"1619","11474.2"
"1620","11513.43"
"1621","11529.56"
"1622","11508.15"
"1623","11453.14"
"1624","11396.65"
"1625","11372.15"
"1626","11389.18"
"1627","11434.53"
"1628","11493.7"
"1629","11548.67"
"1630","11579.32"
"1631","11570.57"
"1632","11535.32"
"1633","11496.09"
"1634","11469.08"
"1635","11450.78"
"1636","11433.96"
"1637","11419.52"
"1638","11422.99"
"1639","11460.46"
"1640","11523.68"
"1641","11578.42"
"1642","11592.41"
"1643","11569.79"
"1644","11537.64"
"1645","11520.64"
"1646","11527.55"
"1647","11561.41"
"1648","11617.25"
"1649","11665.33"
"1650","11671.39"
"1651","11631.42"
"1652","11593.74"
"1653","11609.53"
"1654","11675.44"
"1655","11734.18"
"1656","11732.77"
"1657","11683.24"
"1658","11634.18"
"1659","11622.85"
"1660","11629.23"
"1661","11615.95"
"1662","11563.09"
"1663","11495.24"
"1664","11443.59"
"1665","11422.11"
"1666","11420.99"
"1667","11429.06"
"1668","11440.7"
"1669","11454.53"
"1670","11468.64"
"1671","11476.57"
"1672","11470.02"
"1673","11444.46"
"1674","11407.96"
"1675","11371.19"
"1676","11342.57"
"1677","11326.62"
"1678","11326.89"
"1679","11335.36"
"1680","11333.29"
"1681","11304.23"
"1682","11253.96"
"1683","11199.06"
"1684","11152.35"
"1685","11111.67"
"1686","11071.28"
"1687","11031.55"
"1688","11004.47"
"1689","11002.53"
"1690","11020.02"
"1691","11033.13"
"1692","11020.99"
"1693","10994.75"
"1694","10981.92"
"1695","10997.92"
"1696","11010.32"
"1697","10975.23"
"1698","10885.31"
"1699","10801.85"
"1700","10790.46"
"1701","10847.1"
"1702","10901.68"
"1703","10891.96"
"1704","10838.48"
"1705","10800.81"
"1706","10820.37"
"1707","10874.15"
"1708","10925.24"
"1709","10953.43"
"1710","10965.93"
"1711","10971.52"
"1712","10963.8"
"1713","10924.03"
"1714","10841.27"
"1715","10755.29"
"1716","10725.4"
"1717","10778.67"
"1718","10853.48"
"1719","10874.67"
"1720","10826.67"
"1721","10770.24"
"1722","10764.82"
"1723","10799.72"
"1724","10821.22"
"1725","10789.41"
"1726","10728.03"
"1727","10678.25"
"1728","10666.39"
"1729","10690.15"
"1730","10743.12"
"1731","10802.81"
"1732","10832.28"
"1733","10802.49"
"1734","10740.68"
"1735","10697.14"
"1736","10702.01"
"1737","10729.81"
"1738","10746.18"
"1739","10739.74"
"1740","10727.36"
"1741","10726.07"
"1742","10737.88"
"1743","10756.43"
"1744","10775.22"
"1745","10787.42"
"1746","10786.23"
"1747","10770.06"
"1748","10745.55"
"1749","10720.06"
"1750","10700.91"
"1751","10695.38"
"1752","10706.57"
"1753","10717.74"
"1754","10706.4"
"1755","10668.86"
"1756","10637.36"
"1757","10645.71"
"1758","10685.01"
"1759","10710.77"
"1760","10687.93"
"1761","10640.76"
"1762","10614.16"
"1763","10628.16"
"1764","10648.43"
"1765","10635.32"
"1766","10587.85"
"1767","10540.7"
"1768","10523.73"
"1769","10528.14"
"1770","10530.39"
"1771","10518.07"
"1772","10504.83"
"1773","10507.48"
"1774","10529.68"
"1775","10562.36"
"1776","10596.06"
"1777","10621.88"
"1778","10631.17"
"1779","10618.99"
"1780","10589.08"
"1781","10546.78"
"1782","10504.81"
"1783","10482.83"
"1784","10495.28"
"1785","10523.04"
"1786","10534.45"
"1787","10517.96"
"1788","10506.23"
"1789","10535.31"
"1790","10595.18"
"1791","10635.59"
"1792","10618.94"
"1793","10583.51"
"1794","10592.78"
"1795","10664.56"
"1796","10728.56"
"1797","10710.37"
"1798","10624.74"
"1799","10553.99"
"1800","10557.97"
"1801","10588.07"
"1802","10566.12"
"1803","10472.73"
"1804","10382.54"
"1805","10370.97"
"1806","10427.66"
"1807","10489.3"
"1808","10508.79"
"1809","10498.37"
"1810","10482.86"
"1811","10477.54"
"1812","10485.68"
"1813","10507.53"
"1814","10525.63"
"1815","10514.23"
"1816","10467.04"
"1817","10427.2"
"1818","10443.01"
"1819","10509.15"
"1820","10570.59"
"1821","10581.74"
"1822","10557.44"
"1823","10532.37"
"1824","10525.88"
"1825","10530.27"
"1826","10535.43"
"1827","10535.48"
"1828","10527.23"
"1829","10508.2"
"1830","10478.09"
"1831","10437.24"
"1832","10391.27"
"1833","10351.96"
"1834","10331.14"
"1835","10338.26"
"1836","10381.7"
"1837","10450.89"
"1838","10495.36"
"1839","10464.61"
"1840","10380.62"
"1841","10319.06"
"1842","10335.41"
"1843","10401.63"
"1844","10469.86"
"1845","10505.45"
"1846","10490.49"
"1847","10416.76"
"1848","10337.14"
"1849","10330.71"
"1850","10424.26"
"1851","10533.05"
"1852","10564.63"
"1853","10518.48"
"1854","10460.42"
"1855","10439.59"
"1856","10439.08"
"1857","10427.92"
"1858","10401.25"
"1859","10384.36"
"1860","10398.04"
"1861","10425.19"
"1862","10434.52"
"1863","10415.09"
"1864","10392.68"
"1865","10393.81"
"1866","10411.52"
"1867","10418.88"
"1868","10400.11"
"1869","10371.92"
"1870","10356.34"
"1871","10368.38"
"1872","10416.7"
"1873","10499.82"
"1874","10572.37"
"1875","10578.13"
"1876","10512.28"
"1877","10437.27"
"1878","10410.13"
"1879","10419.73"
"1880","10426.95"
"1881","10412.88"
"1882","10396.69"
"1883","10399.23"
"1884","10414.5"
"1885","10420.62"
"1886","10404.9"
"1887","10379.8"
"1888","10361.24"
"1889","10354.32"
"1890","10355.24"
"1891","10359.52"
"1892","10360.89"
"1893","10353.12"
"1894","10341.61"
"1895","10344.39"
"1896","10371.75"
"1897","10390.67"
"1898","10355.24"
"1899","10269.28"
"1900","10207"
"1901","10232.83"
"1902","10305.21"
"1903","10338.23"
"1904","10298"
"1905","10245.06"
"1906","10241.81"
"1907","10274.75"
"1908","10289.7"
"1909","10262.16"
"1910","10235.82"
"1911","10258.88"
"1912","10319.29"
"1913","10365.13"
"1914","10361.37"
"1915","10322.32"
"1916","10270.54"
"1917","10223.57"
"1918","10195.04"
"1919","10192"
"1920","10199.96"
"1921","10200.84"
"1922","10196.04"
"1923","10204.94"
"1924","10238.71"
"1925","10273.54"
"1926","10278.23"
"1927","10252.69"
"1928","10229.37"
"1929","10232.36"
"1930","10241.21"
"1931","10223.78"
"1932","10172.85"
"1933","10110.16"
"1934","10059.02"
"1935","10042.23"
"1936","10081.44"
"1937","10161.03"
"1938","10218.7"
"1939","10204.1"
"1940","10147.88"
"1941","10106.95"
"1942","10102.29"
"1943","10107.34"
"1944","10099.42"
"1945","10096.74"
"1946","10131.04"
"1947","10200.53"
"1948","10257.64"
"1949","10260.06"
"1950","10215.53"
"1951","10149.67"
"1952","10088.87"
"1953","10060.48"
"1954","10082.27"
"1955","10116.55"
"1956","10107.01"
"1957","10045.45"
"1958","9988.382"
"1959","9982.796"
"1960","9997.024"
"1961","9973.525"
"1962","9898.957"
"1963","9817.009"
"1964","9769.194"
"1965","9765.548"
"1966","9805.555"
"1967","9873.938"
"1968","9937.644"
"1969","9968.869"
"1970","9970.137"
"1971","9952.955"
"1972","9929.845"
"1973","9914.422"
"1974","9913.912"
"1975","9908.291"
"1976","9871.38"
"1977","9800.502"
"1978","9716.131"
"1979","9643.654"
"1980","9622.467"
"1981","9690.996"
"1982","9811.939"
"1983","9883.004"
"1984","9843.481"
"1985","9767.449"
"1986","9748.211"
"1987","9784.539"
"1988","9806.275"
"1989","9769.364"
"1990","9700.302"
"1991","9635.276"
"1992","9595.119"
"1993","9591.326"
"1994","9619.692"
"1995","9643.995"
"1996","9630.525"
"1997","9598.993"
"1998","9594.605"
"1999","9622.731"
"2000","9623.205"
"2001","9545.823"
"2002","9439.968"
"2003","9391.243"
"2004","9419.563"
"2005","9460.642"
"2006","9458.335"
"2007","9419.768"
"2008","9369.986"
"2009","9330.247"
"2010","9318.073"
"2011","9340.857"
"2012","9372.661"
"2013","9382.809"
"2014","9372.443"
"2015","9366.066"
"2016","9371.942"
"2017","9358.223"
"2018","9293.771"
"2019","9208.204"
"2020","9163.133"
"2021","9176.313"
"2022","9190.362"
"2023","9155.398"
"2024","9111.845"
"2025","9131.531"
"2026","9206.521"
"2027","9233.286"
"2028","9143.693"
"2029","9034.397"
"2030","9035.066"
"2031","9133.81"
"2032","9201.403"
"2033","9159.396"
"2034","9071.434"
"2035","9017.574"
"2036","9013.935"
"2037","9041.064"
"2038","9079.483"
"2039","9110.379"
"2040","9117.725"
"2041","9101.526"
"2042","9067.884"
"2043","9032.57"
"2044","9022.068"
"2045","9047.283"
"2046","9062.753"
"2047","9015.694"
"2048","8921.102"
"2049","8841.807"
"2050","8810.884"
"2051","8796.277"
"2052","8766.495"
"2053","8753.395"
"2054","8814.308"
"2055","8925.135"
"2056","8956.89"
"2057","8823.485"
"2058","8640.078"
"2059","8563.284"
"2060","8605.443"
"2061","8666.689"
"2062","8680.486"
"2063","8662.938"
"2064","8641.001"
"2065","8637.4"
"2066","8672.165"
"2067","8732.228"
"2068","8761.438"
"2069","8718.796"
"2070","8635.109"
"2071","8556.642"
"2072","8495.897"
"2073","8440.331"
"2074","8396.011"
"2075","8409.374"
"2076","8514.757"
"2077","8631.396"
"2078","8635.174"
"2079","8519.125"
"2080","8411.188"
"2081","8405.832"
"2082","8460.648"
"2083","8508.611"
"2084","8525.793"
"2085","8515.132"
"2086","8486.439"
"2087","8460.439"
"2088","8453.693"
"2089","8455.918"
"2090","8449.177"
"2091","8431.341"
"2092","8414.303"
"2093","8405.668"
"2094","8401.425"
"2095","8396.368"
"2096","8389.184"
"2097","8380.218"
"2098","8366.92"
"2099","8343.246"
"2100","8308.699"
"2101","8281.866"
"2102","8282.685"
"2103","8302.906"
"2104","8317.503"
"2105","8304.722"
"2106","8248.343"
"2107","8148.628"
"2108","8075.817"
"2109","8111.245"
"2110","8217.513"
"2111","8268.74"
"2112","8205.94"
"2113","8103.637"
"2114","8039.334"
"2115","8022.229"
"2116","8038.043"
"2117","8066.749"
"2118","8083.256"
"2119","8077.021"
"2120","8071.325"
"2121","8088.044"
"2122","8108.949"
"2123","8100.538"
"2124","8047.945"
"2125","7955.39"
"2126","7846.78"
"2127","7794.633"
"2128","7858.049"
"2129","7939.64"
"2130","7878.467"
"2131","7687.282"
"2132","7571.452"
"2133","7653.021"
"2134","7792.175"
"2135","7825.882"
"2136","7767.977"
"2137","7713.419"
"2138","7697.519"
"2139","7686.464"
"2140","7653.018"
"2141","7599.883"
"2142","7538.611"
"2143","7508.239"
"2144","7558.407"
"2145","7665.102"
"2146","7720.377"
"2147","7661.853"
"2148","7567.444"
"2149","7525.256"
"2150","7516.149"
"2151","7474.884"
"2152","7404.4"
"2153","7381.343"
"2154","7443.059"
"2155","7515.726"
"2156","7520.76"
"2157","7468.757"
"2158","7406.412"
"2159","7361.248"
"2160","7341.896"
"2161","7342.112"
"2162","7323.562"
"2163","7254.056"
"2164","7163.419"
"2165","7102.142"
"2166","7091.141"
"2167","7126.22"
"2168","7187.383"
"2169","7225.863"
"2170","7202.292"
"2171","7137.976"
"2172","7070.562"
"2173","7016.38"
"2174","6977.107"
"2175","6965.842"
"2176","7013.9"
"2177","7125.607"
"2178","7200.324"
"2179","7130.688"
"2180","6976.601"
"2181","6886.628"
"2182","6896.822"
"2183","6905.69"
"2184","6852.857"
"2185","6813.37"
"2186","6862.43"
"2187","6922.144"
"2188","6859.918"
"2189","6699.964"
"2190","6607.971"
"2191","6665.858"
"2192","6780.525"
"2193","6854.074"
"2194","6861.289"
"2195","6800.053"
"2196","6697.06"
"2197","6597.21"
"2198","6526.177"
"2199","6482.821"
"2200","6463.822"
"2201","6465.15"
"2202","6483.52"
"2203","6522.064"
"2204","6585.121"
"2205","6645.564"
"2206","6647.46"
"2207","6568.334"
"2208","6452.818"
"2209","6347.846"
"2210","6276.309"
"2211","6252.66"
"2212","6270.215"
"2213","6309.798"
"2214","6355.372"
"2215","6394.945"
"2216","6413.605"
"2217","6388.475"
"2218","6307.623"
"2219","6229.358"
"2220","6231.271"
"2221","6306.148"
"2222","6383.911"
"2223","6420.324"
"2224","6412.467"
"2225","6363.459"
"2226","6284.794"
"2227","6191.609"
"2228","6112.579"
"2229","6079.477"
"2230","6074.023"
"2231","6035.041"
"2232","5943.498"
"2233","5855.348"
"2234","5822.256"
"2235","5853.404"
"2236","5938.682"
"2237","5991.139"
"2238","5895.363"
"2239","5701.674"
"2240","5614.106"
"2241","5706.546"
"2242","5804.495"
"2243","5757.982"
"2244","5609.369"
"2245","5444.663"
"2246","5338.024"
"2247","5353.769"
"2248","5467.347"
"2249","5571.401"
"2250","5592.997"
"2251","5526.957"
"2252","5388.134"
"2253","5237.947"
"2254","5140.01"
"2255","5093.698"
"2256","5069.788"
"2257","5052.402"
"2258","5037.505"
"2259","5026.744"
"2260","5030.416"
"2261","5040.455"
"2262","4988.002"
"2263","4817.573"
"2264","4639.776"
"2265","4618.096"
"2266","4716.414"
"2267","4750.33"
"2268","4655.933"
"2269","4541.651"
"2270","4479.024"
"2271","4409.759"
"2272","4277.688"
"2273","4145.824"
"2274","4103.815"
"2275","4114.55"
"2276","4067.33"
"2277","3947.988"
"2278","3849.373"
"2279","3817.171"
"2280","3791.7"
"2281","3726.004"
"2282","3669.17"
"2283","3677.517"
"2284","3691.038"
"2285","3605.035"
"2286","3443.883"
"2287","3335.403"
"2288","3321.04"
"2289","3313.738"
"2290","3252.907"
"2291","3172.865"
"2292","3112.911"
"2293","3061.958"
"2294","2994.752"
"2295","2898.166"
"2296","2767.707"
"2297","2640.565"
"2298","2593.461"
"2299","2629.585"
"2300","2625.227"
