,"Scan 01051"
"400","14654.17"
"401","14637.1"
"402","14618.49"
"403","14605.54"
"404","14605.4"
"405","14623.72"
"406","14653.47"
"407","14681.29"
"408","14693.84"
"409","14679"
"410","14639.21"
"411","14587"
"412","14535.04"
"413","14495.6"
"414","14474.73"
"415","14472.7"
"416","14489.56"
"417","14525.25"
"418","14575.64"
"419","14631.62"
"420","14683.83"
"421","14723.04"
"422","14744.4"
"423","14750.12"
"424","14742.98"
"425","14725.79"
"426","14701.68"
"427","14674.61"
"428","14648.57"
"429","14627.55"
"430","14615.1"
"431","14613.64"
"432","14625.43"
"433","14652.69"
"434","14694.36"
"435","14738.12"
"436","14769.28"
"437","14773.26"
"438","14740.95"
"439","14686.9"
"440","14632.03"
"441","14597.11"
"442","14598.24"
"443","14626.52"
"444","14664.61"
"445","14695.29"
"446","14703.78"
"447","14691.07"
"448","14664.6"
"449","14631.83"
"450","14600.06"
"451","14575.76"
"452","14565.01"
"453","14573.85"
"454","14606.67"
"455","14651.86"
"456","14688.66"
"457","14696.31"
"458","14656.38"
"459","14576.59"
"460","14481.94"
"461","14397.58"
"462","14346.97"
"463","14331.4"
"464","14335.58"
"465","14343.92"
"466","14341.85"
"467","14330.24"
"468","14322.85"
"469","14333.73"
"470","14375.82"
"471","14441.4"
"472","14503.86"
"473","14536.06"
"474","14512.37"
"475","14437.75"
"476","14347.51"
"477","14278.07"
"478","14264.3"
"479","14307.12"
"480","14371.53"
"481","14420.96"
"482","14420.11"
"483","14363.5"
"484","14278.88"
"485","14195.6"
"486","14142.25"
"487","14128.54"
"488","14142.29"
"489","14170.16"
"490","14199.01"
"491","14219.23"
"492","14225.39"
"493","14212.38"
"494","14175.32"
"495","14117.09"
"496","14049.91"
"497","13986.48"
"498","13939.2"
"499","13911.94"
"500","13898.39"
"501","13891.62"
"502","13884.77"
"503","13870.95"
"504","13843.24"
"505","13794.77"
"506","13719.09"
"507","13622.19"
"508","13524.38"
"509","13446.66"
"510","13409.22"
"511","13413.36"
"512","13439.47"
"513","13466.94"
"514","13475.84"
"515","13460.61"
"516","13430.68"
"517","13396.16"
"518","13366.77"
"519","13345.33"
"520","13327.9"
"521","13310.28"
"522","13288.6"
"523","13265.35"
"524","13248.67"
"525","13246.91"
"526","13267.54"
"527","13304.79"
"528","13342.04"
"529","13362.4"
"530","13350.46"
"531","13310.13"
"532","13259.46"
"533","13216.73"
"534","13198.73"
"535","13205.19"
"536","13224.83"
"537","13246.21"
"538","13258.42"
"539","13255.2"
"540","13232.88"
"541","13187.88"
"542","13118.51"
"543","13038.65"
"544","12969.68"
"545","12932.9"
"546","12945.24"
"547","12994.77"
"548","13057.88"
"549","13110.98"
"550","13134.78"
"551","13132.54"
"552","13115.11"
"553","13093.31"
"554","13076.29"
"555","13066.13"
"556","13062.97"
"557","13066.93"
"558","13077.31"
"559","13090.4"
"560","13101.9"
"561","13107.5"
"562","13104.48"
"563","13094.41"
"564","13079.59"
"565","13062.29"
"566","13044.72"
"567","13028.89"
"568","13016.77"
"569","13010.34"
"570","13010.17"
"571","13014.55"
"572","13021.59"
"573","13029.3"
"574","13033.71"
"575","13028.16"
"576","13005.87"
"577","12960.59"
"578","12898.3"
"579","12837.21"
"580","12795.96"
"581","12791.78"
"582","12822.68"
"583","12872.01"
"584","12922.86"
"585","12959.78"
"586","12981.16"
"587","12993.21"
"588","13002.23"
"589","13013.28"
"590","13023.43"
"591","13026.48"
"592","13016.24"
"593","12989.39"
"594","12955.9"
"595","12929.61"
"596","12924.28"
"597","12947.08"
"598","12984.19"
"599","13017.64"
"600","13029.55"
"601","13010.94"
"602","12972.38"
"603","12927.04"
"604","12887.93"
"605","12861.81"
"606","12845.94"
"607","12836.74"
"608","12830.8"
"609","12827.93"
"610","12831.47"
"611","12844.85"
"612","12870.96"
"613","12904.48"
"614","12934.14"
"615","12948.54"
"616","12938.42"
"617","12911.67"
"618","12884.65"
"619","12873.71"
"620","12890.87"
"621","12926.16"
"622","12962.64"
"623","12983.42"
"624","12977.97"
"625","12955.88"
"626","12930.76"
"627","12916.12"
"628","12917.84"
"629","12926.55"
"630","12931.07"
"631","12920.52"
"632","12894.9"
"633","12868.18"
"634","12855.22"
"635","12869.77"
"636","12907.99"
"637","12951.53"
"638","12981.65"
"639","12982.01"
"640","12956.58"
"641","12919.81"
"642","12886.19"
"643","12867.64"
"644","12863.39"
"645","12868.74"
"646","12879.01"
"647","12890.42"
"648","12901.66"
"649","12911.88"
"650","12920.22"
"651","12926.1"
"652","12929.35"
"653","12929.83"
"654","12927.51"
"655","12923.94"
"656","12922.31"
"657","12925.92"
"658","12937.53"
"659","12954.92"
"660","12972.83"
"661","12985.98"
"662","12990.34"
"663","12988.74"
"664","12986.36"
"665","12988.36"
"666","12997.79"
"667","13011.49"
"668","13025.14"
"669","13034.47"
"670","13037.98"
"671","13038.64"
"672","13039.86"
"673","13044.84"
"674","13053.07"
"675","13060.54"
"676","13063.16"
"677","13057.33"
"678","13044.05"
"679","13026.66"
"680","13008.54"
"681","12992.62"
"682","12980.12"
"683","12971.73"
"684","12968.19"
"685","12970.2"
"686","12978.55"
"687","12994.02"
"688","13017.28"
"689","13045.9"
"690","13073.73"
"691","13094.43"
"692","13102.22"
"693","13097.72"
"694","13085.71"
"695","13070.98"
"696","13058.06"
"697","13049.95"
"698","13049.18"
"699","13058.25"
"700","13077.29"
"701","13100.45"
"702","13120.96"
"703","13132.18"
"704","13132.8"
"705","13128.29"
"706","13124.55"
"707","13126.88"
"708","13133.46"
"709","13137.78"
"710","13133.3"
"711","13116"
"712","13094.96"
"713","13083.39"
"714","13094.48"
"715","13132.58"
"716","13181.21"
"717","13220.93"
"718","13232.9"
"719","13215.3"
"720","13185.92"
"721","13163.59"
"722","13164.98"
"723","13186.21"
"724","13211.83"
"725","13226.26"
"726","13218.6"
"727","13196.96"
"728","13174.31"
"729","13163.53"
"730","13171.53"
"731","13194.17"
"732","13226.16"
"733","13262.24"
"734","13297.63"
"735","13327.93"
"736","13348.8"
"737","13356.49"
"738","13351.27"
"739","13335.03"
"740","13309.64"
"741","13279.38"
"742","13255.09"
"743","13248.67"
"744","13271.61"
"745","13321.5"
"746","13379.14"
"747","13424.4"
"748","13439.39"
"749","13427.45"
"750","13403.57"
"751","13382.82"
"752","13377.13"
"753","13386.88"
"754","13409.8"
"755","13443.63"
"756","13484.58"
"757","13526.54"
"758","13563.23"
"759","13588.72"
"760","13601.72"
"761","13604.07"
"762","13597.65"
"763","13584.74"
"764","13569.25"
"765","13555.61"
"766","13548.18"
"767","13548.48"
"768","13553"
"769","13557.71"
"770","13558.94"
"771","13558.49"
"772","13562.25"
"773","13576.22"
"774","13604.88"
"775","13645.28"
"776","13692.21"
"777","13740.49"
"778","13786.28"
"779","13828.34"
"780","13865.68"
"781","13897.47"
"782","13925.45"
"783","13953.25"
"784","13984.59"
"785","14020.78"
"786","14051.56"
"787","14063.21"
"788","14042.17"
"789","13988.3"
"790","13925.62"
"791","13880.59"
"792","13877.72"
"793","13914.92"
"794","13971"
"795","14024.36"
"796","14057.87"
"797","14073.51"
"798","14078.41"
"799","14079.64"
"800","14081.82"
"801","14085.72"
"802","14091.76"
"803","14100.26"
"804","14110.22"
"805","14119.92"
"806","14127.56"
"807","14131.88"
"808","14133.27"
"809","14132.46"
"810","14130.28"
"811","14129.68"
"812","14136.35"
"813","14156.11"
"814","14193.24"
"815","14239.75"
"816","14281.9"
"817","14305.92"
"818","14304.13"
"819","14284.3"
"820","14256.55"
"821","14230.75"
"822","14211.46"
"823","14198.3"
"824","14190.75"
"825","14188.79"
"826","14195.17"
"827","14213.53"
"828","14247.4"
"829","14292.9"
"830","14333.3"
"831","14350.63"
"832","14329.5"
"833","14282.99"
"834","14241.78"
"835","14236.8"
"836","14285.7"
"837","14363.31"
"838","14435.82"
"839","14470.45"
"840","14460.49"
"841","14427.74"
"842","14395.43"
"843","14382.88"
"844","14386.04"
"845","14392.09"
"846","14388.32"
"847","14371.63"
"848","14356.89"
"849","14360.89"
"850","14398.47"
"851","14462.03"
"852","14529.7"
"853","14579.37"
"854","14597.07"
"855","14594.51"
"856","14588.44"
"857","14595.05"
"858","14616.83"
"859","14642.31"
"860","14659.35"
"861","14658.55"
"862","14644.72"
"863","14627.39"
"864","14616.07"
"865","14616.92"
"866","14630.96"
"867","14658.71"
"868","14699.81"
"869","14746.01"
"870","14784.97"
"871","14804.36"
"872","14800.55"
"873","14790.81"
"874","14795.5"
"875","14833.22"
"876","14896.96"
"877","14960.1"
"878","14995.57"
"879","14985.92"
"880","14948.42"
"881","14908.09"
"882","14889.32"
"883","14899.18"
"884","14926.14"
"885","14957.74"
"886","14983.55"
"887","15003.76"
"888","15022.02"
"889","15041.96"
"890","15065.86"
"891","15094.04"
"892","15126.68"
"893","15163.64"
"894","15202.51"
"895","15239.83"
"896","15272.17"
"897","15296.61"
"898","15311.24"
"899","15314.24"
"900","15304.4"
"901","15286.42"
"902","15268.49"
"903","15258.85"
"904","15262.44"
"905","15276"
"906","15295"
"907","15314.99"
"908","15332.69"
"909","15345.65"
"910","15351.49"
"911","15350.32"
"912","15350.22"
"913","15360.86"
"914","15391.3"
"915","15439.67"
"916","15494.31"
"917","15543.25"
"918","15575.22"
"919","15581.77"
"920","15555.08"
"921","15488.32"
"922","15398.64"
"923","15328.08"
"924","15319.86"
"925","15402.63"
"926","15539.7"
"927","15675.98"
"928","15757.6"
"929","15768.57"
"930","15737.31"
"931","15694.76"
"932","15666.96"
"933","15654.87"
"934","15651.51"
"935","15650.07"
"936","15649.66"
"937","15656.97"
"938","15679.23"
"939","15720.51"
"940","15767.76"
"941","15802"
"942","15804.65"
"943","15775.12"
"944","15737.17"
"945","15716.35"
"946","15732.19"
"947","15769.73"
"948","15801.54"
"949","15800.64"
"950","15760.33"
"951","15702.08"
"952","15649.46"
"953","15622.72"
"954","15622.57"
"955","15642.64"
"956","15676.55"
"957","15717.98"
"958","15760.75"
"959","15798.68"
"960","15826.1"
"961","15840.32"
"962","15839.74"
"963","15822.86"
"964","15794.44"
"965","15767.51"
"966","15755.67"
"967","15769"
"968","15798.78"
"969","15830.03"
"970","15848.04"
"971","15848.88"
"972","15841.92"
"973","15837.37"
"974","15842.98"
"975","15854.54"
"976","15864.23"
"977","15864.42"
"978","15853.09"
"979","15834.54"
"980","15813.39"
"981","15794.09"
"982","15780.4"
"983","15775.87"
"984","15783.85"
"985","15802.9"
"986","15826.9"
"987","15849.51"
"988","15866.3"
"989","15879.74"
"990","15893.83"
"991","15912.3"
"992","15934.54"
"993","15956.25"
"994","15973"
"995","15982.89"
"996","15991.35"
"997","16005.17"
"998","16030.32"
"999","16062.02"
"1000","16088.03"
"1001","16095.99"
"1002","16081.54"
"1003","16059.26"
"1004","16046.5"
"1005","16060.58"
"1006","16114.11"
"1007","16187.94"
"1008","16249.8"
"1009","16267.85"
"1010","16234.13"
"1011","16174.95"
"1012","16119.29"
"1013","16092"
"1014","16095.44"
"1015","16124.36"
"1016","16173.37"
"1017","16232.16"
"1018","16284.69"
"1019","16314.58"
"1020","16311.26"
"1021","16288.84"
"1022","16267.92"
"1023","16268.33"
"1024","16294.46"
"1025","16336.37"
"1026","16383.54"
"1027","16426.5"
"1028","16459"
"1029","16475.42"
"1030","16471.05"
"1031","16453.41"
"1032","16438.58"
"1033","16442.77"
"1034","16473.25"
"1035","16516.88"
"1036","16557.72"
"1037","16581.87"
"1038","16592.94"
"1039","16603.45"
"1040","16625.84"
"1041","16663.1"
"1042","16703.05"
"1043","16732.18"
"1044","16740.31"
"1045","16735.92"
"1046","16733.92"
"1047","16748.79"
"1048","16782.43"
"1049","16822.95"
"1050","16857.76"
"1051","16877.21"
"1052","16882.18"
"1053","16875.83"
"1054","16861.48"
"1055","16844.13"
"1056","16830.02"
"1057","16825.41"
"1058","16833.19"
"1059","16848.91"
"1060","16867.13"
"1061","16883.08"
"1062","16897.22"
"1063","16912.33"
"1064","16931.13"
"1065","16953.18"
"1066","16973.81"
"1067","16987.99"
"1068","16993.14"
"1069","16996.8"
"1070","17009.22"
"1071","17039.79"
"1072","17084.43"
"1073","17128.14"
"1074","17155.65"
"1075","17157.59"
"1076","17138.5"
"1077","17104.85"
"1078","17063.68"
"1079","17026.03"
"1080","17004.73"
"1081","17012.36"
"1082","17048.36"
"1083","17095.24"
"1084","17134.32"
"1085","17152.23"
"1086","17155.83"
"1087","17156.87"
"1088","17166.1"
"1089","17181.6"
"1090","17192.43"
"1091","17187.54"
"1092","17165.73"
"1093","17144.75"
"1094","17144.52"
"1095","17179.44"
"1096","17231.9"
"1097","17272.72"
"1098","17273.89"
"1099","17233.7"
"1100","17176.37"
"1101","17127.22"
"1102","17104.61"
"1103","17108.26"
"1104","17134.81"
"1105","17179.91"
"1106","17231.2"
"1107","17272.38"
"1108","17287.52"
"1109","17274.15"
"1110","17246.76"
"1111","17220.94"
"1112","17208.66"
"1113","17209.74"
"1114","17221.39"
"1115","17240.56"
"1116","17261.54"
"1117","17277.04"
"1118","17279.86"
"1119","17270.32"
"1120","17259.76"
"1121","17260.39"
"1122","17279.84"
"1123","17307.43"
"1124","17328.02"
"1125","17327.82"
"1126","17309.75"
"1127","17287.55"
"1128","17275.05"
"1129","17274.88"
"1130","17271.85"
"1131","17249.2"
"1132","17197.84"
"1133","17140.58"
"1134","17108.58"
"1135","17129.96"
"1136","17196.29"
"1137","17274.78"
"1138","17332.48"
"1139","17355.79"
"1140","17361.64"
"1141","17369.7"
"1142","17393.58"
"1143","17422.96"
"1144","17441.54"
"1145","17434.93"
"1146","17410.22"
"1147","17387.82"
"1148","17388.07"
"1149","17417.79"
"1150","17464.36"
"1151","17513.67"
"1152","17554.21"
"1153","17583.54"
"1154","17601.16"
"1155","17606.92"
"1156","17603.63"
"1157","17595.69"
"1158","17587.54"
"1159","17583.93"
"1160","17590.03"
"1161","17611.03"
"1162","17648.27"
"1163","17692.61"
"1164","17733.07"
"1165","17759.91"
"1166","17771.58"
"1167","17769.98"
"1168","17757.08"
"1169","17737.01"
"1170","17715.79"
"1171","17699.53"
"1172","17693.85"
"1173","17703.39"
"1174","17732.68"
"1175","17783.54"
"1176","17845.35"
"1177","17903.79"
"1178","17945.53"
"1179","17968.78"
"1180","17979.27"
"1181","17982.85"
"1182","17983.85"
"1183","17984.56"
"1184","17987.11"
"1185","17991.38"
"1186","17990.6"
"1187","17976.77"
"1188","17944.63"
"1189","17907.86"
"1190","17888.01"
"1191","17905.34"
"1192","17955.98"
"1193","18015.11"
"1194","18057.34"
"1195","18072.55"
"1196","18077.53"
"1197","18091.79"
"1198","18127.98"
"1199","18172.72"
"1200","18206.51"
"1201","18213.02"
"1202","18202.42"
"1203","18198.27"
"1204","18223.04"
"1205","18272.17"
"1206","18314.15"
"1207","18316.45"
"1208","18267.97"
"1209","18199.63"
"1210","18147.22"
"1211","18137.88"
"1212","18163.46"
"1213","18206.93"
"1214","18252.09"
"1215","18290.61"
"1216","18318.17"
"1217","18330.78"
"1218","18330.87"
"1219","18327.23"
"1220","18328.89"
"1221","18340.95"
"1222","18361.22"
"1223","18386.68"
"1224","18413.12"
"1225","18431.82"
"1226","18433.02"
"1227","18409.72"
"1228","18375.65"
"1229","18354.01"
"1230","18366.71"
"1231","18411.53"
"1232","18465.87"
"1233","18506.68"
"1234","18523.34"
"1235","18524.42"
"1236","18520.1"
"1237","18518.66"
"1238","18522.85"
"1239","18534.49"
"1240","18554.13"
"1241","18575.64"
"1242","18590.54"
"1243","18591.36"
"1244","18581.88"
"1245","18572.93"
"1246","18575.1"
"1247","18588.92"
"1248","18603.9"
"1249","18609.06"
"1250","18602.71"
"1251","18600.93"
"1252","18621.85"
"1253","18674.75"
"1254","18738.25"
"1255","18784.35"
"1256","18790.1"
"1257","18765.07"
"1258","18731.65"
"1259","18711.15"
"1260","18710.97"
"1261","18729.02"
"1262","18762.87"
"1263","18804.7"
"1264","18840.69"
"1265","18856.72"
"1266","18849.41"
"1267","18835.7"
"1268","18834.81"
"1269","18856.72"
"1270","18881.26"
"1271","18882.09"
"1272","18840.37"
"1273","18779.73"
"1274","18738.85"
"1275","18752.44"
"1276","18814.08"
"1277","18893.13"
"1278","18959.31"
"1279","18996.45"
"1280","19001.74"
"1281","18973.05"
"1282","18917.62"
"1283","18856.74"
"1284","18812.82"
"1285","18799.59"
"1286","18809.95"
"1287","18833.71"
"1288","18861.03"
"1289","18883.46"
"1290","18892.83"
"1291","18883.15"
"1292","18862.29"
"1293","18843.67"
"1294","18839.86"
"1295","18853.71"
"1296","18881.97"
"1297","18921.19"
"1298","18966.21"
"1299","19010.25"
"1300","19046.46"
"1301","19070.3"
"1302","19080.46"
"1303","19075.86"
"1304","19058.35"
"1305","19035.94"
"1306","19017.47"
"1307","19010.76"
"1308","19020.23"
"1309","19049.63"
"1310","19099.5"
"1311","19153.93"
"1312","19191.79"
"1313","19195.32"
"1314","19173.95"
"1315","19150.12"
"1316","19144.61"
"1317","19155.24"
"1318","19163.81"
"1319","19152.67"
"1320","19124.94"
"1321","19104.38"
"1322","19115.28"
"1323","19163.3"
"1324","19227.86"
"1325","19286.47"
"1326","19322.83"
"1327","19333.02"
"1328","19314.58"
"1329","19271.46"
"1330","19225.7"
"1331","19202.59"
"1332","19219.68"
"1333","19262.94"
"1334","19310.31"
"1335","19342.27"
"1336","19354.52"
"1337","19348.18"
"1338","19325.24"
"1339","19294.64"
"1340","19268.8"
"1341","19259.18"
"1342","19264.79"
"1343","19276.15"
"1344","19283.93"
"1345","19284.93"
"1346","19281.47"
"1347","19276.11"
"1348","19272.28"
"1349","19274.38"
"1350","19286.85"
"1351","19310.29"
"1352","19339.31"
"1353","19368.03"
"1354","19392.22"
"1355","19411.09"
"1356","19424.25"
"1357","19430.21"
"1358","19424.4"
"1359","19401.77"
"1360","19361.01"
"1361","19314.08"
"1362","19275.83"
"1363","19257.76"
"1364","19255.82"
"1365","19261.46"
"1366","19268.19"
"1367","19281.94"
"1368","19313.19"
"1369","19368.4"
"1370","19422.58"
"1371","19436"
"1372","19375.19"
"1373","19270.81"
"1374","19190.94"
"1375","19198.53"
"1376","19281.42"
"1377","19373.84"
"1378","19412.03"
"1379","19389.92"
"1380","19351.35"
"1381","19340.22"
"1382","19360.76"
"1383","19376.08"
"1384","19348.4"
"1385","19276.3"
"1386","19203.23"
"1387","19174.85"
"1388","19204.95"
"1389","19260.9"
"1390","19306.52"
"1391","19321.58"
"1392","19313.18"
"1393","19291.07"
"1394","19264.59"
"1395","19242.23"
"1396","19232.32"
"1397","19238.13"
"1398","19251.02"
"1399","19260.71"
"1400","19258.43"
"1401","19239.62"
"1402","19200.39"
"1403","19144.17"
"1404","19096.84"
"1405","19088.6"
"1406","19134.64"
"1407","19197.2"
"1408","19226.88"
"1409","19191.61"
"1410","19128.14"
"1411","19090.35"
"1412","19117.05"
"1413","19179.84"
"1414","19231.63"
"1415","19235.54"
"1416","19205.12"
"1417","19169.48"
"1418","19152.75"
"1419","19151.93"
"1420","19154.84"
"1421","19150.68"
"1422","19136.79"
"1423","19113.49"
"1424","19082.79"
"1425","19057.36"
"1426","19054.1"
"1427","19086.15"
"1428","19140.87"
"1429","19194.76"
"1430","19227.61"
"1431","19243.45"
"1432","19257.02"
"1433","19280.43"
"1434","19305.24"
"1435","19313.49"
"1436","19290.69"
"1437","19250.07"
"1438","19218.14"
"1439","19218.05"
"1440","19244.47"
"1441","19278.13"
"1442","19300.91"
"1443","19305.35"
"1444","19289.29"
"1445","19252.61"
"1446","19212.21"
"1447","19193.57"
"1448","19218.12"
"1449","19272.61"
"1450","19326.35"
"1451","19351.51"
"1452","19345.58"
"1453","19318.62"
"1454","19280.62"
"1455","19240.22"
"1456","19205.42"
"1457","19182.81"
"1458","19168.03"
"1459","19151.47"
"1460","19125.79"
"1461","19100.9"
"1462","19094.67"
"1463","19120.12"
"1464","19154.84"
"1465","19160.86"
"1466","19107.96"
"1467","19019.55"
"1468","18941.39"
"1469","18910.56"
"1470","18908.41"
"1471","18894.42"
"1472","18836.27"
"1473","18750.29"
"1474","18670.48"
"1475","18626.02"
"1476","18619.48"
"1477","18644.58"
"1478","18691.48"
"1479","18733.29"
"1480","18737.84"
"1481","18685.14"
"1482","18609.07"
"1483","18558.43"
"1484","18568.47"
"1485","18620.91"
"1486","18684.24"
"1487","18729.3"
"1488","18735.36"
"1489","18683.47"
"1490","18574.22"
"1491","18468.07"
"1492","18436.95"
"1493","18512.28"
"1494","18616.72"
"1495","18654.97"
"1496","18580.79"
"1497","18462.08"
"1498","18382.78"
"1499","18387.44"
"1500","18441.45"
"1501","18500.86"
"1502","18536.31"
"1503","18543.69"
"1504","18521.55"
"1505","18477.81"
"1506","18434.22"
"1507","18413.15"
"1508","18417.81"
"1509","18427.49"
"1510","18420.61"
"1511","18392.85"
"1512","18358.09"
"1513","18330.73"
"1514","18318.08"
"1515","18321.26"
"1516","18340.35"
"1517","18364.5"
"1518","18374.82"
"1519","18354.84"
"1520","18315.73"
"1521","18285.33"
"1522","18287.73"
"1523","18314.32"
"1524","18340.54"
"1525","18344.3"
"1526","18319.85"
"1527","18267.82"
"1528","18192.97"
"1529","18120.09"
"1530","18080.11"
"1531","18090.73"
"1532","18119.54"
"1533","18122.27"
"1534","18074.99"
"1535","18012.83"
"1536","17981.48"
"1537","18002.08"
"1538","18040.83"
"1539","18056.81"
"1540","18036.04"
"1541","18010.79"
"1542","18017.07"
"1543","18056.92"
"1544","18087.46"
"1545","18064.73"
"1546","17993.95"
"1547","17930.17"
"1548","17926.7"
"1549","17975.71"
"1550","18022.14"
"1551","18015.49"
"1552","17964.71"
"1553","17913.26"
"1554","17899.67"
"1555","17924.27"
"1556","17971.02"
"1557","18022.85"
"1558","18057.93"
"1559","18052.94"
"1560","17996.31"
"1561","17917.67"
"1562","17855.62"
"1563","17834.3"
"1564","17842.04"
"1565","17861.7"
"1566","17879.35"
"1567","17886.69"
"1568","17876.13"
"1569","17846.77"
"1570","17806.1"
"1571","17762.05"
"1572","17720.2"
"1573","17683.96"
"1574","17656.9"
"1575","17645.19"
"1576","17656.67"
"1577","17696"
"1578","17744.26"
"1579","17772.05"
"1580","17758.42"
"1581","17723.4"
"1582","17699.34"
"1583","17705.75"
"1584","17721.46"
"1585","17717.33"
"1586","17679.91"
"1587","17628.89"
"1588","17587.94"
"1589","17571.86"
"1590","17582.76"
"1591","17621.11"
"1592","17672.98"
"1593","17710.54"
"1594","17707.94"
"1595","17669.3"
"1596","17618.15"
"1597","17576.48"
"1598","17553.25"
"1599","17551.89"
"1600","17571.45"
"1601","17592.25"
"1602","17589.6"
"1603","17552.64"
"1604","17507.49"
"1605","17486.17"
"1606","17501.38"
"1607","17533"
"1608","17558.36"
"1609","17573.98"
"1610","17597.31"
"1611","17644.55"
"1612","17701.33"
"1613","17731.63"
"1614","17706.55"
"1615","17652.18"
"1616","17618.96"
"1617","17642.76"
"1618","17696.64"
"1619","17736.94"
"1620","17735.23"
"1621","17701.61"
"1622","17652.12"
"1623","17600.89"
"1624","17559.03"
"1625","17537.03"
"1626","17536.93"
"1627","17552.77"
"1628","17577.7"
"1629","17599.47"
"1630","17602.66"
"1631","17576.62"
"1632","17537.45"
"1633","17510.41"
"1634","17510.84"
"1635","17523.1"
"1636","17525.69"
"1637","17508.81"
"1638","17483.66"
"1639","17463.38"
"1640","17454.21"
"1641","17455.09"
"1642","17464.18"
"1643","17475.25"
"1644","17479.29"
"1645","17469.74"
"1646","17454.59"
"1647","17447.04"
"1648","17453.58"
"1649","17459.71"
"1650","17447.06"
"1651","17413.76"
"1652","17386.42"
"1653","17393.25"
"1654","17432.92"
"1655","17474.87"
"1656","17490.37"
"1657","17480.77"
"1658","17464.32"
"1659","17454.54"
"1660","17440.95"
"1661","17405.79"
"1662","17343.94"
"1663","17282.32"
"1664","17252.47"
"1665","17263.87"
"1666","17295.52"
"1667","17324.96"
"1668","17340.42"
"1669","17338.41"
"1670","17317.79"
"1671","17291.99"
"1672","17280.43"
"1673","17290.99"
"1674","17292.87"
"1675","17247.61"
"1676","17151.75"
"1677","17062.01"
"1678","17037.95"
"1679","17074.97"
"1680","17109.24"
"1681","17084.01"
"1682","17019.04"
"1683","16971.44"
"1684","16981.08"
"1685","17019.92"
"1686","17043.72"
"1687","17030.35"
"1688","16999.99"
"1689","16976.48"
"1690","16958.96"
"1691","16922.09"
"1692","16844.45"
"1693","16747.81"
"1694","16675.92"
"1695","16659.11"
"1696","16674.13"
"1697","16684.76"
"1698","16677.17"
"1699","16679.54"
"1700","16722.54"
"1701","16790.93"
"1702","16825.96"
"1703","16778.49"
"1704","16689.12"
"1705","16640.79"
"1706","16686.59"
"1707","16774.16"
"1708","16828.66"
"1709","16816.1"
"1710","16769.53"
"1711","16726.53"
"1712","16695.59"
"1713","16661.75"
"1714","16613.8"
"1715","16568.3"
"1716","16552.49"
"1717","16576.14"
"1718","16601.02"
"1719","16581.85"
"1720","16517.21"
"1721","16461.84"
"1722","16468.54"
"1723","16527.94"
"1724","16592.55"
"1725","16623.77"
"1726","16625.01"
"1727","16611.15"
"1728","16594.3"
"1729","16581.11"
"1730","16576.88"
"1731","16572"
"1732","16543.54"
"1733","16475.81"
"1734","16404.94"
"1735","16388.2"
"1736","16454.2"
"1737","16552.39"
"1738","16619.65"
"1739","16628.91"
"1740","16597.28"
"1741","16545.05"
"1742","16496.82"
"1743","16479.64"
"1744","16507.13"
"1745","16542.63"
"1746","16538.28"
"1747","16482.2"
"1748","16419.29"
"1749","16396.35"
"1750","16418.14"
"1751","16459.82"
"1752","16497.39"
"1753","16514.11"
"1754","16495.46"
"1755","16444.11"
"1756","16395.6"
"1757","16386.77"
"1758","16412.93"
"1759","16434.82"
"1760","16420.43"
"1761","16384.82"
"1762","16359.41"
"1763","16360.84"
"1764","16373.42"
"1765","16377.88"
"1766","16369.64"
"1767","16357.67"
"1768","16349.77"
"1769","16343.34"
"1770","16331.85"
"1771","16316.2"
"1772","16314.66"
"1773","16346.5"
"1774","16398.21"
"1775","16424.66"
"1776","16389.59"
"1777","16321.58"
"1778","16274.56"
"1779","16277.88"
"1780","16303.05"
"1781","16314.92"
"1782","16312.52"
"1783","16327.15"
"1784","16382.3"
"1785","16445.82"
"1786","16464.8"
"1787","16420.04"
"1788","16366.4"
"1789","16364.98"
"1790","16409.9"
"1791","16436.81"
"1792","16394.08"
"1793","16310.12"
"1794","16240"
"1795","16215.64"
"1796","16224.16"
"1797","16247.75"
"1798","16271.66"
"1799","16283.42"
"1800","16272.71"
"1801","16238.78"
"1802","16183.72"
"1803","16122.63"
"1804","16091.32"
"1805","16122.86"
"1806","16198.73"
"1807","16268.53"
"1808","16295.49"
"1809","16292.03"
"1810","16281.01"
"1811","16274.67"
"1812","16272.07"
"1813","16269.71"
"1814","16251.02"
"1815","16193.26"
"1816","16096"
"1817","16015.31"
"1818","16013.09"
"1819","16088.61"
"1820","16183.16"
"1821","16243.15"
"1822","16254.66"
"1823","16217.01"
"1824","16143.75"
"1825","16073.4"
"1826","16043.8"
"1827","16053.78"
"1828","16077.1"
"1829","16091.99"
"1830","16093.7"
"1831","16081.09"
"1832","16052.61"
"1833","16006.25"
"1834","15944.39"
"1835","15899.34"
"1836","15915.62"
"1837","16002.77"
"1838","16096.48"
"1839","16127.56"
"1840","16092.76"
"1841","16037.63"
"1842","16000.24"
"1843","15984.94"
"1844","15987.81"
"1845","15999.43"
"1846","16003.47"
"1847","15987.06"
"1848","15965.47"
"1849","15966.04"
"1850","16000.29"
"1851","16045.92"
"1852","16077.62"
"1853","16088.17"
"1854","16083.39"
"1855","16070.32"
"1856","16059.16"
"1857","16060.27"
"1858","16066.87"
"1859","16052.4"
"1860","15997.84"
"1861","15937.26"
"1862","15924.47"
"1863","15974.94"
"1864","16034.79"
"1865","16048.13"
"1866","16015.35"
"1867","15970.48"
"1868","15941.1"
"1869","15935.23"
"1870","15956.57"
"1871","15991.43"
"1872","16010.45"
"1873","15993.91"
"1874","15966.95"
"1875","15966.33"
"1876","15997.4"
"1877","16024.41"
"1878","16015.01"
"1879","15979.24"
"1880","15944.54"
"1881","15927.68"
"1882","15925.11"
"1883","15931.26"
"1884","15942.13"
"1885","15954.68"
"1886","15964.39"
"1887","15962.73"
"1888","15941.32"
"1889","15904.84"
"1890","15868.58"
"1891","15845.39"
"1892","15837.6"
"1893","15844.86"
"1894","15859.67"
"1895","15866.77"
"1896","15854.56"
"1897","15832.19"
"1898","15815.38"
"1899","15814.28"
"1900","15831.09"
"1901","15864.87"
"1902","15896.87"
"1903","15901.04"
"1904","15873.91"
"1905","15852.94"
"1906","15874.46"
"1907","15923.99"
"1908","15959.81"
"1909","15954.44"
"1910","15913.52"
"1911","15848.87"
"1912","15792.36"
"1913","15789.05"
"1914","15856.66"
"1915","15935.82"
"1916","15957.83"
"1917","15918.17"
"1918","15863.11"
"1919","15827.9"
"1920","15805.97"
"1921","15782.58"
"1922","15754.98"
"1923","15731.4"
"1924","15719.44"
"1925","15722.44"
"1926","15742.23"
"1927","15769.28"
"1928","15782.1"
"1929","15765.15"
"1930","15732.24"
"1931","15704.73"
"1932","15681.82"
"1933","15637.1"
"1934","15555.25"
"1935","15483.33"
"1936","15485.9"
"1937","15556.57"
"1938","15600.05"
"1939","15540.67"
"1940","15439.58"
"1941","15401.93"
"1942","15454.9"
"1943","15522.41"
"1944","15536.08"
"1945","15512.3"
"1946","15496.39"
"1947","15501.57"
"1948","15497.21"
"1949","15459.56"
"1950","15423.05"
"1951","15441.81"
"1952","15516.93"
"1953","15576.83"
"1954","15560.66"
"1955","15500.03"
"1956","15458.39"
"1957","15456.31"
"1958","15456.45"
"1959","15425.07"
"1960","15370.93"
"1961","15317.22"
"1962","15279.31"
"1963","15262.45"
"1964","15268.42"
"1965","15284.35"
"1966","15292.97"
"1967","15289.43"
"1968","15283.84"
"1969","15284.31"
"1970","15285.29"
"1971","15277.58"
"1972","15264.35"
"1973","15262.31"
"1974","15278.34"
"1975","15274.74"
"1976","15204.7"
"1977","15081.46"
"1978","14977.36"
"1979","14950.23"
"1980","14995.32"
"1981","15092.01"
"1982","15190.62"
"1983","15216.51"
"1984","15133"
"1985","15022.71"
"1986","14984.72"
"1987","15025.94"
"1988","15086"
"1989","15115.82"
"1990","15099.14"
"1991","15028.43"
"1992","14934.7"
"1993","14872.2"
"1994","14866.44"
"1995","14883.12"
"1996","14884.29"
"1997","14863.41"
"1998","14829.35"
"1999","14797.32"
"2000","14792.81"
"2001","14832.28"
"2002","14870.68"
"2003","14841.29"
"2004","14745.35"
"2005","14671.18"
"2006","14688.58"
"2007","14755.4"
"2008","14799.13"
"2009","14786"
"2010","14720.26"
"2011","14617.07"
"2012","14522.48"
"2013","14485.77"
"2014","14509.4"
"2015","14561.4"
"2016","14605.72"
"2017","14598.86"
"2018","14507.47"
"2019","14402.15"
"2020","14407.82"
"2021","14544.32"
"2022","14651.88"
"2023","14591.22"
"2024","14455.31"
"2025","14419.63"
"2026","14513.41"
"2027","14590.54"
"2028","14538.6"
"2029","14422.42"
"2030","14346.65"
"2031","14337.1"
"2032","14354.28"
"2033","14366.21"
"2034","14365.91"
"2035","14351.06"
"2036","14326.13"
"2037","14299.3"
"2038","14275.87"
"2039","14256.17"
"2040","14237.79"
"2041","14205.53"
"2042","14140.66"
"2043","14055.58"
"2044","13997.13"
"2045","13996.52"
"2046","14023.85"
"2047","14038.25"
"2048","14031.3"
"2049","14017.54"
"2050","14004.08"
"2051","13981.44"
"2052","13940.65"
"2053","13891.84"
"2054","13853.16"
"2055","13831.24"
"2056","13817.93"
"2057","13807.19"
"2058","13805.61"
"2059","13821.26"
"2060","13835.98"
"2061","13811.36"
"2062","13740"
"2063","13686.12"
"2064","13709.83"
"2065","13765.71"
"2066","13762.11"
"2067","13677.26"
"2068","13580.8"
"2069","13530.77"
"2070","13514.38"
"2071","13502.91"
"2072","13490.72"
"2073","13489.26"
"2074","13501.24"
"2075","13510.11"
"2076","13499.32"
"2077","13468.81"
"2078","13425.5"
"2079","13382.67"
"2080","13360.83"
"2081","13371.73"
"2082","13396.4"
"2083","13410.02"
"2084","13393.99"
"2085","13333.91"
"2086","13243.96"
"2087","13186.6"
"2088","13209.8"
"2089","13263.74"
"2090","13271.02"
"2091","13220.25"
"2092","13158.58"
"2093","13118.73"
"2094","13093.41"
"2095","13071.09"
"2096","13052.78"
"2097","13044.78"
"2098","13043.77"
"2099","13034.81"
"2100","13010.32"
"2101","12989.76"
"2102","12994.44"
"2103","13005.73"
"2104","12981.73"
"2105","12916.04"
"2106","12857.99"
"2107","12848.24"
"2108","12867.77"
"2109","12881.79"
"2110","12864.27"
"2111","12795.97"
"2112","12687.02"
"2113","12603.97"
"2114","12605.06"
"2115","12667.17"
"2116","12740.08"
"2117","12787.12"
"2118","12783.82"
"2119","12724.24"
"2120","12644.01"
"2121","12580.65"
"2122","12545.5"
"2123","12539.02"
"2124","12549.97"
"2125","12555.25"
"2126","12544.3"
"2127","12540.48"
"2128","12564.34"
"2129","12575.57"
"2130","12509.19"
"2131","12369.14"
"2132","12235.85"
"2133","12167.91"
"2134","12151.37"
"2135","12159.31"
"2136","12162.61"
"2137","12132.02"
"2138","12069.4"
"2139","12012.29"
"2140","11984.6"
"2141","11965.22"
"2142","11928.56"
"2143","11877.17"
"2144","11827.05"
"2145","11799.05"
"2146","11819.33"
"2147","11896.26"
"2148","11987.67"
"2149","12046.92"
"2150","12060.44"
"2151","12029.9"
"2152","11963.69"
"2153","11877.34"
"2154","11787.3"
"2155","11711.25"
"2156","11663.04"
"2157","11628.77"
"2158","11584.62"
"2159","11541.97"
"2160","11546.43"
"2161","11612.54"
"2162","11680.63"
"2163","11686.65"
"2164","11602.46"
"2165","11417.2"
"2166","11197.97"
"2167","11077.15"
"2168","11111.82"
"2169","11209.81"
"2170","11277.32"
"2171","11294.56"
"2172","11264.39"
"2173","11201.25"
"2174","11127.61"
"2175","11058.48"
"2176","10996.97"
"2177","10948.31"
"2178","10929.15"
"2179","10952.97"
"2180","10977.82"
"2181","10933.8"
"2182","10836.96"
"2183","10807.78"
"2184","10902.37"
"2185","10983.25"
"2186","10911.99"
"2187","10765.24"
"2188","10699.97"
"2189","10721.82"
"2190","10699.87"
"2191","10589.63"
"2192","10526.14"
"2193","10611.16"
"2194","10697.32"
"2195","10588.68"
"2196","10356.39"
"2197","10239.88"
"2198","10297.88"
"2199","10337.62"
"2200","10233.69"
"2201","10119.72"
"2202","10147.27"
"2203","10246.43"
"2204","10258.19"
"2205","10166.04"
"2206","10085.01"
"2207","10075.39"
"2208","10081.46"
"2209","10050.7"
"2210","10002.65"
"2211","9973.026"
"2212","9962.787"
"2213","9952.473"
"2214","9931.343"
"2215","9899.666"
"2216","9865.598"
"2217","9855.698"
"2218","9882.602"
"2219","9862.201"
"2220","9689.405"
"2221","9454.929"
"2222","9392.389"
"2223","9544.628"
"2224","9662.231"
"2225","9579.277"
"2226","9470.697"
"2227","9532.292"
"2228","9632.605"
"2229","9517.14"
"2230","9244.246"
"2231","9141.08"
"2232","9299.96"
"2233","9393.834"
"2234","9182.037"
"2235","8883.768"
"2236","8782.601"
"2237","8853.357"
"2238","8930.003"
"2239","8952.809"
"2240","8961.871"
"2241","8971.605"
"2242","8942.658"
"2243","8849.564"
"2244","8740.448"
"2245","8670.257"
"2246","8608.945"
"2247","8490.089"
"2248","8344.038"
"2249","8290.933"
"2250","8355.498"
"2251","8385.143"
"2252","8261.603"
"2253","8057.621"
"2254","7878.58"
"2255","7750.524"
"2256","7663.495"
"2257","7609.705"
"2258","7583.167"
"2259","7562.114"
"2260","7498.992"
"2261","7378.048"
"2262","7292.439"
"2263","7328.556"
"2264","7386.902"
"2265","7307.176"
"2266","7127.279"
"2267","7031.863"
"2268","7063.394"
"2269","7061.986"
"2270","6918.243"
"2271","6694.187"
"2272","6475.537"
"2273","6326.584"
"2274","6293.48"
"2275","6299.223"
"2276","6197.232"
"2277","5989.927"
"2278","5843.986"
"2279","5826.442"
"2280","5788.115"
"2281","5610.608"
"2282","5390.619"
"2283","5257.487"
"2284","5201.97"
"2285","5154.529"
"2286","5081.694"
"2287","4979.62"
"2288","4848.192"
"2289","4691.525"
"2290","4529.324"
"2291","4420.745"
"2292","4404.167"
"2293","4384.82"
"2294","4244.018"
"2295","4026.701"
"2296","3863.917"
"2297","3773.06"
"2298","3660.782"
"2299","3495.567"
"2300","3358.118"
