,"Scan 01032"
"400","21221.79"
"401","21196.43"
"402","21161.56"
"403","21124.96"
"404","21094.38"
"405","21076.74"
"406","21072.36"
"407","21078.21"
"408","21091.27"
"409","21108.36"
"410","21123.9"
"411","21130.68"
"412","21121.51"
"413","21089.81"
"414","21040.13"
"415","20987.45"
"416","20947.05"
"417","20933.69"
"418","20948.44"
"419","20975.56"
"420","20998.35"
"421","21000.38"
"422","20974.84"
"423","20930.32"
"424","20876.78"
"425","20824.05"
"426","20779.27"
"427","20744.02"
"428","20719.12"
"429","20705.43"
"430","20702.81"
"431","20708.48"
"432","20719.23"
"433","20731.9"
"434","20743.05"
"435","20748.34"
"436","20743.24"
"437","20723.27"
"438","20686.23"
"439","20639.76"
"440","20594.2"
"441","20559.8"
"442","20544.57"
"443","20544.69"
"444","20552.34"
"445","20559.76"
"446","20559.99"
"447","20551.26"
"448","20533.92"
"449","20508.34"
"450","20475.29"
"451","20438.83"
"452","20404.61"
"453","20378.28"
"454","20364.53"
"455","20358.91"
"456","20351.77"
"457","20333.45"
"458","20295.4"
"459","20242.27"
"460","20187.3"
"461","20143.85"
"462","20124.1"
"463","20124.83"
"464","20131.3"
"465","20128.59"
"466","20102.78"
"467","20055.4"
"468","20000.8"
"469","19953.69"
"470","19928.04"
"471","19925.79"
"472","19937.89"
"473","19954.89"
"474","19967.67"
"475","19972.63"
"476","19971.65"
"477","19966.81"
"478","19960.14"
"479","19952.07"
"480","19941.33"
"481","19926.59"
"482","19906.57"
"483","19881.37"
"484","19852.63"
"485","19822.05"
"486","19791.38"
"487","19763.11"
"488","19740.68"
"489","19727.53"
"490","19726.93"
"491","19736.89"
"492","19749.12"
"493","19755.01"
"494","19746.18"
"495","19720.58"
"496","19683.76"
"497","19641.68"
"498","19600.32"
"499","19566.43"
"500","19547.78"
"501","19552.13"
"502","19586.97"
"503","19652.31"
"504","19739.28"
"505","19838.53"
"506","19941.74"
"507","20069.97"
"508","20278.18"
"509","20622.92"
"510","21159.29"
"511","21910.32"
"512","22863.66"
"513","24005.18"
"514","25318.47"
"515","26728.33"
"516","28097.93"
"517","29288.28"
"518","30163.83"
"519","30649.96"
"520","30731.56"
"521","30396.05"
"522","29635.17"
"523","28522.54"
"524","27205.5"
"525","25833.25"
"526","24549.57"
"527","23421.1"
"528","22451.21"
"529","21641.39"
"530","20991.9"
"531","20485.69"
"532","20093.03"
"533","19784.04"
"534","19530.29"
"535","19318.66"
"536","19146.01"
"537","19009.38"
"538","18905.23"
"539","18824.09"
"540","18753.17"
"541","18679.72"
"542","18592.76"
"543","18495.35"
"544","18397.35"
"545","18308.62"
"546","18237.67"
"547","18184.2"
"548","18144.34"
"549","18114.22"
"550","18090.32"
"551","18070.89"
"552","18054.78"
"553","18040.87"
"554","18027.4"
"555","18009.95"
"556","17983.35"
"557","17942.49"
"558","17885.31"
"559","17820.49"
"560","17759"
"561","17711.73"
"562","17685.54"
"563","17676.21"
"564","17677.65"
"565","17683.8"
"566","17689.49"
"567","17691.31"
"568","17686.15"
"569","17670.91"
"570","17646.17"
"571","17618.63"
"572","17595.52"
"573","17583.86"
"574","17582.98"
"575","17582.29"
"576","17570.57"
"577","17537.15"
"578","17483.87"
"579","17424.97"
"580","17375.19"
"581","17348.24"
"582","17343.69"
"583","17350.37"
"584","17356.92"
"585","17353.01"
"586","17338.04"
"587","17316.95"
"588","17294.72"
"589","17275.96"
"590","17262.82"
"591","17256.48"
"592","17258.1"
"593","17267.72"
"594","17280.21"
"595","17288.96"
"596","17287.34"
"597","17272.1"
"598","17250.51"
"599","17231.97"
"600","17225.79"
"601","17235.32"
"602","17250.73"
"603","17260.47"
"604","17253.18"
"605","17225.47"
"606","17186.24"
"607","17145.41"
"608","17112.63"
"609","17092.56"
"610","17084.47"
"611","17087.38"
"612","17100.2"
"613","17120.17"
"614","17143.34"
"615","17165.75"
"616","17183.67"
"617","17195.28"
"618","17199.69"
"619","17196.05"
"620","17184.06"
"621","17166.4"
"622","17146.69"
"623","17128.53"
"624","17114.66"
"625","17105.04"
"626","17099.09"
"627","17096.21"
"628","17095.49"
"629","17095.38"
"630","17094.28"
"631","17090.6"
"632","17084.33"
"633","17077.46"
"634","17072.11"
"635","17070.31"
"636","17072.7"
"637","17078.79"
"638","17088.04"
"639","17099.68"
"640","17110.55"
"641","17116.27"
"642","17112.48"
"643","17095.85"
"644","17068.17"
"645","17032.76"
"646","16992.98"
"647","16952.94"
"648","16918.94"
"649","16897.7"
"650","16895.8"
"651","16911.91"
"652","16931.35"
"653","16938.23"
"654","16917.46"
"655","16872.77"
"656","16826.92"
"657","16803.44"
"658","16823.01"
"659","16876.23"
"660","16935.68"
"661","16973.72"
"662","16968.56"
"663","16930.07"
"664","16878.91"
"665","16835.71"
"666","16814.61"
"667","16810.67"
"668","16815.44"
"669","16820.55"
"670","16821.88"
"671","16822.24"
"672","16825.08"
"673","16833.64"
"674","16847.26"
"675","16861.55"
"676","16872.06"
"677","16875.07"
"678","16873.82"
"679","16875.12"
"680","16885.76"
"681","16910.18"
"682","16942.38"
"683","16973.57"
"684","16994.99"
"685","17003.33"
"686","17007.56"
"687","17018.28"
"688","17045.73"
"689","17089.84"
"690","17138.23"
"691","17177.8"
"692","17196.7"
"693","17197.02"
"694","17189.79"
"695","17186.16"
"696","17195.28"
"697","17215.9"
"698","17243.36"
"699","17273"
"700","17300.51"
"701","17322.39"
"702","17335.27"
"703","17335.86"
"704","17323.81"
"705","17302.53"
"706","17275.68"
"707","17246.62"
"708","17215.5"
"709","17180.35"
"710","17139.17"
"711","17091.14"
"712","17041.48"
"713","16997.34"
"714","16965.85"
"715","16949.6"
"716","16940.49"
"717","16928.88"
"718","16905.42"
"719","16868.47"
"720","16825.34"
"721","16783.76"
"722","16750.76"
"723","16726.14"
"724","16705.69"
"725","16685.12"
"726","16661.8"
"727","16639.69"
"728","16624.45"
"729","16621.68"
"730","16632.78"
"731","16651.36"
"732","16670.24"
"733","16682.49"
"734","16685.59"
"735","16680.87"
"736","16669.77"
"737","16653.87"
"738","16635.56"
"739","16617.57"
"740","16602.6"
"741","16592.89"
"742","16589.27"
"743","16592.36"
"744","16602.71"
"745","16618.43"
"746","16634.67"
"747","16646.44"
"748","16649.54"
"749","16647.52"
"750","16648.17"
"751","16659.31"
"752","16685.38"
"753","16718.4"
"754","16747.59"
"755","16762.32"
"756","16759.64"
"757","16748.42"
"758","16738.48"
"759","16739.07"
"760","16752.17"
"761","16774.81"
"762","16803.93"
"763","16835.89"
"764","16864.28"
"765","16881.98"
"766","16881.89"
"767","16862.08"
"768","16829.71"
"769","16792.87"
"770","16759.54"
"771","16735.99"
"772","16727.22"
"773","16738.18"
"774","16771.18"
"775","16815.44"
"776","16856.22"
"777","16878.9"
"778","16878.71"
"779","16869.31"
"780","16866.41"
"781","16884.53"
"782","16921.17"
"783","16960.58"
"784","16986.75"
"785","16987.37"
"786","16968.19"
"787","16940.37"
"788","16915.04"
"789","16898.31"
"790","16887.34"
"791","16878.38"
"792","16867.94"
"793","16856.08"
"794","16845.48"
"795","16838.84"
"796","16838.41"
"797","16844.47"
"798","16856.8"
"799","16875.13"
"800","16897.03"
"801","16916.74"
"802","16928.18"
"803","16925.95"
"804","16911.44"
"805","16890.3"
"806","16868.18"
"807","16850.25"
"808","16839.87"
"809","16840.04"
"810","16853.66"
"811","16879.91"
"812","16913.38"
"813","16948.34"
"814","16979.45"
"815","17004.19"
"816","17021.4"
"817","17029.92"
"818","17028.83"
"819","17017.89"
"820","16996.91"
"821","16965.99"
"822","16930.79"
"823","16902.03"
"824","16890.61"
"825","16904.31"
"826","16934.52"
"827","16967.29"
"828","16988.78"
"829","16992.11"
"830","16982.44"
"831","16966.11"
"832","16949.31"
"833","16936.77"
"834","16932.28"
"835","16939.61"
"836","16960.02"
"837","16986.61"
"838","17010.86"
"839","17024.43"
"840","17024.66"
"841","17015.07"
"842","16999.46"
"843","16981.8"
"844","16967"
"845","16960.31"
"846","16966.94"
"847","16988.1"
"848","17017.47"
"849","17047.95"
"850","17072.84"
"851","17090.16"
"852","17100.91"
"853","17106.18"
"854","17107.68"
"855","17109.17"
"856","17114.84"
"857","17128.66"
"858","17150.17"
"859","17174.35"
"860","17195.97"
"861","17211.1"
"862","17222.76"
"863","17236.25"
"864","17256.82"
"865","17286.71"
"866","17323.35"
"867","17363.79"
"868","17405.08"
"869","17444.57"
"870","17479.77"
"871","17508.16"
"872","17529.25"
"873","17547.34"
"874","17567.43"
"875","17594.25"
"876","17628.81"
"877","17669.3"
"878","17713.8"
"879","17759.45"
"880","17799.95"
"881","17828.23"
"882","17837.56"
"883","17830.58"
"884","17819.96"
"885","17818.85"
"886","17837.29"
"887","17868.93"
"888","17902.07"
"889","17925.17"
"890","17934.74"
"891","17939.07"
"892","17947.42"
"893","17967.03"
"894","17990.2"
"895","18002.52"
"896","17989.67"
"897","17948.79"
"898","17899.39"
"899","17863.54"
"900","17860.7"
"901","17883.66"
"902","17909.57"
"903","17915.35"
"904","17889.17"
"905","17847.34"
"906","17810.51"
"907","17797.88"
"908","17808.18"
"909","17825.08"
"910","17831.88"
"911","17817.94"
"912","17791.57"
"913","17764.86"
"914","17749.43"
"915","17748.24"
"916","17756.54"
"917","17769.34"
"918","17782.25"
"919","17793.39"
"920","17801.44"
"921","17805.22"
"922","17806.57"
"923","17810.44"
"924","17821.93"
"925","17844.72"
"926","17876.04"
"927","17911.34"
"928","17946.11"
"929","17977.63"
"930","18005.28"
"931","18028.56"
"932","18047.52"
"933","18064.93"
"934","18084.44"
"935","18109.6"
"936","18140.04"
"937","18170.39"
"938","18194.96"
"939","18208.81"
"940","18211.37"
"941","18203.55"
"942","18186.31"
"943","18163.04"
"944","18140.42"
"945","18125.35"
"946","18123.03"
"947","18128.57"
"948","18133.5"
"949","18129.48"
"950","18114.98"
"951","18097.97"
"952","18087.11"
"953","18089.1"
"954","18099.06"
"955","18107.93"
"956","18106.78"
"957","18092.68"
"958","18071.04"
"959","18047.85"
"960","18028.7"
"961","18016.7"
"962","18014.11"
"963","18023.12"
"964","18043.54"
"965","18072.08"
"966","18105.19"
"967","18138.55"
"968","18163.63"
"969","18170.44"
"970","18149.45"
"971","18105.31"
"972","18060.31"
"973","18037.82"
"974","18054.62"
"975","18095.38"
"976","18135.05"
"977","18149.21"
"978","18132.9"
"979","18102.88"
"980","18077.04"
"981","18068.81"
"982","18072.45"
"983","18077.1"
"984","18072.42"
"985","18059.29"
"986","18049.61"
"987","18055.76"
"988","18084.66"
"989","18123.61"
"990","18155.47"
"991","18164.19"
"992","18152.01"
"993","18136.59"
"994","18136.03"
"995","18161.44"
"996","18203.07"
"997","18247.38"
"998","18281.54"
"999","18302.6"
"1000","18314.37"
"1001","18320.82"
"1002","18325.76"
"1003","18332.65"
"1004","18344.87"
"1005","18365.84"
"1006","18398.19"
"1007","18439.42"
"1008","18484.9"
"1009","18530.02"
"1010","18570.34"
"1011","18601.74"
"1012","18620.11"
"1013","18623.14"
"1014","18618.3"
"1015","18616.37"
"1016","18627.78"
"1017","18652.14"
"1018","18676.32"
"1019","18686.46"
"1020","18673.61"
"1021","18649.71"
"1022","18632.18"
"1023","18637.65"
"1024","18666.24"
"1025","18702.76"
"1026","18731.42"
"1027","18741.42"
"1028","18737.58"
"1029","18727.77"
"1030","18719.46"
"1031","18714.78"
"1032","18712.07"
"1033","18709.62"
"1034","18707.54"
"1035","18710.16"
"1036","18722.35"
"1037","18747.91"
"1038","18781.33"
"1039","18812.37"
"1040","18830.83"
"1041","18833.95"
"1042","18830.8"
"1043","18831.51"
"1044","18843.98"
"1045","18863.65"
"1046","18881.64"
"1047","18889.34"
"1048","18884.83"
"1049","18873.6"
"1050","18861.5"
"1051","18853.45"
"1052","18851.06"
"1053","18855.21"
"1054","18866.42"
"1055","18879.88"
"1056","18887"
"1057","18879.13"
"1058","18855.73"
"1059","18834.09"
"1060","18833.85"
"1061","18870.47"
"1062","18927.85"
"1063","18975.52"
"1064","18983.53"
"1065","18946.69"
"1066","18893.18"
"1067","18853.53"
"1068","18850"
"1069","18869.97"
"1070","18891.54"
"1071","18893.86"
"1072","18872.22"
"1073","18835"
"1074","18790.97"
"1075","18747.85"
"1076","18710.84"
"1077","18684.85"
"1078","18674.01"
"1079","18676.64"
"1080","18688.44"
"1081","18705.01"
"1082","18720.5"
"1083","18727.15"
"1084","18717.06"
"1085","18686.81"
"1086","18650.19"
"1087","18625.09"
"1088","18627.72"
"1089","18651.46"
"1090","18673.57"
"1091","18671.07"
"1092","18636.49"
"1093","18592.26"
"1094","18564.23"
"1095","18572.68"
"1096","18605.6"
"1097","18639.36"
"1098","18651.08"
"1099","18635.68"
"1100","18605.61"
"1101","18574.06"
"1102","18551.93"
"1103","18543.93"
"1104","18553.76"
"1105","18583.48"
"1106","18621.74"
"1107","18650.75"
"1108","18653.07"
"1109","18627.31"
"1110","18592.2"
"1111","18567.77"
"1112","18568.45"
"1113","18589.55"
"1114","18622.37"
"1115","18658.04"
"1116","18686.47"
"1117","18696.79"
"1118","18678.42"
"1119","18636.34"
"1120","18598.52"
"1121","18594.79"
"1122","18643.87"
"1123","18720.59"
"1124","18788.96"
"1125","18815.93"
"1126","18803.54"
"1127","18776.79"
"1128","18760.84"
"1129","18766"
"1130","18778.83"
"1131","18783.79"
"1132","18769.97"
"1133","18745.82"
"1134","18724.79"
"1135","18719.35"
"1136","18729.72"
"1137","18747.95"
"1138","18766.01"
"1139","18780.74"
"1140","18796.69"
"1141","18819.05"
"1142","18849.54"
"1143","18875.91"
"1144","18882.47"
"1145","18855.95"
"1146","18810.07"
"1147","18775.38"
"1148","18782.13"
"1149","18833.46"
"1150","18893.55"
"1151","18923.59"
"1152","18899.44"
"1153","18847.99"
"1154","18807.12"
"1155","18810.26"
"1156","18850.13"
"1157","18897.79"
"1158","18924.68"
"1159","18923.41"
"1160","18911.98"
"1161","18909.87"
"1162","18928.62"
"1163","18958.04"
"1164","18984.21"
"1165","18995.23"
"1166","18992.88"
"1167","18984.63"
"1168","18977.72"
"1169","18974.07"
"1170","18970.71"
"1171","18964.5"
"1172","18955.07"
"1173","18947.64"
"1174","18948.1"
"1175","18960.21"
"1176","18977.79"
"1177","18991.7"
"1178","18993.78"
"1179","18987.01"
"1180","18981.65"
"1181","18987.92"
"1182","19008.81"
"1183","19037.41"
"1184","19066.07"
"1185","19088.51"
"1186","19102.54"
"1187","19106.66"
"1188","19100.32"
"1189","19089.03"
"1190","19080.84"
"1191","19083.48"
"1192","19098.18"
"1193","19120.61"
"1194","19146.21"
"1195","19171.13"
"1196","19192.71"
"1197","19208.4"
"1198","19216.29"
"1199","19216.84"
"1200","19211.08"
"1201","19200.7"
"1202","19192.95"
"1203","19197.87"
"1204","19224.94"
"1205","19269.98"
"1206","19315.15"
"1207","19342.1"
"1208","19342.62"
"1209","19328.32"
"1210","19313.15"
"1211","19307.92"
"1212","19310.77"
"1213","19316.64"
"1214","19320.72"
"1215","19320.39"
"1216","19314.24"
"1217","19301.07"
"1218","19285.39"
"1219","19277.38"
"1220","19287.34"
"1221","19317.31"
"1222","19353.77"
"1223","19381.51"
"1224","19390.55"
"1225","19390.16"
"1226","19394.07"
"1227","19413.3"
"1228","19438.28"
"1229","19450.04"
"1230","19430.92"
"1231","19386.84"
"1232","19343.76"
"1233","19327.99"
"1234","19348.63"
"1235","19388.34"
"1236","19427.52"
"1237","19452.31"
"1238","19465.3"
"1239","19472.02"
"1240","19477.35"
"1241","19482.79"
"1242","19488.66"
"1243","19495.2"
"1244","19502.03"
"1245","19508.36"
"1246","19513.33"
"1247","19514.98"
"1248","19510.1"
"1249","19495.45"
"1250","19472.78"
"1251","19453.37"
"1252","19449.6"
"1253","19468.71"
"1254","19500.14"
"1255","19529.51"
"1256","19544.56"
"1257","19546.75"
"1258","19542.99"
"1259","19539.99"
"1260","19542.04"
"1261","19551.8"
"1262","19571.69"
"1263","19598.82"
"1264","19624.22"
"1265","19638.66"
"1266","19639.41"
"1267","19636.12"
"1268","19639.8"
"1269","19656.98"
"1270","19679.37"
"1271","19695.69"
"1272","19697.18"
"1273","19689.43"
"1274","19683.11"
"1275","19687.93"
"1276","19703.28"
"1277","19722.57"
"1278","19739.18"
"1279","19748.63"
"1280","19748.43"
"1281","19736.28"
"1282","19714.51"
"1283","19692.42"
"1284","19679.88"
"1285","19682.69"
"1286","19696.9"
"1287","19717.09"
"1288","19738.19"
"1289","19756.38"
"1290","19768.14"
"1291","19770.62"
"1292","19765.2"
"1293","19755.01"
"1294","19743.51"
"1295","19738.19"
"1296","19749.05"
"1297","19785.41"
"1298","19840.74"
"1299","19893.47"
"1300","19921.71"
"1301","19916.65"
"1302","19888.2"
"1303","19847.73"
"1304","19805.58"
"1305","19769.88"
"1306","19748.48"
"1307","19746"
"1308","19756.35"
"1309","19771.21"
"1310","19784.32"
"1311","19800.06"
"1312","19826.19"
"1313","19868.44"
"1314","19916.24"
"1315","19951.17"
"1316","19956.13"
"1317","19931.77"
"1318","19891.09"
"1319","19847.43"
"1320","19816.02"
"1321","19813.94"
"1322","19857.89"
"1323","19941.87"
"1324","20028.01"
"1325","20076.18"
"1326","20068.51"
"1327","20031.55"
"1328","19997.1"
"1329","19988.13"
"1330","20002.54"
"1331","20033.78"
"1332","20074.54"
"1333","20114.32"
"1334","20141.84"
"1335","20148.45"
"1336","20141.04"
"1337","20132.16"
"1338","20132.65"
"1339","20139"
"1340","20140.5"
"1341","20127.32"
"1342","20101.66"
"1343","20073.86"
"1344","20054.16"
"1345","20046.96"
"1346","20051.42"
"1347","20066.38"
"1348","20086.18"
"1349","20099.79"
"1350","20096.04"
"1351","20074.05"
"1352","20049.07"
"1353","20037.69"
"1354","20047.4"
"1355","20067.22"
"1356","20083.86"
"1357","20087.56"
"1358","20078.12"
"1359","20056.91"
"1360","20026.78"
"1361","19995.84"
"1362","19973.35"
"1363","19966.04"
"1364","19969.07"
"1365","19974.23"
"1366","19974.97"
"1367","19974.67"
"1368","19980.4"
"1369","19997.17"
"1370","20014.22"
"1371","20013.4"
"1372","19979.37"
"1373","19926.16"
"1374","19884.9"
"1375","19884.33"
"1376","19918.36"
"1377","19956.05"
"1378","19967.36"
"1379","19948.64"
"1380","19919.01"
"1381","19897.82"
"1382","19890.79"
"1383","19889.52"
"1384","19885.1"
"1385","19874.59"
"1386","19862.39"
"1387","19853.25"
"1388","19846.98"
"1389","19836.13"
"1390","19812.8"
"1391","19777.91"
"1392","19747.57"
"1393","19739.29"
"1394","19759.46"
"1395","19792.26"
"1396","19819.2"
"1397","19828.08"
"1398","19821.34"
"1399","19803.46"
"1400","19778.54"
"1401","19749.51"
"1402","19719.14"
"1403","19691.54"
"1404","19675.07"
"1405","19678.89"
"1406","19707.81"
"1407","19751.37"
"1408","19795.7"
"1409","19829.53"
"1410","19851.77"
"1411","19863.85"
"1412","19865.95"
"1413","19852.53"
"1414","19816.51"
"1415","19755.3"
"1416","19688.58"
"1417","19642.91"
"1418","19638.81"
"1419","19663.84"
"1420","19694.41"
"1421","19710.18"
"1422","19710.03"
"1423","19699.87"
"1424","19685.68"
"1425","19673.64"
"1426","19670"
"1427","19678.96"
"1428","19690.48"
"1429","19688.59"
"1430","19661.05"
"1431","19623.29"
"1432","19602.9"
"1433","19622.11"
"1434","19661.45"
"1435","19682.16"
"1436","19651.82"
"1437","19589.26"
"1438","19537.84"
"1439","19535.25"
"1440","19571.18"
"1441","19611.79"
"1442","19626.98"
"1443","19619.35"
"1444","19607.79"
"1445","19608.89"
"1446","19618.32"
"1447","19621.28"
"1448","19604.91"
"1449","19573.95"
"1450","19541.89"
"1451","19520.54"
"1452","19506.83"
"1453","19490.25"
"1454","19462.49"
"1455","19433.61"
"1456","19422.7"
"1457","19444.9"
"1458","19483.76"
"1459","19507.78"
"1460","19490.83"
"1461","19448.55"
"1462","19415.79"
"1463","19421.15"
"1464","19447.26"
"1465","19456.52"
"1466","19418.06"
"1467","19347.55"
"1468","19280.12"
"1469","19245.94"
"1470","19243.48"
"1471","19258.75"
"1472","19278.64"
"1473","19295.44"
"1474","19303.37"
"1475","19299.06"
"1476","19292.15"
"1477","19296.65"
"1478","19320.42"
"1479","19341.38"
"1480","19328.23"
"1481","19261.91"
"1482","19177.42"
"1483","19124.72"
"1484","19138.14"
"1485","19190.14"
"1486","19237.94"
"1487","19250.14"
"1488","19235.5"
"1489","19211.53"
"1490","19192.11"
"1491","19179.89"
"1492","19175.39"
"1493","19175.97"
"1494","19170.47"
"1495","19146.37"
"1496","19101.2"
"1497","19055.89"
"1498","19034.6"
"1499","19048.56"
"1500","19082.93"
"1501","19119.78"
"1502","19145.3"
"1503","19152.72"
"1504","19136.15"
"1505","19099.82"
"1506","19062.85"
"1507","19045.14"
"1508","19050.99"
"1509","19065.17"
"1510","19071.71"
"1511","19066.92"
"1512","19060.07"
"1513","19060.46"
"1514","19065.85"
"1515","19063.86"
"1516","19042.79"
"1517","19005.83"
"1518","18967.04"
"1519","18939.74"
"1520","18926.04"
"1521","18921.34"
"1522","18920.86"
"1523","18919.05"
"1524","18910.03"
"1525","18888.97"
"1526","18857.71"
"1527","18820.73"
"1528","18783.42"
"1529","18755.56"
"1530","18748.3"
"1531","18768.1"
"1532","18803.74"
"1533","18839.78"
"1534","18863.68"
"1535","18871.35"
"1536","18860.25"
"1537","18833.03"
"1538","18803.96"
"1539","18788.75"
"1540","18792.22"
"1541","18800.37"
"1542","18797.65"
"1543","18779.68"
"1544","18756.87"
"1545","18740.34"
"1546","18734.95"
"1547","18739.06"
"1548","18750.38"
"1549","18760.19"
"1550","18754.86"
"1551","18723.25"
"1552","18681.27"
"1553","18660.49"
"1554","18686.37"
"1555","18739.54"
"1556","18781.42"
"1557","18781.99"
"1558","18754.13"
"1559","18724.05"
"1560","18710.21"
"1561","18703.94"
"1562","18690.62"
"1563","18661.79"
"1564","18624.16"
"1565","18586.74"
"1566","18555.18"
"1567","18529.26"
"1568","18508.16"
"1569","18491.68"
"1570","18480.38"
"1571","18474.83"
"1572","18474.87"
"1573","18479.71"
"1574","18488.52"
"1575","18500.84"
"1576","18516.43"
"1577","18534.02"
"1578","18544.78"
"1579","18536.56"
"1580","18501.63"
"1581","18453.7"
"1582","18412.92"
"1583","18394.04"
"1584","18394.53"
"1585","18408.47"
"1586","18428.47"
"1587","18444.1"
"1588","18444.71"
"1589","18429.91"
"1590","18413.83"
"1591","18411.09"
"1592","18422.51"
"1593","18435.69"
"1594","18438.59"
"1595","18430.28"
"1596","18416.97"
"1597","18404.67"
"1598","18396.85"
"1599","18395.92"
"1600","18403.01"
"1601","18413.7"
"1602","18422.07"
"1603","18423.3"
"1604","18415.48"
"1605","18397.16"
"1606","18367.4"
"1607","18326.15"
"1608","18274.01"
"1609","18228.15"
"1610","18223.89"
"1611","18292.59"
"1612","18400.79"
"1613","18469.37"
"1614","18432.3"
"1615","18326.6"
"1616","18234.87"
"1617","18219.8"
"1618","18258.13"
"1619","18303.7"
"1620","18322.37"
"1621","18310.4"
"1622","18268.93"
"1623","18208.38"
"1624","18153.38"
"1625","18128.93"
"1626","18140.48"
"1627","18174.92"
"1628","18218.25"
"1629","18255.23"
"1630","18269.89"
"1631","18249.78"
"1632","18202"
"1633","18140.38"
"1634","18078.34"
"1635","18027.98"
"1636","18001.07"
"1637","18000.77"
"1638","18014.79"
"1639","18029.46"
"1640","18037.37"
"1641","18037.8"
"1642","18030.19"
"1643","18012.68"
"1644","17982.49"
"1645","17939.72"
"1646","17900.91"
"1647","17888.5"
"1648","17912.55"
"1649","17944.48"
"1650","17948.47"
"1651","17914.03"
"1652","17874.35"
"1653","17865.47"
"1654","17887.57"
"1655","17905.35"
"1656","17886.56"
"1657","17843.65"
"1658","17814.2"
"1659","17826.02"
"1660","17858.02"
"1661","17874.23"
"1662","17852.88"
"1663","17808.38"
"1664","17760.63"
"1665","17722.44"
"1666","17696.81"
"1667","17685.88"
"1668","17689.41"
"1669","17705.39"
"1670","17730.83"
"1671","17756.63"
"1672","17771.13"
"1673","17766.35"
"1674","17746.61"
"1675","17718.84"
"1676","17691.79"
"1677","17677.46"
"1678","17687.17"
"1679","17712.47"
"1680","17726.64"
"1681","17706.62"
"1682","17665.04"
"1683","17631.97"
"1684","17628.03"
"1685","17636.91"
"1686","17633.46"
"1687","17605.8"
"1688","17567.52"
"1689","17534.82"
"1690","17519.35"
"1691","17528.17"
"1692","17565.04"
"1693","17606.77"
"1694","17616.42"
"1695","17571.19"
"1696","17504.34"
"1697","17462.74"
"1698","17470.69"
"1699","17510.2"
"1700","17558.83"
"1701","17600.28"
"1702","17624"
"1703","17621.44"
"1704","17597.81"
"1705","17564.84"
"1706","17533.55"
"1707","17512.27"
"1708","17508.66"
"1709","17524.52"
"1710","17551.97"
"1711","17582.08"
"1712","17603.23"
"1713","17601.67"
"1714","17567.97"
"1715","17520.25"
"1716","17487.26"
"1717","17484.8"
"1718","17493.05"
"1719","17486.63"
"1720","17459.97"
"1721","17432.92"
"1722","17425.04"
"1723","17434.66"
"1724","17447.11"
"1725","17450.08"
"1726","17442.65"
"1727","17427.1"
"1728","17409.24"
"1729","17401.73"
"1730","17417.25"
"1731","17453.49"
"1732","17494.75"
"1733","17526.11"
"1734","17541.53"
"1735","17538.58"
"1736","17515.43"
"1737","17472"
"1738","17408.88"
"1739","17339.9"
"1740","17295.12"
"1741","17301.22"
"1742","17342.56"
"1743","17379.9"
"1744","17384.45"
"1745","17367.54"
"1746","17349.71"
"1747","17341.56"
"1748","17337.94"
"1749","17333.27"
"1750","17334.64"
"1751","17358.03"
"1752","17410.66"
"1753","17457.37"
"1754","17450.67"
"1755","17379.67"
"1756","17303.49"
"1757","17285.76"
"1758","17331.15"
"1759","17395.26"
"1760","17436.63"
"1761","17439.26"
"1762","17396.08"
"1763","17316.54"
"1764","17246.07"
"1765","17232.64"
"1766","17278.28"
"1767","17342.52"
"1768","17387.29"
"1769","17399.65"
"1770","17376.25"
"1771","17325.05"
"1772","17280.25"
"1773","17278.2"
"1774","17319.34"
"1775","17369.48"
"1776","17396.92"
"1777","17395.14"
"1778","17367.52"
"1779","17323.16"
"1780","17284.5"
"1781","17274.93"
"1782","17296.38"
"1783","17330.51"
"1784","17359.42"
"1785","17373.03"
"1786","17364.22"
"1787","17337.36"
"1788","17322.01"
"1789","17348.67"
"1790","17403.47"
"1791","17433.79"
"1792","17399.45"
"1793","17334.6"
"1794","17298.2"
"1795","17316.65"
"1796","17353.48"
"1797","17367.4"
"1798","17352.32"
"1799","17328.83"
"1800","17314.03"
"1801","17306.29"
"1802","17298.82"
"1803","17288.79"
"1804","17279.78"
"1805","17275.94"
"1806","17281.33"
"1807","17299.97"
"1808","17331.95"
"1809","17363.7"
"1810","17379.06"
"1811","17375.53"
"1812","17367.76"
"1813","17368.31"
"1814","17364.69"
"1815","17332.69"
"1816","17266.16"
"1817","17204.85"
"1818","17193.87"
"1819","17239.17"
"1820","17310.46"
"1821","17376.31"
"1822","17407.13"
"1823","17374.18"
"1824","17277.7"
"1825","17169.09"
"1826","17101.57"
"1827","17087.56"
"1828","17113.31"
"1829","17163.24"
"1830","17217.21"
"1831","17254.42"
"1832","17265.12"
"1833","17252.61"
"1834","17222.02"
"1835","17186"
"1836","17160.34"
"1837","17155.89"
"1838","17173.18"
"1839","17210.54"
"1840","17254.64"
"1841","17283.47"
"1842","17282.36"
"1843","17266.03"
"1844","17255.89"
"1845","17259.02"
"1846","17264.36"
"1847","17261.08"
"1848","17248.5"
"1849","17230.32"
"1850","17211.02"
"1851","17196.76"
"1852","17193.4"
"1853","17199.15"
"1854","17206.75"
"1855","17211.86"
"1856","17221.11"
"1857","17243.17"
"1858","17272.94"
"1859","17289.39"
"1860","17275.34"
"1861","17242.67"
"1862","17214.22"
"1863","17207.59"
"1864","17230.73"
"1865","17287.54"
"1866","17349.74"
"1867","17369.8"
"1868","17322.46"
"1869","17246.11"
"1870","17188.71"
"1871","17166.8"
"1872","17168.7"
"1873","17182.18"
"1874","17197.2"
"1875","17204.46"
"1876","17203.12"
"1877","17203.29"
"1878","17213.58"
"1879","17227.08"
"1880","17230.53"
"1881","17218.34"
"1882","17199.37"
"1883","17184.63"
"1884","17190.81"
"1885","17237.92"
"1886","17324.87"
"1887","17394.27"
"1888","17383.73"
"1889","17303.16"
"1890","17221.27"
"1891","17189.26"
"1892","17185.9"
"1893","17174.06"
"1894","17146.57"
"1895","17128.7"
"1896","17140.91"
"1897","17170.16"
"1898","17192.86"
"1899","17197.41"
"1900","17189.18"
"1901","17175.09"
"1902","17164.04"
"1903","17165.6"
"1904","17177.77"
"1905","17177.54"
"1906","17143.55"
"1907","17090.49"
"1908","17052.38"
"1909","17051.37"
"1910","17082.24"
"1911","17135.13"
"1912","17190.51"
"1913","17222.44"
"1914","17215.37"
"1915","17183.27"
"1916","17144.84"
"1917","17112.66"
"1918","17094.49"
"1919","17094.71"
"1920","17106.86"
"1921","17122.12"
"1922","17130.77"
"1923","17122.28"
"1924","17093.53"
"1925","17070.73"
"1926","17085.71"
"1927","17129.53"
"1928","17150.53"
"1929","17111.45"
"1930","17048.72"
"1931","17018.07"
"1932","17030.31"
"1933","17044.13"
"1934","17026.25"
"1935","16998.14"
"1936","16997.34"
"1937","17026.14"
"1938","17042.63"
"1939","17013.92"
"1940","16970.88"
"1941","16964.76"
"1942","17003.72"
"1943","17038.87"
"1944","17028.83"
"1945","16997.25"
"1946","16989.76"
"1947","17014.31"
"1948","17027.42"
"1949","16991.13"
"1950","16920.98"
"1951","16851.36"
"1952","16802.46"
"1953","16774.96"
"1954","16768.3"
"1955","16783.02"
"1956","16819.8"
"1957","16867.97"
"1958","16901.66"
"1959","16900.31"
"1960","16878.83"
"1961","16863.75"
"1962","16859.18"
"1963","16840.19"
"1964","16788.13"
"1965","16726.6"
"1966","16692.24"
"1967","16696.99"
"1968","16723.08"
"1969","16751.19"
"1970","16763.5"
"1971","16743.27"
"1972","16693.81"
"1973","16640.46"
"1974","16602.13"
"1975","16565.6"
"1976","16510.25"
"1977","16439.99"
"1978","16382.81"
"1979","16361.58"
"1980","16376.56"
"1981","16421.67"
"1982","16470.13"
"1983","16477.34"
"1984","16422.17"
"1985","16357.38"
"1986","16344.97"
"1987","16375.96"
"1988","16389.71"
"1989","16354.09"
"1990","16312.63"
"1991","16313.98"
"1992","16333.48"
"1993","16302.44"
"1994","16199.27"
"1995","16100.65"
"1996","16084.19"
"1997","16134.81"
"1998","16192.43"
"1999","16212.86"
"2000","16178.6"
"2001","16083.65"
"2002","15977.76"
"2003","15930.47"
"2004","15951"
"2005","15971.37"
"2006","15939.21"
"2007","15897.52"
"2008","15912.85"
"2009","15967.6"
"2010","15961.48"
"2011","15839.65"
"2012","15710.79"
"2013","15707"
"2014","15806.98"
"2015","15876.8"
"2016","15840.69"
"2017","15768.67"
"2018","15742.2"
"2019","15750.96"
"2020","15736.02"
"2021","15677.5"
"2022","15622.65"
"2023","15616.08"
"2024","15646.04"
"2025","15679.66"
"2026","15684.47"
"2027","15628.48"
"2028","15505.1"
"2029","15409.23"
"2030","15452.31"
"2031","15592.79"
"2032","15662.37"
"2033","15566.82"
"2034","15415.68"
"2035","15339"
"2036","15345.97"
"2037","15378.61"
"2038","15395.66"
"2039","15385.56"
"2040","15343.69"
"2041","15288.85"
"2042","15247.46"
"2043","15223.49"
"2044","15196"
"2045","15152.3"
"2046","15113.18"
"2047","15104.36"
"2048","15119.69"
"2049","15130.5"
"2050","15121.69"
"2051","15107.79"
"2052","15104.91"
"2053","15113.53"
"2054","15127.27"
"2055","15139.34"
"2056","15142.4"
"2057","15134.84"
"2058","15138.19"
"2059","15176.92"
"2060","15231.47"
"2061","15248.01"
"2062","15206.02"
"2063","15162.54"
"2064","15173.07"
"2065","15200.4"
"2066","15166.61"
"2067","15049.73"
"2068","14900.92"
"2069","14768.64"
"2070","14670.45"
"2071","14615.33"
"2072","14597.09"
"2073","14598.22"
"2074","14601.05"
"2075","14588.21"
"2076","14547.36"
"2077","14499.55"
"2078","14478.44"
"2079","14483.88"
"2080","14476.85"
"2081","14431.24"
"2082","14371.28"
"2083","14329.43"
"2084","14313.16"
"2085","14314.31"
"2086","14320.75"
"2087","14313.96"
"2088","14280.71"
"2089","14237.81"
"2090","14210.46"
"2091","14201.9"
"2092","14195.97"
"2093","14181.42"
"2094","14160.72"
"2095","14139.56"
"2096","14132.49"
"2097","14156.96"
"2098","14194.9"
"2099","14185.57"
"2100","14094.61"
"2101","13984.17"
"2102","13929.36"
"2103","13928.72"
"2104","13935.52"
"2105","13925.46"
"2106","13910.2"
"2107","13898.92"
"2108","13876.16"
"2109","13821.86"
"2110","13747.75"
"2111","13689.15"
"2112","13662.35"
"2113","13645.62"
"2114","13618.95"
"2115","13595.73"
"2116","13598.61"
"2117","13609.25"
"2118","13572.9"
"2119","13475.68"
"2120","13400.49"
"2121","13423.95"
"2122","13492.87"
"2123","13505.72"
"2124","13446.12"
"2125","13384.6"
"2126","13366.35"
"2127","13360.49"
"2128","13329.64"
"2129","13278.67"
"2130","13230.69"
"2131","13195.09"
"2132","13165.97"
"2133","13136.84"
"2134","13101.87"
"2135","13056.04"
"2136","13000.26"
"2137","12938.42"
"2138","12881.13"
"2139","12846.66"
"2140","12844.97"
"2141","12860.89"
"2142","12875.46"
"2143","12875.5"
"2144","12850.94"
"2145","12805.04"
"2146","12756.22"
"2147","12718.4"
"2148","12690.49"
"2149","12668.59"
"2150","12646.93"
"2151","12619.27"
"2152","12589.4"
"2153","12571.92"
"2154","12571.78"
"2155","12567.66"
"2156","12539.71"
"2157","12506.58"
"2158","12500.84"
"2159","12508.45"
"2160","12470.01"
"2161","12366.13"
"2162","12273.11"
"2163","12260.65"
"2164","12282.33"
"2165","12254.04"
"2166","12163.52"
"2167","12059.18"
"2168","11976.71"
"2169","11923.42"
"2170","11904.57"
"2171","11930.52"
"2172","12008.54"
"2173","12086.18"
"2174","12070.5"
"2175","11946.2"
"2176","11820.32"
"2177","11778.5"
"2178","11787.6"
"2179","11791.09"
"2180","11769.99"
"2181","11726.21"
"2182","11670.87"
"2183","11626.03"
"2184","11601.2"
"2185","11569.8"
"2186","11505.38"
"2187","11423.76"
"2188","11356.7"
"2189","11308.85"
"2190","11260.42"
"2191","11213.36"
"2192","11213.99"
"2193","11289.33"
"2194","11354.21"
"2195","11304.07"
"2196","11184.37"
"2197","11134.9"
"2198","11186.86"
"2199","11220.56"
"2200","11152.04"
"2201","11038.92"
"2202","10955.31"
"2203","10902.22"
"2204","10850.53"
"2205","10801.44"
"2206","10784.1"
"2207","10795.42"
"2208","10767.84"
"2209","10653.75"
"2210","10524.48"
"2211","10474.03"
"2212","10494.32"
"2213","10517.42"
"2214","10504.05"
"2215","10451.06"
"2216","10372.85"
"2217","10323.09"
"2218","10344.94"
"2219","10384.63"
"2220","10359.01"
"2221","10261.76"
"2222","10143.84"
"2223","10054.08"
"2224","10035.82"
"2225","10099.78"
"2226","10155"
"2227","10108.29"
"2228","9993.109"
"2229","9894.172"
"2230","9842.023"
"2231","9819.967"
"2232","9802.017"
"2233","9749.009"
"2234","9643.441"
"2235","9550.195"
"2236","9537.273"
"2237","9550.573"
"2238","9483.58"
"2239","9341.568"
"2240","9233.967"
"2241","9211.091"
"2242","9207.969"
"2243","9163.898"
"2244","9080.64"
"2245","8975.842"
"2246","8877.419"
"2247","8816.157"
"2248","8778.34"
"2249","8708.991"
"2250","8592.625"
"2251","8487.411"
"2252","8436.743"
"2253","8402.887"
"2254","8337.47"
"2255","8250.271"
"2256","8176.086"
"2257","8121.347"
"2258","8067.682"
"2259","7998.927"
"2260","7903.947"
"2261","7777.972"
"2262","7635.072"
"2263","7495.339"
"2264","7393.087"
"2265","7363.023"
"2266","7361.717"
"2267","7288.353"
"2268","7119.115"
"2269","6939.029"
"2270","6816.09"
"2271","6752.355"
"2272","6729.207"
"2273","6676.412"
"2274","6519.335"
"2275","6316.247"
"2276","6201.528"
"2277","6178.304"
"2278","6104.649"
"2279","5914.386"
"2280","5707.797"
"2281","5578.537"
"2282","5519.17"
"2283","5497.208"
"2284","5472.064"
"2285","5401.104"
"2286","5270.517"
"2287","5090.333"
"2288","4890.356"
"2289","4727.701"
"2290","4638.072"
"2291","4595.777"
"2292","4561.919"
"2293","4481.719"
"2294","4305.139"
"2295","4075.964"
"2296","3886.683"
"2297","3748.716"
"2298","3594.755"
"2299","3412.183"
"2300","3286.208"
