,"Scan 01042"
"400","8215.884"
"401","8174.802"
"402","8128.207"
"403","8089.973"
"404","8073.876"
"405","8091.414"
"406","8135.224"
"407","8188.435"
"408","8234.225"
"409","8257.009"
"410","8255.844"
"411","8239.957"
"412","8218.715"
"413","8201.18"
"414","8191.532"
"415","8189.399"
"416","8194.235"
"417","8205.462"
"418","8221.203"
"419","8237.979"
"420","8252.241"
"421","8260.481"
"422","8260.988"
"423","8254.905"
"424","8243.634"
"425","8228.561"
"426","8211.308"
"427","8193.994"
"428","8178.788"
"429","8167.839"
"430","8162.048"
"431","8158.973"
"432","8155.625"
"433","8149.044"
"434","8137.322"
"435","8122.163"
"436","8106.034"
"437","8091.391"
"438","8080.261"
"439","8072.885"
"440","8069.016"
"441","8068.406"
"442","8070.925"
"443","8077.076"
"444","8087.572"
"445","8103.123"
"446","8123.469"
"447","8141.814"
"448","8148.702"
"449","8134.729"
"450","8092.149"
"451","8026.477"
"452","7949.716"
"453","7873.837"
"454","7810.138"
"455","7763.878"
"456","7736.843"
"457","7730.759"
"458","7746.879"
"459","7780.818"
"460","7824.483"
"461","7869.762"
"462","7908.767"
"463","7936.009"
"464","7947.809"
"465","7940.552"
"466","7911.134"
"467","7864.692"
"468","7813.223"
"469","7768.86"
"470","7743.103"
"471","7736.318"
"472","7738.687"
"473","7740.073"
"474","7730.79"
"475","7709.963"
"476","7685.466"
"477","7665.49"
"478","7657.949"
"479","7664.619"
"480","7680.79"
"481","7701.456"
"482","7721.671"
"483","7737.182"
"484","7744.505"
"485","7740.216"
"486","7721.077"
"487","7688.871"
"488","7651.217"
"489","7616.024"
"490","7590.935"
"491","7576.556"
"492","7565.112"
"493","7548.377"
"494","7518.385"
"495","7474.207"
"496","7423.403"
"497","7374"
"498","7333.823"
"499","7305.623"
"500","7286.037"
"501","7271.355"
"502","7257.861"
"503","7240.875"
"504","7214.566"
"505","7173.069"
"506","7110.863"
"507","7031.893"
"508","6951.031"
"509","6883.671"
"510","6844.619"
"511","6834.512"
"512","6838.323"
"513","6840.289"
"514","6825.185"
"515","6789.164"
"516","6740.285"
"517","6687.125"
"518","6638.083"
"519","6598.591"
"520","6571.179"
"521","6558.241"
"522","6561.805"
"523","6577.005"
"524","6592.767"
"525","6597.856"
"526","6581.842"
"527","6546.731"
"528","6504.709"
"529","6468.205"
"530","6448.748"
"531","6446.197"
"532","6451.835"
"533","6456.791"
"534","6452.821"
"535","6438.624"
"536","6417.408"
"537","6392.442"
"538","6366.888"
"539","6343.017"
"540","6322.592"
"541","6307.362"
"542","6298.805"
"543","6296.304"
"544","6298.221"
"545","6302.917"
"546","6308.69"
"547","6313.348"
"548","6314.504"
"549","6309.784"
"550","6297.497"
"551","6279.631"
"552","6259.404"
"553","6240.021"
"554","6224.129"
"555","6211.968"
"556","6203.129"
"557","6197.201"
"558","6193.841"
"559","6192.93"
"560","6194.404"
"561","6198.195"
"562","6203.421"
"563","6206.96"
"564","6205.328"
"565","6195.067"
"566","6175.906"
"567","6154.399"
"568","6137.96"
"569","6133.883"
"570","6142.943"
"571","6154.997"
"572","6158.903"
"573","6143.831"
"574","6109.257"
"575","6068.045"
"576","6033.895"
"577","6019.972"
"578","6028.343"
"579","6049.997"
"580","6075.478"
"581","6095.672"
"582","6105.951"
"583","6105.084"
"584","6091.933"
"585","6066.174"
"586","6035.49"
"587","6012.062"
"588","6008.078"
"589","6032.546"
"590","6073.391"
"591","6109.891"
"592","6121.384"
"593","6093.582"
"594","6041.604"
"595","5989.064"
"596","5959.477"
"597","5967.491"
"598","5999.473"
"599","6036.18"
"600","6058.488"
"601","6055.78"
"602","6036.181"
"603","6010.302"
"604","5988.635"
"605","5977.122"
"606","5974.734"
"607","5979.858"
"608","5990.849"
"609","6005.145"
"610","6019.21"
"611","6029.471"
"612","6032.491"
"613","6026.549"
"614","6011.181"
"615","5985.956"
"616","5951.291"
"617","5914.629"
"618","5886.857"
"619","5878.848"
"620","5897.548"
"621","5929.94"
"622","5956.671"
"623","5958.455"
"624","5924.189"
"625","5868.827"
"626","5812.465"
"627","5775.064"
"628","5766.944"
"629","5779.067"
"630","5800.097"
"631","5818.89"
"632","5830.141"
"633","5836.057"
"634","5839.342"
"635","5842.651"
"636","5848.095"
"637","5857.322"
"638","5871.964"
"639","5893.111"
"640","5917.119"
"641","5937.913"
"642","5949.414"
"643","5947.051"
"644","5933.662"
"645","5914.367"
"646","5894.275"
"647","5877.256"
"648","5863.667"
"649","5853.241"
"650","5845.713"
"651","5840.964"
"652","5839.117"
"653","5840.323"
"654","5844.639"
"655","5849.994"
"656","5852.17"
"657","5846.858"
"658","5830.693"
"659","5810.194"
"660","5797.826"
"661","5806.097"
"662","5843.478"
"663","5896.355"
"664","5943.589"
"665","5964.101"
"666","5946.206"
"667","5905.968"
"668","5864.533"
"669","5842.808"
"670","5849.293"
"671","5872.13"
"672","5897.608"
"673","5912.412"
"674","5910.657"
"675","5893.373"
"676","5861.854"
"677","5818.404"
"678","5774.31"
"679","5745.502"
"680","5747.914"
"681","5790.815"
"682","5854.513"
"683","5911.447"
"684","5934.206"
"685","5911.336"
"686","5867.047"
"687","5830.323"
"688","5829.347"
"689","5868.363"
"690","5923.033"
"691","5967.397"
"692","5977.658"
"693","5954.369"
"694","5913.693"
"695","5872.013"
"696","5843.366"
"697","5829.631"
"698","5828.713"
"699","5838.513"
"700","5855.625"
"701","5873.312"
"702","5884.33"
"703","5881.664"
"704","5866.187"
"705","5848.881"
"706","5841.371"
"707","5853.872"
"708","5880.066"
"709","5902.761"
"710","5904.609"
"711","5873.385"
"712","5823.036"
"713","5775.852"
"714","5754.046"
"715","5769.431"
"716","5809.298"
"717","5857.422"
"718","5897.911"
"719","5923.838"
"720","5938.599"
"721","5946.146"
"722","5950.268"
"723","5953.151"
"724","5956.082"
"725","5960.337"
"726","5966.393"
"727","5971.473"
"728","5971.968"
"729","5964.314"
"730","5949.015"
"731","5934.023"
"732","5928.085"
"733","5939.277"
"734","5963.983"
"735","5988.413"
"736","5998.468"
"737","5983.369"
"738","5953.818"
"739","5929.081"
"740","5928.391"
"741","5960.847"
"742","6008.134"
"743","6047.365"
"744","6056.31"
"745","6033.25"
"746","6001.272"
"747","5984.913"
"748","6005.543"
"749","6055.043"
"750","6109.108"
"751","6143.302"
"752","6140.702"
"753","6111.773"
"754","6073.232"
"755","6041.656"
"756","6026.861"
"757","6028.306"
"758","6044.568"
"759","6073.955"
"760","6111.362"
"761","6149.377"
"762","6180.549"
"763","6198.487"
"764","6201.463"
"765","6189.05"
"766","6160.885"
"767","6121.739"
"768","6085.527"
"769","6067.083"
"770","6080.077"
"771","6121.36"
"772","6175.038"
"773","6224.918"
"774","6258.061"
"775","6277.375"
"776","6290.609"
"777","6305.461"
"778","6325.046"
"779","6343.904"
"780","6355.647"
"781","6354.484"
"782","6343.636"
"783","6333.279"
"784","6333.763"
"785","6351.734"
"786","6375.998"
"787","6389.982"
"788","6377.28"
"789","6334.787"
"790","6283.241"
"791","6245.842"
"792","6244.202"
"793","6278.705"
"794","6334.474"
"795","6396.307"
"796","6450.024"
"797","6485.767"
"798","6494.851"
"799","6468.819"
"800","6413.008"
"801","6354.342"
"802","6321.605"
"803","6340.208"
"804","6399.345"
"805","6466.113"
"806","6507.32"
"807","6502.153"
"808","6472.584"
"809","6449.809"
"810","6464.264"
"811","6519.836"
"812","6587.148"
"813","6634.745"
"814","6636.017"
"815","6602.164"
"816","6562.173"
"817","6545.078"
"818","6566.406"
"819","6607.471"
"820","6644.259"
"821","6653.899"
"822","6636.062"
"823","6611.193"
"824","6600.504"
"825","6619.556"
"826","6654.413"
"827","6681.531"
"828","6677.611"
"829","6638.001"
"830","6590.148"
"831","6564.651"
"832","6588.811"
"833","6653.714"
"834","6728.008"
"835","6780.026"
"836","6787.932"
"837","6761.566"
"838","6717.131"
"839","6670.648"
"840","6633.388"
"841","6611.441"
"842","6610.629"
"843","6634.7"
"844","6674.867"
"845","6717.674"
"846","6749.743"
"847","6766.227"
"848","6778.144"
"849","6798.228"
"850","6837.55"
"851","6888.098"
"852","6929.696"
"853","6941.977"
"854","6914.726"
"855","6869.748"
"856","6835.152"
"857","6837.894"
"858","6877.574"
"859","6925.822"
"860","6953.002"
"861","6936.727"
"862","6892.92"
"863","6850.147"
"864","6836.671"
"865","6861.271"
"866","6901.932"
"867","6933.914"
"868","6935.501"
"869","6911.392"
"870","6879.955"
"871","6859.648"
"872","6863.745"
"873","6893.049"
"874","6946.535"
"875","7022.423"
"876","7107.762"
"877","7181.078"
"878","7220.683"
"879","7213.292"
"880","7175.811"
"881","7131.917"
"882","7104.769"
"883","7103.806"
"884","7123.702"
"885","7158.403"
"886","7201.213"
"887","7242.085"
"888","7269.878"
"889","7273.691"
"890","7254.834"
"891","7232.553"
"892","7227.517"
"893","7256.716"
"894","7309.881"
"895","7364.525"
"896","7398.202"
"897","7400.558"
"898","7384.76"
"899","7366.687"
"900","7360.725"
"901","7365.925"
"902","7372.34"
"903","7369.923"
"904","7354.753"
"905","7338.315"
"906","7334.475"
"907","7355.694"
"908","7394.77"
"909","7430.014"
"910","7439.403"
"911","7411.52"
"912","7368.412"
"913","7338.717"
"914","7349.528"
"915","7398.751"
"916","7458.344"
"917","7499.355"
"918","7501.15"
"919","7475.042"
"920","7440"
"921","7414.631"
"922","7408.317"
"923","7420.873"
"924","7451.673"
"925","7497.955"
"926","7547.353"
"927","7584.802"
"928","7595.661"
"929","7578.629"
"930","7548.046"
"931","7519.143"
"932","7504.892"
"933","7506.769"
"934","7522.618"
"935","7550.164"
"936","7582.872"
"937","7608.759"
"938","7615.479"
"939","7593.766"
"940","7551.417"
"941","7502.091"
"942","7459.307"
"943","7430.37"
"944","7414.143"
"945","7408.891"
"946","7412.666"
"947","7422.289"
"948","7434.146"
"949","7444.651"
"950","7451.774"
"951","7455.654"
"952","7456.585"
"953","7454.725"
"954","7449.413"
"955","7439.691"
"956","7424.687"
"957","7407.15"
"958","7394.844"
"959","7395.9"
"960","7415.967"
"961","7446.541"
"962","7474.103"
"963","7485.396"
"964","7478.158"
"965","7464.736"
"966","7458.491"
"967","7469.527"
"968","7490.506"
"969","7508.278"
"970","7509.989"
"971","7493.514"
"972","7470.013"
"973","7451.474"
"974","7447.259"
"975","7453.971"
"976","7464.352"
"977","7471.191"
"978","7468.838"
"979","7453.384"
"980","7421.014"
"981","7371.278"
"982","7318.051"
"983","7279.015"
"984","7271.108"
"985","7294.441"
"986","7332.569"
"987","7368.336"
"988","7389.506"
"989","7401.557"
"990","7413.951"
"991","7435.575"
"992","7465.441"
"993","7494.258"
"994","7512.483"
"995","7515.666"
"996","7514.395"
"997","7522.031"
"998","7550.679"
"999","7596.252"
"1000","7643.432"
"1001","7676.688"
"1002","7686.71"
"1003","7678.899"
"1004","7660.764"
"1005","7639.833"
"1006","7622.375"
"1007","7606.245"
"1008","7585.829"
"1009","7555.631"
"1010","7516.617"
"1011","7479.023"
"1012","7453.813"
"1013","7449.62"
"1014","7462.42"
"1015","7483.909"
"1016","7505.864"
"1017","7523.1"
"1018","7533.982"
"1019","7537.086"
"1020","7532.211"
"1021","7524.348"
"1022","7519.856"
"1023","7524.88"
"1024","7541.015"
"1025","7565.648"
"1026","7596.011"
"1027","7629.129"
"1028","7661.411"
"1029","7689.139"
"1030","7708.912"
"1031","7721.526"
"1032","7730.719"
"1033","7740.284"
"1034","7751.653"
"1035","7760.905"
"1036","7763.372"
"1037","7755.725"
"1038","7746.056"
"1039","7748.244"
"1040","7775.997"
"1041","7827.932"
"1042","7878.553"
"1043","7900.189"
"1044","7872.405"
"1045","7815.039"
"1046","7761.838"
"1047","7745.555"
"1048","7770.778"
"1049","7811.22"
"1050","7839.001"
"1051","7835.606"
"1052","7815.599"
"1053","7800.848"
"1054","7811.678"
"1055","7847.013"
"1056","7890.258"
"1057","7924.479"
"1058","7937.906"
"1059","7930.071"
"1060","7901.991"
"1061","7856.268"
"1062","7807.306"
"1063","7774.884"
"1064","7778.424"
"1065","7820.649"
"1066","7881.804"
"1067","7940.538"
"1068","7979.291"
"1069","7996.513"
"1070","7994.88"
"1071","7977.378"
"1072","7951.979"
"1073","7930.677"
"1074","7925.574"
"1075","7941.178"
"1076","7964.294"
"1077","7979.195"
"1078","7972.818"
"1079","7952.428"
"1080","7934.658"
"1081","7935.864"
"1082","7959.323"
"1083","7991.334"
"1084","8017.058"
"1085","8025.44"
"1086","8019.965"
"1087","8007.6"
"1088","7994.864"
"1089","7982.266"
"1090","7966.066"
"1091","7942.473"
"1092","7913.456"
"1093","7892.057"
"1094","7892.6"
"1095","7925.16"
"1096","7975.187"
"1097","8019.271"
"1098","8034.861"
"1099","8019.376"
"1100","7989.917"
"1101","7964.418"
"1102","7954.205"
"1103","7952.981"
"1104","7951.549"
"1105","7941.956"
"1106","7926.361"
"1107","7911.806"
"1108","7905.253"
"1109","7909.284"
"1110","7920.948"
"1111","7936.958"
"1112","7954.084"
"1113","7969.331"
"1114","7979.753"
"1115","7982.403"
"1116","7974.351"
"1117","7952.674"
"1118","7914.613"
"1119","7866.11"
"1120","7825.953"
"1121","7813.986"
"1122","7842.493"
"1123","7893.939"
"1124","7943.432"
"1125","7968.107"
"1126","7969.254"
"1127","7963.944"
"1128","7969.345"
"1129","7990.456"
"1130","8012.88"
"1131","8020.47"
"1132","8001.894"
"1133","7965.807"
"1134","7926.073"
"1135","7895.786"
"1136","7878.597"
"1137","7871.875"
"1138","7872.87"
"1139","7878.12"
"1140","7883.063"
"1141","7883.033"
"1142","7874.681"
"1143","7859.902"
"1144","7841.896"
"1145","7823.821"
"1146","7808.333"
"1147","7797.776"
"1148","7794.468"
"1149","7799.743"
"1150","7813.515"
"1151","7835.583"
"1152","7864.044"
"1153","7891.075"
"1154","7907.571"
"1155","7905.672"
"1156","7888.864"
"1157","7866.673"
"1158","7848.661"
"1159","7843.257"
"1160","7857.559"
"1161","7898.567"
"1162","7964.295"
"1163","8028.069"
"1164","8058.995"
"1165","8033.062"
"1166","7973.052"
"1167","7921.208"
"1168","7917.916"
"1169","7964.729"
"1170","8027.329"
"1171","8070.147"
"1172","8074.639"
"1173","8056.462"
"1174","8035.392"
"1175","8027.344"
"1176","8030.166"
"1177","8036.432"
"1178","8039.345"
"1179","8039.639"
"1180","8042.954"
"1181","8054.858"
"1182","8073.699"
"1183","8087.931"
"1184","8085.29"
"1185","8060.15"
"1186","8026.557"
"1187","8002.19"
"1188","8001.866"
"1189","8020.843"
"1190","8046.215"
"1191","8065.575"
"1192","8076.143"
"1193","8083.518"
"1194","8093.546"
"1195","8109.913"
"1196","8132.478"
"1197","8160.711"
"1198","8192.873"
"1199","8222.694"
"1200","8242.825"
"1201","8247.477"
"1202","8244.015"
"1203","8246.403"
"1204","8268.039"
"1205","8307.662"
"1206","8349.432"
"1207","8376.914"
"1208","8380.881"
"1209","8366.238"
"1210","8339.529"
"1211","8307.138"
"1212","8274.779"
"1213","8248.002"
"1214","8231.485"
"1215","8222.256"
"1216","8213.384"
"1217","8198.336"
"1218","8180.41"
"1219","8172.619"
"1220","8188.307"
"1221","8230.593"
"1222","8283.484"
"1223","8328.891"
"1224","8353.334"
"1225","8360.415"
"1226","8357.663"
"1227","8352.397"
"1228","8350.227"
"1229","8355.982"
"1230","8373.914"
"1231","8398.194"
"1232","8414.444"
"1233","8408.254"
"1234","8379.45"
"1235","8349.756"
"1236","8342.761"
"1237","8369.896"
"1238","8407.818"
"1239","8426.994"
"1240","8405.839"
"1241","8366.727"
"1242","8347.122"
"1243","8380.592"
"1244","8456.611"
"1245","8536.985"
"1246","8584.059"
"1247","8587.668"
"1248","8567.83"
"1249","8546.061"
"1250","8536.354"
"1251","8538.278"
"1252","8549.765"
"1253","8567.66"
"1254","8585.053"
"1255","8594.226"
"1256","8589.27"
"1257","8575.928"
"1258","8564.536"
"1259","8564.805"
"1260","8578.355"
"1261","8601.308"
"1262","8629.624"
"1263","8657.867"
"1264","8679.011"
"1265","8685.996"
"1266","8677.97"
"1267","8665.886"
"1268","8662.022"
"1269","8673.487"
"1270","8690.531"
"1271","8699.965"
"1272","8692.322"
"1273","8679.266"
"1274","8679.945"
"1275","8710.824"
"1276","8760.503"
"1277","8801.196"
"1278","8806.165"
"1279","8775.272"
"1280","8733.501"
"1281","8706.532"
"1282","8703.451"
"1283","8708.504"
"1284","8703.915"
"1285","8679.105"
"1286","8640.784"
"1287","8598.203"
"1288","8561.13"
"1289","8541.375"
"1290","8551.238"
"1291","8598.761"
"1292","8664.127"
"1293","8716.368"
"1294","8727.657"
"1295","8705.848"
"1296","8681.125"
"1297","8682.891"
"1298","8716.245"
"1299","8763.189"
"1300","8804.911"
"1301","8828.638"
"1302","8830.219"
"1303","8806.215"
"1304","8761.744"
"1305","8720.388"
"1306","8708.155"
"1307","8739.509"
"1308","8790.672"
"1309","8829.945"
"1310","8832.982"
"1311","8813.194"
"1312","8796.063"
"1313","8803.688"
"1314","8830.994"
"1315","8859.871"
"1316","8873.398"
"1317","8871.219"
"1318","8864.536"
"1319","8864.5"
"1320","8875.478"
"1321","8895.077"
"1322","8920.537"
"1323","8945.101"
"1324","8956.4"
"1325","8941.712"
"1326","8897.844"
"1327","8840.581"
"1328","8787.972"
"1329","8754.114"
"1330","8741.881"
"1331","8752.175"
"1332","8783.915"
"1333","8827.939"
"1334","8873.025"
"1335","8908.378"
"1336","8925.803"
"1337","8918.028"
"1338","8880.507"
"1339","8831.603"
"1340","8801.193"
"1341","8816.223"
"1342","8865.646"
"1343","8912.593"
"1344","8921.314"
"1345","8888.022"
"1346","8837.838"
"1347","8796.513"
"1348","8775.943"
"1349","8771.462"
"1350","8777.365"
"1351","8783.703"
"1352","8773.891"
"1353","8730.872"
"1354","8654.307"
"1355","8578.084"
"1356","8540.271"
"1357","8560.882"
"1358","8611.459"
"1359","8655.485"
"1360","8666.967"
"1361","8656.996"
"1362","8644.829"
"1363","8645.372"
"1364","8653.445"
"1365","8658.101"
"1366","8650.438"
"1367","8633.873"
"1368","8616.375"
"1369","8605.25"
"1370","8602.526"
"1371","8607.765"
"1372","8620.176"
"1373","8635.551"
"1374","8647.681"
"1375","8650.655"
"1376","8642.904"
"1377","8625.942"
"1378","8601.664"
"1379","8577.396"
"1380","8565.163"
"1381","8576.365"
"1382","8603.036"
"1383","8617.1"
"1384","8590.449"
"1385","8526.845"
"1386","8469.396"
"1387","8463.006"
"1388","8518.272"
"1389","8595.719"
"1390","8652.14"
"1391","8665.279"
"1392","8648.826"
"1393","8619.977"
"1394","8591.39"
"1395","8566.664"
"1396","8548.306"
"1397","8539.899"
"1398","8547.483"
"1399","8577.451"
"1400","8628.579"
"1401","8679.217"
"1402","8704.304"
"1403","8689.123"
"1404","8650.879"
"1405","8612.925"
"1406","8593.767"
"1407","8594.828"
"1408","8613.791"
"1409","8645.761"
"1410","8675.646"
"1411","8685.805"
"1412","8665.091"
"1413","8631.256"
"1414","8610.1"
"1415","8621.4"
"1416","8655.136"
"1417","8692.104"
"1418","8715.356"
"1419","8720.281"
"1420","8706.426"
"1421","8675.466"
"1422","8641.641"
"1423","8623.806"
"1424","8636.682"
"1425","8668.411"
"1426","8696.668"
"1427","8702.09"
"1428","8685.996"
"1429","8658.361"
"1430","8629.25"
"1431","8609.11"
"1432","8608.552"
"1433","8635.714"
"1434","8679.77"
"1435","8721.125"
"1436","8743.145"
"1437","8753.228"
"1438","8770.251"
"1439","8809.582"
"1440","8857.09"
"1441","8884.171"
"1442","8867.193"
"1443","8825.081"
"1444","8797.979"
"1445","8820.384"
"1446","8877.518"
"1447","8929.839"
"1448","8941.803"
"1449","8913.482"
"1450","8862.827"
"1451","8807.125"
"1452","8756.823"
"1453","8718.968"
"1454","8699.567"
"1455","8696.25"
"1456","8702.556"
"1457","8711.758"
"1458","8715.322"
"1459","8703.85"
"1460","8670.393"
"1461","8626.711"
"1462","8593.171"
"1463","8585.734"
"1464","8588.036"
"1465","8569.502"
"1466","8506.731"
"1467","8425.747"
"1468","8373.178"
"1469","8385.541"
"1470","8434.462"
"1471","8466.132"
"1472","8435.736"
"1473","8351.83"
"1474","8242.411"
"1475","8135.585"
"1476","8059.791"
"1477","8043.583"
"1478","8101.969"
"1479","8183.426"
"1480","8216.046"
"1481","8150.949"
"1482","8041.255"
"1483","7968.292"
"1484","7987.01"
"1485","8047.99"
"1486","8076.017"
"1487","8023.998"
"1488","7943.362"
"1489","7907.092"
"1490","7956.791"
"1491","8037.457"
"1492","8075.596"
"1493","8030.139"
"1494","7947.083"
"1495","7886.818"
"1496","7882.949"
"1497","7906.634"
"1498","7920.282"
"1499","7905.594"
"1500","7883.088"
"1501","7877.713"
"1502","7896.004"
"1503","7912.7"
"1504","7899.864"
"1505","7855.235"
"1506","7814.407"
"1507","7815.042"
"1508","7858.944"
"1509","7903.059"
"1510","7902.951"
"1511","7852.379"
"1512","7785.424"
"1513","7736.935"
"1514","7719.506"
"1515","7726.063"
"1516","7748.604"
"1517","7775.694"
"1518","7793.375"
"1519","7789.09"
"1520","7765.86"
"1521","7736.089"
"1522","7711.452"
"1523","7696.487"
"1524","7692.258"
"1525","7698.576"
"1526","7707.477"
"1527","7707.97"
"1528","7692.618"
"1529","7671.451"
"1530","7659.857"
"1531","7667.294"
"1532","7680.799"
"1533","7682.107"
"1534","7662.142"
"1535","7638.551"
"1536","7633.75"
"1537","7655.37"
"1538","7678.057"
"1539","7672.246"
"1540","7630.636"
"1541","7584.166"
"1542","7566.899"
"1543","7585.504"
"1544","7610.414"
"1545","7610.794"
"1546","7585.395"
"1547","7562.971"
"1548","7571.361"
"1549","7603.758"
"1550","7626.585"
"1551","7609.931"
"1552","7568.318"
"1553","7542.102"
"1554","7565.071"
"1555","7622.31"
"1556","7678.009"
"1557","7702.089"
"1558","7693.481"
"1559","7660.081"
"1560","7611.113"
"1561","7560.408"
"1562","7522.798"
"1563","7505.463"
"1564","7496.667"
"1565","7481.894"
"1566","7456.745"
"1567","7434.655"
"1568","7430.609"
"1569","7449.252"
"1570","7482.143"
"1571","7519.911"
"1572","7551.672"
"1573","7565.163"
"1574","7549.904"
"1575","7516.709"
"1576","7490.069"
"1577","7490.065"
"1578","7502.59"
"1579","7498.302"
"1580","7457.23"
"1581","7404.859"
"1582","7380.342"
"1583","7407.925"
"1584","7464.597"
"1585","7518.045"
"1586","7546.534"
"1587","7550.601"
"1588","7533.797"
"1589","7508.534"
"1590","7499.811"
"1591","7531.791"
"1592","7589.393"
"1593","7619.727"
"1594","7574.5"
"1595","7477.674"
"1596","7399.993"
"1597","7401.355"
"1598","7460.443"
"1599","7521.482"
"1600","7541.625"
"1601","7534.264"
"1602","7527.862"
"1603","7538.628"
"1604","7549.982"
"1605","7540.153"
"1606","7506.886"
"1607","7481.073"
"1608","7495.64"
"1609","7550.163"
"1610","7607.657"
"1611","7631.874"
"1612","7621.368"
"1613","7599.234"
"1614","7586.595"
"1615","7586.265"
"1616","7592.979"
"1617","7602.152"
"1618","7612.308"
"1619","7622.79"
"1620","7632.224"
"1621","7637.421"
"1622","7635.021"
"1623","7628.337"
"1624","7630.948"
"1625","7656.319"
"1626","7696.654"
"1627","7723.917"
"1628","7713.493"
"1629","7683.903"
"1630","7678.8"
"1631","7730.349"
"1632","7805.315"
"1633","7848.008"
"1634","7826.128"
"1635","7780.239"
"1636","7764.736"
"1637","7803.608"
"1638","7866.239"
"1639","7917.184"
"1640","7944.156"
"1641","7959.524"
"1642","7975.982"
"1643","7996.407"
"1644","8017.478"
"1645","8036.364"
"1646","8053.619"
"1647","8070.997"
"1648","8088.236"
"1649","8098.773"
"1650","8094.903"
"1651","8076.515"
"1652","8056.607"
"1653","8048.917"
"1654","8053.647"
"1655","8057.629"
"1656","8048.964"
"1657","8033.806"
"1658","8028.458"
"1659","8042.08"
"1660","8048.445"
"1661","8010.605"
"1662","7916.563"
"1663","7817.696"
"1664","7774.386"
"1665","7802.592"
"1666","7856.927"
"1667","7889.567"
"1668","7884.215"
"1669","7848.714"
"1670","7792.271"
"1671","7729.05"
"1672","7675.281"
"1673","7642.332"
"1674","7625.259"
"1675","7615.708"
"1676","7604.053"
"1677","7578.51"
"1678","7528.178"
"1679","7464.547"
"1680","7419.786"
"1681","7421.961"
"1682","7459.06"
"1683","7499.513"
"1684","7516.553"
"1685","7502.619"
"1686","7454.846"
"1687","7378.821"
"1688","7296.248"
"1689","7230.019"
"1690","7188.005"
"1691","7163.203"
"1692","7148.032"
"1693","7135.552"
"1694","7119.141"
"1695","7094.934"
"1696","7069.903"
"1697","7053.619"
"1698","7048.623"
"1699","7044.24"
"1700","7028.829"
"1701","7001.319"
"1702","6970.663"
"1703","6945.458"
"1704","6928.342"
"1705","6919.143"
"1706","6917.539"
"1707","6922.738"
"1708","6933.786"
"1709","6945.768"
"1710","6947.275"
"1711","6927.165"
"1712","6888.582"
"1713","6846.234"
"1714","6813.892"
"1715","6797.212"
"1716","6798.73"
"1717","6814.439"
"1718","6822.458"
"1719","6798.645"
"1720","6749.487"
"1721","6720.702"
"1722","6754.006"
"1723","6818.863"
"1724","6840.374"
"1725","6768.354"
"1726","6664.59"
"1727","6621.267"
"1728","6673.607"
"1729","6747.252"
"1730","6759.632"
"1731","6711.252"
"1732","6677.079"
"1733","6719.706"
"1734","6800.91"
"1735","6841.265"
"1736","6795.925"
"1737","6715.764"
"1738","6666.863"
"1739","6673.634"
"1740","6709.438"
"1741","6745.86"
"1742","6767.911"
"1743","6768.053"
"1744","6743.478"
"1745","6708.745"
"1746","6682.343"
"1747","6672.855"
"1748","6673.241"
"1749","6675.438"
"1750","6676.236"
"1751","6675.833"
"1752","6674.298"
"1753","6670.737"
"1754","6663.962"
"1755","6651.259"
"1756","6627.014"
"1757","6586.393"
"1758","6543.42"
"1759","6527.816"
"1760","6561.104"
"1761","6615.831"
"1762","6647.533"
"1763","6634.893"
"1764","6607.216"
"1765","6599.174"
"1766","6617.911"
"1767","6645.136"
"1768","6662.527"
"1769","6657.691"
"1770","6620.54"
"1771","6556.333"
"1772","6506.157"
"1773","6514.027"
"1774","6575.145"
"1775","6637.665"
"1776","6655.566"
"1777","6632.635"
"1778","6592.148"
"1779","6552.458"
"1780","6520.185"
"1781","6500.281"
"1782","6497.316"
"1783","6515.498"
"1784","6555.721"
"1785","6598.867"
"1786","6618.344"
"1787","6603.06"
"1788","6575.988"
"1789","6563.348"
"1790","6567.225"
"1791","6568.655"
"1792","6551.708"
"1793","6520.81"
"1794","6487.219"
"1795","6461.746"
"1796","6454.277"
"1797","6473.33"
"1798","6508.513"
"1799","6535.114"
"1800","6534.086"
"1801","6513.535"
"1802","6489.093"
"1803","6471.065"
"1804","6461.209"
"1805","6460.68"
"1806","6472.328"
"1807","6500.061"
"1808","6540.598"
"1809","6565.715"
"1810","6542.835"
"1811","6479.495"
"1812","6433.454"
"1813","6454.983"
"1814","6510.268"
"1815","6526.012"
"1816","6462.769"
"1817","6367.613"
"1818","6299.506"
"1819","6282.618"
"1820","6308.908"
"1821","6366.8"
"1822","6432.578"
"1823","6478.579"
"1824","6488.22"
"1825","6464.511"
"1826","6413.039"
"1827","6346.086"
"1828","6280.264"
"1829","6232.71"
"1830","6221.988"
"1831","6265.777"
"1832","6343.253"
"1833","6388.442"
"1834","6347.491"
"1835","6266.762"
"1836","6233.877"
"1837","6285.018"
"1838","6347.489"
"1839","6341.099"
"1840","6277.257"
"1841","6235.217"
"1842","6273.972"
"1843","6367.576"
"1844","6469.643"
"1845","6538.626"
"1846","6539.126"
"1847","6448.695"
"1848","6334.351"
"1849","6301.505"
"1850","6387.854"
"1851","6486.724"
"1852","6482.01"
"1853","6384.3"
"1854","6295.648"
"1855","6290.863"
"1856","6338.288"
"1857","6383.021"
"1858","6396.944"
"1859","6382.832"
"1860","6348.179"
"1861","6318.794"
"1862","6327.172"
"1863","6377.874"
"1864","6424.982"
"1865","6422.287"
"1866","6377.182"
"1867","6329.054"
"1868","6305.459"
"1869","6299.215"
"1870","6297.512"
"1871","6296.743"
"1872","6301.547"
"1873","6315.576"
"1874","6336.791"
"1875","6361.454"
"1876","6380.703"
"1877","6378.967"
"1878","6345.921"
"1879","6309.813"
"1880","6314.558"
"1881","6368.903"
"1882","6415.498"
"1883","6396.971"
"1884","6332.644"
"1885","6287.216"
"1886","6301.433"
"1887","6350.453"
"1888","6399.155"
"1889","6422.079"
"1890","6401.6"
"1891","6330.319"
"1892","6238.304"
"1893","6163.96"
"1894","6132.105"
"1895","6152.781"
"1896","6225.823"
"1897","6302.438"
"1898","6319.227"
"1899","6265.387"
"1900","6204.585"
"1901","6195.372"
"1902","6220.74"
"1903","6231.972"
"1904","6206.051"
"1905","6166.703"
"1906","6139.64"
"1907","6123.059"
"1908","6100.421"
"1909","6066.936"
"1910","6044.759"
"1911","6057.714"
"1912","6104.255"
"1913","6166.033"
"1914","6223.802"
"1915","6256.801"
"1916","6246.38"
"1917","6211.764"
"1918","6202.163"
"1919","6244.105"
"1920","6285.194"
"1921","6259.999"
"1922","6175.101"
"1923","6103.417"
"1924","6101.302"
"1925","6149.748"
"1926","6211.53"
"1927","6257.921"
"1928","6269.072"
"1929","6233.827"
"1930","6178.263"
"1931","6138.071"
"1932","6121.714"
"1933","6106.106"
"1934","6073.833"
"1935","6044.694"
"1936","6049.248"
"1937","6087.877"
"1938","6123.132"
"1939","6124.39"
"1940","6110.977"
"1941","6118.142"
"1942","6147.269"
"1943","6154.926"
"1944","6106.748"
"1945","6037.428"
"1946","6004.88"
"1947","6020.904"
"1948","6034.377"
"1949","6003.434"
"1950","5966.186"
"1951","5987.956"
"1952","6070.027"
"1953","6125.834"
"1954","6082.5"
"1955","5983.017"
"1956","5910.525"
"1957","5903.742"
"1958","5941.457"
"1959","5998.762"
"1960","6053.981"
"1961","6086.676"
"1962","6084.382"
"1963","6044.92"
"1964","5971.101"
"1965","5887.922"
"1966","5827.234"
"1967","5807.915"
"1968","5833.162"
"1969","5897.429"
"1970","5958.33"
"1971","5964.389"
"1972","5917.082"
"1973","5876.276"
"1974","5887.264"
"1975","5920.861"
"1976","5929.742"
"1977","5900.43"
"1978","5852.771"
"1979","5808.934"
"1980","5794.176"
"1981","5831.77"
"1982","5896.009"
"1983","5919.154"
"1984","5862.118"
"1985","5778.415"
"1986","5735.671"
"1987","5748.933"
"1988","5794.892"
"1989","5849.791"
"1990","5891.125"
"1991","5897.976"
"1992","5865.162"
"1993","5797.12"
"1994","5711.771"
"1995","5654.42"
"1996","5665.81"
"1997","5720.949"
"1998","5763.082"
"1999","5758.424"
"2000","5711.277"
"2001","5635.135"
"2002","5578.099"
"2003","5599.801"
"2004","5693.896"
"2005","5769.551"
"2006","5755.997"
"2007","5700.592"
"2008","5681.16"
"2009","5699.339"
"2010","5681.944"
"2011","5589.268"
"2012","5503.983"
"2013","5525.521"
"2014","5627.802"
"2015","5692.559"
"2016","5654.454"
"2017","5580.159"
"2018","5546.999"
"2019","5551.6"
"2020","5547.863"
"2021","5522.852"
"2022","5520.707"
"2023","5575.179"
"2024","5623.182"
"2025","5568.475"
"2026","5419.198"
"2027","5308.586"
"2028","5335.497"
"2029","5430.709"
"2030","5488.213"
"2031","5492.523"
"2032","5503.186"
"2033","5552.903"
"2034","5598.311"
"2035","5590.534"
"2036","5546.44"
"2037","5519.148"
"2038","5528.621"
"2039","5537.707"
"2040","5512.877"
"2041","5474.103"
"2042","5459.175"
"2043","5467.79"
"2044","5457.434"
"2045","5403.34"
"2046","5350.622"
"2047","5354.628"
"2048","5402.562"
"2049","5433.525"
"2050","5414.594"
"2051","5374.173"
"2052","5346.322"
"2053","5349.188"
"2054","5393.307"
"2055","5460.409"
"2056","5495.23"
"2057","5459.492"
"2058","5393.478"
"2059","5353.792"
"2060","5343.05"
"2061","5321.933"
"2062","5275.367"
"2063","5245.788"
"2064","5274.26"
"2065","5331.396"
"2066","5356.653"
"2067","5323.917"
"2068","5252.184"
"2069","5167.464"
"2070","5111.107"
"2071","5124.465"
"2072","5192.536"
"2073","5258.331"
"2074","5279.878"
"2075","5249.155"
"2076","5170.959"
"2077","5106.851"
"2078","5138.512"
"2079","5250.524"
"2080","5315.719"
"2081","5256.295"
"2082","5179.621"
"2083","5216.496"
"2084","5328.146"
"2085","5371.319"
"2086","5293.575"
"2087","5199.399"
"2088","5182.601"
"2089","5204.403"
"2090","5187.625"
"2091","5121.866"
"2092","5055.988"
"2093","5023.143"
"2094","5013.348"
"2095","5012.074"
"2096","5018.659"
"2097","5038.241"
"2098","5062.647"
"2099","5067.664"
"2100","5043.481"
"2101","5031.424"
"2102","5076.861"
"2103","5154.865"
"2104","5199.082"
"2105","5178.084"
"2106","5115.758"
"2107","5040.192"
"2108","4976.497"
"2109","4947.157"
"2110","4947.096"
"2111","4950.701"
"2112","4946.635"
"2113","4952.141"
"2114","4982.034"
"2115","5019.826"
"2116","5039.559"
"2117","5038.579"
"2118","5035.056"
"2119","5036.467"
"2120","5024.093"
"2121","4982.609"
"2122","4942.657"
"2123","4951.037"
"2124","5000.652"
"2125","5029.497"
"2126","5001.735"
"2127","4956.066"
"2128","4936.968"
"2129","4942.988"
"2130","4952.404"
"2131","4946.897"
"2132","4912.049"
"2133","4846.525"
"2134","4785"
"2135","4764.118"
"2136","4786.123"
"2137","4836.639"
"2138","4887.677"
"2139","4895.753"
"2140","4837.945"
"2141","4752.856"
"2142","4685.902"
"2143","4648.898"
"2144","4637.943"
"2145","4653.072"
"2146","4698.893"
"2147","4763.899"
"2148","4791.144"
"2149","4728.779"
"2150","4623.422"
"2151","4564"
"2152","4573.565"
"2153","4603.918"
"2154","4622.298"
"2155","4645.192"
"2156","4690.137"
"2157","4728.613"
"2158","4715.607"
"2159","4664.626"
"2160","4646.226"
"2161","4692.46"
"2162","4742.015"
"2163","4732.721"
"2164","4673.649"
"2165","4599.208"
"2166","4539.215"
"2167","4519.361"
"2168","4536.601"
"2169","4532.847"
"2170","4466.091"
"2171","4400.589"
"2172","4423.099"
"2173","4502.833"
"2174","4528.193"
"2175","4468.392"
"2176","4421.267"
"2177","4459.136"
"2178","4518.726"
"2179","4515.926"
"2180","4465.843"
"2181","4436.697"
"2182","4449.342"
"2183","4466.527"
"2184","4462.941"
"2185","4455.649"
"2186","4461.969"
"2187","4452.884"
"2188","4383.804"
"2189","4276.675"
"2190","4213.396"
"2191","4231.769"
"2192","4278.505"
"2193","4300.623"
"2194","4295.811"
"2195","4276.921"
"2196","4265.159"
"2197","4286.458"
"2198","4335.982"
"2199","4366.65"
"2200","4346.056"
"2201","4295.598"
"2202","4245.485"
"2203","4216.075"
"2204","4221.828"
"2205","4243.246"
"2206","4229.767"
"2207","4166.736"
"2208","4111.442"
"2209","4111.546"
"2210","4136.629"
"2211","4138.905"
"2212","4111.033"
"2213","4070.049"
"2214","4045.414"
"2215","4081.261"
"2216","4181.915"
"2217","4247.366"
"2218","4186.377"
"2219","4054.594"
"2220","3955.172"
"2221","3920.076"
"2222","3928.157"
"2223","3959.766"
"2224","3999.466"
"2225","4030.096"
"2226","4028.234"
"2227","3976.409"
"2228","3908.069"
"2229","3875.603"
"2230","3878.133"
"2231","3868.932"
"2232","3832.759"
"2233","3811.167"
"2234","3833.854"
"2235","3867.719"
"2236","3868.936"
"2237","3820.846"
"2238","3722.055"
"2239","3620.987"
"2240","3611.747"
"2241","3710.145"
"2242","3785.953"
"2243","3741.107"
"2244","3657.092"
"2245","3640.375"
"2246","3658.407"
"2247","3616.619"
"2248","3526.884"
"2249","3500.258"
"2250","3570.409"
"2251","3625.308"
"2252","3578.891"
"2253","3493.802"
"2254","3454.401"
"2255","3455.417"
"2256","3452.341"
"2257","3431.351"
"2258","3405.421"
"2259","3378.403"
"2260","3337.767"
"2261","3281.243"
"2262","3243.998"
"2263","3256.752"
"2264","3272.542"
"2265","3218.948"
"2266","3106"
"2267","3005.235"
"2268","2949.995"
"2269","2918.456"
"2270","2898.943"
"2271","2916.875"
"2272","2990.846"
"2273","3073.351"
"2274","3100.462"
"2275","3061.652"
"2276","2978.743"
"2277","2871.614"
"2278","2757.523"
"2279","2659.105"
"2280","2609.806"
"2281","2626.691"
"2282","2659.648"
"2283","2650.25"
"2284","2597.994"
"2285","2528.652"
"2286","2470.457"
"2287","2452.756"
"2288","2464.802"
"2289","2438.273"
"2290","2338.155"
"2291","2227.69"
"2292","2168.342"
"2293","2134.93"
"2294","2081.653"
"2295","2019.273"
"2296","1987.627"
"2297","1972.559"
"2298","1907.627"
"2299","1771.165"
"2300","1620.839"
