,"Scan 01059"
"400","9870.015"
"401","9833.444"
"402","9788.159"
"403","9739.921"
"404","9694.452"
"405","9657.15"
"406","9630.943"
"407","9617.487"
"408","9618.43"
"409","9635.018"
"410","9663.611"
"411","9697.18"
"412","9728.669"
"413","9751.328"
"414","9763.509"
"415","9768.314"
"416","9769.012"
"417","9768.769"
"418","9768.108"
"419","9764.31"
"420","9754.465"
"421","9735.739"
"422","9708.827"
"423","9680.099"
"424","9656.386"
"425","9644.456"
"426","9647.576"
"427","9661.751"
"428","9682.099"
"429","9703.777"
"430","9722.705"
"431","9736.809"
"432","9744.357"
"433","9743.634"
"434","9734.082"
"435","9719.11"
"436","9702.965"
"437","9689.861"
"438","9682.859"
"439","9680.03"
"440","9678.098"
"441","9673.813"
"442","9664.972"
"443","9655.034"
"444","9649.352"
"445","9653.247"
"446","9670.147"
"447","9690.842"
"448","9700.964"
"449","9686.217"
"450","9635.346"
"451","9561.453"
"452","9489.577"
"453","9444.667"
"454","9448.405"
"455","9491.189"
"456","9545.482"
"457","9583.7"
"458","9580.656"
"459","9538.009"
"460","9475.145"
"461","9411.634"
"462","9365.879"
"463","9340.946"
"464","9328.459"
"465","9319.813"
"466","9306.977"
"467","9290.694"
"468","9279.02"
"469","9280.174"
"470","9301.722"
"471","9338.927"
"472","9375.813"
"473","9396.087"
"474","9384.267"
"475","9341.267"
"476","9284.255"
"477","9230.988"
"478","9198.637"
"479","9191.802"
"480","9201.784"
"481","9219.287"
"482","9235.278"
"483","9246.546"
"484","9256.384"
"485","9268.405"
"486","9286.013"
"487","9306.597"
"488","9320.551"
"489","9317.938"
"490","9289.196"
"491","9235.092"
"492","9168.711"
"493","9103.78"
"494","9053.638"
"495","9021.072"
"496","8996.152"
"497","8968.243"
"498","8927.085"
"499","8872.813"
"500","8818.086"
"501","8776.237"
"502","8760.088"
"503","8768.298"
"504","8782.717"
"505","8784.319"
"506","8754.74"
"507","8692.391"
"508","8615.031"
"509","8541.401"
"510","8489.648"
"511","8464.238"
"512","8454.51"
"513","8449.07"
"514","8436.942"
"515","8415.938"
"516","8393.073"
"517","8375.753"
"518","8370.978"
"519","8377.473"
"520","8385.881"
"521","8386.554"
"522","8370.378"
"523","8337.627"
"524","8297.024"
"525","8257.548"
"526","8227.667"
"527","8208.078"
"528","8193.111"
"529","8176.946"
"530","8154.152"
"531","8124.506"
"532","8091.605"
"533","8059.115"
"534","8030.705"
"535","8010.253"
"536","8001.765"
"537","8009.236"
"538","8035.453"
"539","8071.576"
"540","8102.211"
"541","8111.961"
"542","8088.321"
"543","8041.741"
"544","7993.777"
"545","7965.946"
"546","7975.587"
"547","8012.705"
"548","8056.186"
"549","8084.98"
"550","8081.972"
"551","8050.963"
"552","8002.796"
"553","7948.266"
"554","7897.601"
"555","7858.726"
"556","7838.903"
"557","7845.369"
"558","7880.628"
"559","7930.783"
"560","7978.423"
"561","8006.234"
"562","8004.533"
"563","7984.488"
"564","7960.761"
"565","7947.912"
"566","7953.287"
"567","7968.804"
"568","7984.406"
"569","7990.162"
"570","7981.168"
"571","7960.958"
"572","7933.85"
"573","7904.117"
"574","7875.007"
"575","7848.444"
"576","7826.249"
"577","7810.169"
"578","7800.329"
"579","7795.228"
"580","7793.307"
"581","7793.04"
"582","7793.354"
"583","7793.519"
"584","7792.815"
"585","7790.668"
"586","7787.877"
"587","7786.017"
"588","7786.667"
"589","7791.068"
"590","7798.254"
"591","7806.353"
"592","7813.494"
"593","7818.009"
"594","7819.125"
"595","7816.339"
"596","7809.141"
"597","7797.41"
"598","7782.228"
"599","7764.917"
"600","7746.795"
"601","7729.343"
"602","7714.404"
"603","7703.862"
"604","7699.563"
"605","7701.273"
"606","7705.583"
"607","7708.823"
"608","7707.477"
"609","7701.729"
"610","7695.705"
"611","7693.708"
"612","7699.616"
"613","7711.574"
"614","7723.53"
"615","7729.354"
"616","7723.703"
"617","7707.576"
"618","7685.096"
"619","7660.389"
"620","7637.323"
"621","7618.479"
"622","7606.03"
"623","7602.131"
"624","7607.539"
"625","7618.508"
"626","7630.415"
"627","7638.658"
"628","7639.98"
"629","7633.823"
"630","7619.947"
"631","7598.221"
"632","7572.415"
"633","7551.336"
"634","7544.103"
"635","7559.075"
"636","7592.511"
"637","7630.689"
"638","7659.636"
"639","7667.12"
"640","7655.827"
"641","7636.139"
"642","7618.47"
"643","7611.282"
"644","7613.47"
"645","7620.969"
"646","7629.73"
"647","7636.928"
"648","7643.229"
"649","7649.92"
"650","7658.25"
"651","7667.081"
"652","7671.235"
"653","7665.163"
"654","7643.63"
"655","7608.514"
"656","7568.897"
"657","7534.157"
"658","7513.052"
"659","7508.033"
"660","7517.755"
"661","7540.818"
"662","7574.841"
"663","7611.979"
"664","7642.534"
"665","7656.84"
"666","7649.691"
"667","7629.063"
"668","7605.345"
"669","7588.811"
"670","7584.176"
"671","7587.014"
"672","7592.071"
"673","7594.259"
"674","7591.749"
"675","7585.734"
"676","7577.524"
"677","7568.492"
"678","7560.645"
"679","7556.312"
"680","7557.819"
"681","7566.547"
"682","7579.789"
"683","7593.717"
"684","7604.532"
"685","7610.894"
"686","7616.978"
"687","7627.69"
"688","7647.731"
"689","7675.277"
"690","7700.715"
"691","7714.002"
"692","7706.198"
"693","7680.873"
"694","7649.624"
"695","7624.145"
"696","7613.569"
"697","7613.669"
"698","7615.856"
"699","7611.569"
"700","7596.502"
"701","7577.093"
"702","7561.437"
"703","7557.487"
"704","7568.357"
"705","7590.96"
"706","7621.818"
"707","7657.032"
"708","7687.644"
"709","7701.374"
"710","7685.908"
"711","7634.356"
"712","7567.625"
"713","7515.471"
"714","7507.524"
"715","7555.905"
"716","7631.403"
"717","7698.892"
"718","7724.27"
"719","7702.121"
"720","7660.013"
"721","7627.284"
"722","7629.896"
"723","7661.359"
"724","7696.904"
"725","7711.607"
"726","7688.795"
"727","7645.525"
"728","7607.473"
"729","7600.104"
"730","7632.859"
"731","7685.777"
"732","7735.79"
"733","7760.838"
"734","7756.581"
"735","7734.058"
"736","7704.812"
"737","7679.25"
"738","7660.573"
"739","7649.105"
"740","7645.154"
"741","7648.986"
"742","7660.737"
"743","7680.519"
"744","7708.342"
"745","7740.703"
"746","7769.858"
"747","7787.821"
"748","7787.764"
"749","7773.739"
"750","7755.756"
"751","7743.873"
"752","7744.46"
"753","7750.425"
"754","7751.601"
"755","7738.018"
"756","7709.956"
"757","7683.427"
"758","7675.755"
"759","7702.596"
"760","7759.075"
"761","7826.426"
"762","7885.636"
"763","7921.295"
"764","7933.931"
"765","7928.522"
"766","7910.054"
"767","7884.75"
"768","7861.046"
"769","7847.598"
"770","7852.289"
"771","7871.972"
"772","7895.128"
"773","7910.044"
"774","7908.307"
"775","7897.605"
"776","7890.541"
"777","7899.629"
"778","7929.542"
"779","7970.3"
"780","8010.326"
"781","8038.602"
"782","8052.463"
"783","8055.697"
"784","8052.248"
"785","8046.304"
"786","8043.211"
"787","8048.665"
"788","8068.281"
"789","8101.055"
"790","8134.105"
"791","8153.325"
"792","8145.841"
"793","8115.21"
"794","8076.816"
"795","8046.284"
"796","8035.607"
"797","8041.195"
"798","8055.278"
"799","8070.157"
"800","8082.6"
"801","8096.353"
"802","8115.771"
"803","8144.443"
"804","8177.787"
"805","8206.235"
"806","8220.153"
"807","8213.436"
"808","8192.146"
"809","8164.979"
"810","8140.53"
"811","8124.2"
"812","8117.378"
"813","8121.203"
"814","8136.298"
"815","8159.242"
"816","8184.713"
"817","8207.389"
"818","8223.54"
"819","8233.469"
"820","8238.105"
"821","8238.397"
"822","8235.583"
"823","8231.17"
"824","8226.68"
"825","8223.631"
"826","8223.572"
"827","8228.053"
"828","8238.581"
"829","8253.179"
"830","8263.855"
"831","8262.041"
"832","8240.495"
"833","8206.673"
"834","8177.125"
"835","8168.53"
"836","8190.984"
"837","8233.368"
"838","8280.296"
"839","8316.746"
"840","8337.017"
"841","8345.596"
"842","8347.479"
"843","8347.237"
"844","8346.869"
"845","8347.416"
"846","8349.92"
"847","8355.807"
"848","8367.222"
"849","8386.38"
"850","8415.061"
"851","8449.939"
"852","8484.44"
"853","8511.943"
"854","8527.17"
"855","8529.106"
"856","8517.57"
"857","8492.608"
"858","8459.655"
"859","8429.668"
"860","8413.845"
"861","8420.64"
"862","8443.932"
"863","8472.805"
"864","8496.426"
"865","8509.525"
"866","8515.636"
"867","8519.062"
"868","8523.883"
"869","8532.196"
"870","8545.069"
"871","8563.56"
"872","8586.582"
"873","8607.939"
"874","8620.679"
"875","8618.623"
"876","8607.123"
"877","8600.316"
"878","8612.559"
"879","8651.431"
"880","8700.133"
"881","8736.403"
"882","8738.902"
"883","8710.686"
"884","8681.07"
"885","8680.665"
"886","8731.447"
"887","8810.277"
"888","8879.325"
"889","8901.314"
"890","8868.176"
"891","8814.704"
"892","8779.106"
"893","8793.565"
"894","8845.693"
"895","8903.122"
"896","8933.536"
"897","8922.842"
"898","8892.403"
"899","8867.673"
"900","8871.575"
"901","8901.087"
"902","8937.958"
"903","8963.77"
"904","8967.739"
"905","8958.32"
"906","8946.938"
"907","8944.396"
"908","8952.826"
"909","8967.978"
"910","8985.449"
"911","9001.474"
"912","9014.261"
"913","9022.427"
"914","9024.707"
"915","9022.302"
"916","9018.594"
"917","9017.041"
"918","9019.763"
"919","9023.725"
"920","9024.656"
"921","9018.565"
"922","9008.307"
"923","9003.843"
"924","9015.464"
"925","9049.846"
"926","9097.404"
"927","9143.981"
"928","9175.68"
"929","9187.002"
"930","9182.288"
"931","9166.435"
"932","9144.494"
"933","9122.287"
"934","9105.879"
"935","9101.188"
"936","9108.6"
"937","9121.414"
"938","9132.461"
"939","9136.212"
"940","9136.238"
"941","9139.229"
"942","9151.702"
"943","9172.598"
"944","9190.561"
"945","9193.505"
"946","9172.629"
"947","9138.208"
"948","9107.377"
"949","9096.945"
"950","9108.471"
"951","9122.306"
"952","9117.225"
"953","9077.973"
"954","9024.293"
"955","8988.63"
"956","9002.846"
"957","9071.478"
"958","9161.353"
"959","9236.525"
"960","9267.196"
"961","9258.627"
"962","9228.484"
"963","9194.246"
"964","9164.708"
"965","9137.141"
"966","9108.015"
"967","9075.725"
"968","9048.952"
"969","9039.799"
"970","9059.938"
"971","9105.657"
"972","9154.177"
"973","9181.527"
"974","9170.293"
"975","9134.907"
"976","9099.456"
"977","9087.373"
"978","9103.141"
"979","9130.01"
"980","9150.103"
"981","9149.854"
"982","9134.094"
"983","9112.523"
"984","9094.704"
"985","9086.712"
"986","9091.203"
"987","9110.687"
"988","9144.441"
"989","9180.106"
"990","9202.694"
"991","9198.423"
"992","9174.154"
"993","9154.079"
"994","9162.932"
"995","9214.439"
"996","9289.816"
"997","9364.293"
"998","9414.564"
"999","9436.331"
"1000","9438.471"
"1001","9430.12"
"1002","9418.341"
"1003","9405.27"
"1004","9392.339"
"1005","9380.983"
"1006","9372.169"
"1007","9363.74"
"1008","9352.249"
"1009","9334.375"
"1010","9313.207"
"1011","9301.026"
"1012","9310.833"
"1013","9350.946"
"1014","9404.201"
"1015","9444.812"
"1016","9447.724"
"1017","9411.454"
"1018","9362.219"
"1019","9327.826"
"1020","9328.31"
"1021","9350.784"
"1022","9373.669"
"1023","9376.489"
"1024","9361.188"
"1025","9350.486"
"1026","9367.9"
"1027","9425.745"
"1028","9501.086"
"1029","9564.041"
"1030","9587.23"
"1031","9576.051"
"1032","9558.904"
"1033","9564.616"
"1034","9605.198"
"1035","9654.438"
"1036","9680.839"
"1037","9657.898"
"1038","9601.938"
"1039","9550.979"
"1040","9542.822"
"1041","9587.896"
"1042","9652.885"
"1043","9700.514"
"1044","9700.858"
"1045","9664.819"
"1046","9617.399"
"1047","9583.109"
"1048","9572.118"
"1049","9578.882"
"1050","9597.047"
"1051","9620.526"
"1052","9644.172"
"1053","9663.04"
"1054","9672.508"
"1055","9672.411"
"1056","9665.813"
"1057","9655.87"
"1058","9648.251"
"1059","9654.13"
"1060","9685.416"
"1061","9750.248"
"1062","9828.413"
"1063","9886.799"
"1064","9892.903"
"1065","9843.516"
"1066","9774.841"
"1067","9725.878"
"1068","9725.392"
"1069","9758.871"
"1070","9800.388"
"1071","9825.231"
"1072","9828.721"
"1073","9822.36"
"1074","9818.106"
"1075","9823.127"
"1076","9833.397"
"1077","9843.299"
"1078","9847.851"
"1079","9846.928"
"1080","9842.65"
"1081","9837.162"
"1082","9833.273"
"1083","9834.647"
"1084","9845.008"
"1085","9866.273"
"1086","9893.446"
"1087","9919.866"
"1088","9938.895"
"1089","9944.292"
"1090","9930.088"
"1091","9890.407"
"1092","9830.265"
"1093","9775.647"
"1094","9754.961"
"1095","9789.155"
"1096","9855.937"
"1097","9917.449"
"1098","9937.173"
"1099","9909.563"
"1100","9859.596"
"1101","9813.557"
"1102","9790.924"
"1103","9793.036"
"1104","9818.247"
"1105","9863.56"
"1106","9915.11"
"1107","9953.78"
"1108","9960.901"
"1109","9935.917"
"1110","9901.049"
"1111","9879.992"
"1112","9888.282"
"1113","9913.763"
"1114","9938.405"
"1115","9945.383"
"1116","9930.43"
"1117","9896.656"
"1118","9847.387"
"1119","9792.089"
"1120","9749.313"
"1121","9738.347"
"1122","9770.287"
"1123","9823.898"
"1124","9869.955"
"1125","9881.831"
"1126","9863.72"
"1127","9839.96"
"1128","9835.026"
"1129","9858.597"
"1130","9896.76"
"1131","9933.489"
"1132","9955.125"
"1133","9957.896"
"1134","9940.584"
"1135","9902.874"
"1136","9855.202"
"1137","9815.175"
"1138","9800.324"
"1139","9814.487"
"1140","9839.884"
"1141","9856.818"
"1142","9851.294"
"1143","9832.008"
"1144","9813.313"
"1145","9808.573"
"1146","9820.068"
"1147","9843.197"
"1148","9873.251"
"1149","9905.875"
"1150","9937.206"
"1151","9963.416"
"1152","9982.143"
"1153","9996.098"
"1154","10009.09"
"1155","10024.18"
"1156","10037.7"
"1157","10042.37"
"1158","10031.2"
"1159","10007.49"
"1160","9986.921"
"1161","9985.888"
"1162","10012.89"
"1163","10054.67"
"1164","10094.3"
"1165","10117.41"
"1166","10127.34"
"1167","10134.76"
"1168","10149.72"
"1169","10168.96"
"1170","10176.99"
"1171","10157.94"
"1172","10111.1"
"1173","10066.24"
"1174","10056.82"
"1175","10104.79"
"1176","10178.44"
"1177","10230.38"
"1178","10218.02"
"1179","10156.19"
"1180","10097.21"
"1181","10093.1"
"1182","10153.85"
"1183","10231.79"
"1184","10275.05"
"1185","10252.64"
"1186","10195.39"
"1187","10145.55"
"1188","10139.08"
"1189","10168.94"
"1190","10210.18"
"1191","10238.79"
"1192","10249.86"
"1193","10255.01"
"1194","10266.33"
"1195","10288.68"
"1196","10314.09"
"1197","10333.29"
"1198","10339.66"
"1199","10336.68"
"1200","10330.15"
"1201","10325.93"
"1202","10330.06"
"1203","10348.71"
"1204","10387.36"
"1205","10436.39"
"1206","10471.13"
"1207","10466.38"
"1208","10416.39"
"1209","10353.54"
"1210","10314.66"
"1211","10325.49"
"1212","10366.85"
"1213","10408.16"
"1214","10422.32"
"1215","10412.62"
"1216","10398.04"
"1217","10397.02"
"1218","10411.09"
"1219","10425.22"
"1220","10423.73"
"1221","10404.59"
"1222","10391.27"
"1223","10410.01"
"1224","10475.45"
"1225","10559.21"
"1226","10623.01"
"1227","10634.1"
"1228","10601.89"
"1229","10555"
"1230","10521.1"
"1231","10508.94"
"1232","10511.21"
"1233","10520.15"
"1234","10530"
"1235","10538.2"
"1236","10542.42"
"1237","10542.34"
"1238","10543.39"
"1239","10551.98"
"1240","10573.12"
"1241","10603.88"
"1242","10638.61"
"1243","10671.72"
"1244","10698.61"
"1245","10715.28"
"1246","10717.94"
"1247","10707.85"
"1248","10691.85"
"1249","10677.07"
"1250","10669.49"
"1251","10672.93"
"1252","10690.97"
"1253","10723.41"
"1254","10757.1"
"1255","10776.06"
"1256","10768.18"
"1257","10746.3"
"1258","10733.09"
"1259","10749.31"
"1260","10791.4"
"1261","10839.21"
"1262","10872.77"
"1263","10885.68"
"1264","10887.06"
"1265","10886.81"
"1266","10889.44"
"1267","10889.15"
"1268","10878.96"
"1269","10856.92"
"1270","10837.23"
"1271","10837.43"
"1272","10869.01"
"1273","10909.03"
"1274","10922.38"
"1275","10878.73"
"1276","10797.35"
"1277","10726.66"
"1278","10713.39"
"1279","10760.27"
"1280","10828.54"
"1281","10878.14"
"1282","10891.6"
"1283","10885.15"
"1284","10877.77"
"1285","10881.94"
"1286","10894.43"
"1287","10909.71"
"1288","10923.34"
"1289","10935.24"
"1290","10946.36"
"1291","10957.48"
"1292","10968.2"
"1293","10977.64"
"1294","10985.35"
"1295","10995.73"
"1296","11016.25"
"1297","11053.84"
"1298","11103.3"
"1299","11147.92"
"1300","11170.7"
"1301","11164.04"
"1302","11133.78"
"1303","11086.81"
"1304","11035.02"
"1305","11001.09"
"1306","11009.1"
"1307","11068.86"
"1308","11142.83"
"1309","11183.69"
"1310","11155.75"
"1311","11082.93"
"1312","11008.26"
"1313","10970.87"
"1314","10978.5"
"1315","11023.89"
"1316","11098.39"
"1317","11176.92"
"1318","11222.93"
"1319","11201.61"
"1320","11123.94"
"1321","11046.49"
"1322","11026.93"
"1323","11079.43"
"1324","11157.02"
"1325","11208.27"
"1326","11205.88"
"1327","11170.59"
"1328","11128.84"
"1329","11101.95"
"1330","11096.68"
"1331","11117.21"
"1332","11163.86"
"1333","11221.05"
"1334","11269.15"
"1335","11290.97"
"1336","11283.77"
"1337","11250"
"1338","11193.87"
"1339","11134.36"
"1340","11097.88"
"1341","11108.27"
"1342","11156.77"
"1343","11212.42"
"1344","11244.88"
"1345","11244.33"
"1346","11219.48"
"1347","11179.77"
"1348","11135.21"
"1349","11096.47"
"1350","11074.19"
"1351","11073.09"
"1352","11088.61"
"1353","11115.4"
"1354","11145.01"
"1355","11162.74"
"1356","11153.12"
"1357","11110.73"
"1358","11057.11"
"1359","11018.27"
"1360","11012.42"
"1361","11030.2"
"1362","11056.18"
"1363","11077.21"
"1364","11090.59"
"1365","11096.6"
"1366","11095.85"
"1367","11090.82"
"1368","11084.67"
"1369","11079.76"
"1370","11072.16"
"1371","11054.98"
"1372","11022.78"
"1373","10984.83"
"1374","10959.03"
"1375","10961.79"
"1376","10988.24"
"1377","11018.34"
"1378","11032.57"
"1379","11027.17"
"1380","11011.96"
"1381","10997.11"
"1382","10989.86"
"1383","10994.39"
"1384","11014.5"
"1385","11045"
"1386","11069.66"
"1387","11071.77"
"1388","11046.63"
"1389","11007.09"
"1390","10967.3"
"1391","10935.86"
"1392","10911.77"
"1393","10893.12"
"1394","10879.23"
"1395","10871.87"
"1396","10873.11"
"1397","10885.42"
"1398","10912.19"
"1399","10956.94"
"1400","11015.32"
"1401","11061.79"
"1402","11067.32"
"1403","11019.07"
"1404","10954.28"
"1405","10919.81"
"1406","10946.27"
"1407","11007.09"
"1408","11063.1"
"1409","11084.28"
"1410","11076.92"
"1411","11056.31"
"1412","11035.25"
"1413","11015.32"
"1414","10994.97"
"1415","10973.8"
"1416","10956.99"
"1417","10951.46"
"1418","10961.96"
"1419","10981.54"
"1420","10999.26"
"1421","11005.49"
"1422","10998.14"
"1423","10977.95"
"1424","10947.77"
"1425","10924.17"
"1426","10929.11"
"1427","10978.44"
"1428","11045.79"
"1429","11087.09"
"1430","11066.59"
"1431","11009.51"
"1432","10968.07"
"1433","10986.15"
"1434","11042.97"
"1435","11087.83"
"1436","11077.34"
"1437","11027.54"
"1438","10982.88"
"1439","10982.92"
"1440","11025.28"
"1441","11087.01"
"1442","11146.11"
"1443","11189.76"
"1444","11209.73"
"1445","11200.19"
"1446","11175.35"
"1447","11159.51"
"1448","11173.41"
"1449","11207.12"
"1450","11235.29"
"1451","11235.39"
"1452","11209.61"
"1453","11172.45"
"1454","11137.25"
"1455","11107.05"
"1456","11079.87"
"1457","11054.07"
"1458","11030.87"
"1459","11012.88"
"1460","11001.33"
"1461","10987.06"
"1462","10956.09"
"1463","10898.5"
"1464","10833.92"
"1465","10794.96"
"1466","10807.44"
"1467","10850.28"
"1468","10882.88"
"1469","10871.21"
"1470","10823.54"
"1471","10764.71"
"1472","10716.56"
"1473","10683.07"
"1474","10661.66"
"1475","10649.26"
"1476","10639.94"
"1477","10626.87"
"1478","10604.23"
"1479","10571.34"
"1480","10529.08"
"1481","10480.38"
"1482","10437.22"
"1483","10414.05"
"1484","10418.66"
"1485","10432.36"
"1486","10429.94"
"1487","10396.34"
"1488","10352.08"
"1489","10325.49"
"1490","10332.69"
"1491","10352.3"
"1492","10355.76"
"1493","10327.5"
"1494","10286.76"
"1495","10258.56"
"1496","10257.09"
"1497","10271.35"
"1498","10286.77"
"1499","10293.32"
"1500","10290.09"
"1501","10277.3"
"1502","10256.81"
"1503","10233.29"
"1504","10211.77"
"1505","10198.9"
"1506","10203.8"
"1507","10235.34"
"1508","10286.05"
"1509","10327.99"
"1510","10332.9"
"1511","10297.54"
"1512","10245.04"
"1513","10199.26"
"1514","10173.04"
"1515","10169.51"
"1516","10190.42"
"1517","10223.1"
"1518","10244.28"
"1519","10232.69"
"1520","10190.7"
"1521","10134.99"
"1522","10082.04"
"1523","10045.04"
"1524","10035.62"
"1525","10061.28"
"1526","10103.56"
"1527","10133.88"
"1528","10129.21"
"1529","10093.99"
"1530","10041.05"
"1531","9984.459"
"1532","9943.048"
"1533","9936.752"
"1534","9971.674"
"1535","10013.73"
"1536","10021.66"
"1537","9977.584"
"1538","9915.797"
"1539","9877.414"
"1540","9881.354"
"1541","9908.4"
"1542","9935.801"
"1543","9950.367"
"1544","9951.57"
"1545","9939.973"
"1546","9921.307"
"1547","9906.56"
"1548","9906.32"
"1549","9921.456"
"1550","9945.317"
"1551","9970.933"
"1552","9990.067"
"1553","9993.753"
"1554","9975.948"
"1555","9951.364"
"1556","9943.615"
"1557","9968.258"
"1558","10000.6"
"1559","10003.47"
"1560","9954.023"
"1561","9879.593"
"1562","9818.489"
"1563","9794.688"
"1564","9796.678"
"1565","9807.597"
"1566","9815.942"
"1567","9819.664"
"1568","9817.708"
"1569","9810.465"
"1570","9800.146"
"1571","9789.059"
"1572","9779.016"
"1573","9771.389"
"1574","9767.568"
"1575","9769.322"
"1576","9778.673"
"1577","9796.667"
"1578","9817.236"
"1579","9831.139"
"1580","9830.406"
"1581","9813.314"
"1582","9780.017"
"1583","9737.404"
"1584","9713.693"
"1585","9741.159"
"1586","9820.899"
"1587","9888.379"
"1588","9872.088"
"1589","9768.041"
"1590","9668.152"
"1591","9667.322"
"1592","9764.661"
"1593","9867.008"
"1594","9885.551"
"1595","9827.189"
"1596","9760.771"
"1597","9746.646"
"1598","9778.49"
"1599","9821.691"
"1600","9847.198"
"1601","9850.389"
"1602","9833.203"
"1603","9802.08"
"1604","9775.476"
"1605","9773.67"
"1606","9801.673"
"1607","9838.565"
"1608","9861.505"
"1609","9864.684"
"1610","9860.956"
"1611","9862.771"
"1612","9864.418"
"1613","9847.397"
"1614","9798.076"
"1615","9740.331"
"1616","9714.647"
"1617","9748.506"
"1618","9813.529"
"1619","9866.48"
"1620","9879.833"
"1621","9865.804"
"1622","9842.73"
"1623","9824.208"
"1624","9816.529"
"1625","9825.052"
"1626","9848.41"
"1627","9878.83"
"1628","9908.724"
"1629","9935.106"
"1630","9957.654"
"1631","9976.09"
"1632","9990.17"
"1633","9999.661"
"1634","10004.88"
"1635","10007.82"
"1636","10010.8"
"1637","10015.21"
"1638","10020.74"
"1639","10026.84"
"1640","10031.03"
"1641","10028.81"
"1642","10016.58"
"1643","10002.26"
"1644","10001.04"
"1645","10024.66"
"1646","10064.16"
"1647","10103.16"
"1648","10127.11"
"1649","10127.2"
"1650","10095.89"
"1651","10038.99"
"1652","9985.38"
"1653","9965.257"
"1654","9985.611"
"1655","10030.47"
"1656","10081.97"
"1657","10113.89"
"1658","10095.27"
"1659","10007.45"
"1660","9891.984"
"1661","9808.71"
"1662","9793.332"
"1663","9820.158"
"1664","9854.148"
"1665","9872.952"
"1666","9871.773"
"1667","9847.776"
"1668","9808.402"
"1669","9768.964"
"1670","9743.391"
"1671","9734.854"
"1672","9742.094"
"1673","9759.028"
"1674","9763.56"
"1675","9730.536"
"1676","9660.605"
"1677","9598.813"
"1678","9591.905"
"1679","9631.41"
"1680","9657.881"
"1681","9619.161"
"1682","9538.764"
"1683","9477.112"
"1684","9475.393"
"1685","9499.281"
"1686","9496.437"
"1687","9444.199"
"1688","9376.641"
"1689","9332.879"
"1690","9320.702"
"1691","9316.865"
"1692","9299.17"
"1693","9266.181"
"1694","9227.038"
"1695","9189.228"
"1696","9153.361"
"1697","9118.362"
"1698","9083.073"
"1699","9046.167"
"1700","9006.763"
"1701","8973.678"
"1702","8964.923"
"1703","8995.092"
"1704","9048.988"
"1705","9097.337"
"1706","9118.969"
"1707","9121.435"
"1708","9118.404"
"1709","9113.681"
"1710","9094.868"
"1711","9049.552"
"1712","8989.73"
"1713","8947.141"
"1714","8947.786"
"1715","8978.013"
"1716","9008.893"
"1717","9020.991"
"1718","9021.081"
"1719","9020.21"
"1720","9022.634"
"1721","9023.902"
"1722","9019.229"
"1723","9006.508"
"1724","8985.275"
"1725","8957.018"
"1726","8931.711"
"1727","8921.604"
"1728","8929.685"
"1729","8941.153"
"1730","8939.748"
"1731","8920.382"
"1732","8887.986"
"1733","8849.408"
"1734","8821.774"
"1735","8826.425"
"1736","8871.216"
"1737","8926.836"
"1738","8958.232"
"1739","8952.921"
"1740","8926.078"
"1741","8893.765"
"1742","8864.086"
"1743","8840.725"
"1744","8827.652"
"1745","8830.054"
"1746","8853.224"
"1747","8890.27"
"1748","8915.135"
"1749","8902.367"
"1750","8857.427"
"1751","8807.535"
"1752","8774.786"
"1753","8754.591"
"1754","8734.53"
"1755","8710.273"
"1756","8693"
"1757","8694.778"
"1758","8712.958"
"1759","8732.634"
"1760","8740.322"
"1761","8732.793"
"1762","8710.413"
"1763","8678.271"
"1764","8651.775"
"1765","8647.014"
"1766","8665.855"
"1767","8697.046"
"1768","8729.167"
"1769","8753.007"
"1770","8760.204"
"1771","8749.37"
"1772","8735.396"
"1773","8734.771"
"1774","8747.712"
"1775","8758.751"
"1776","8753.008"
"1777","8723.595"
"1778","8666.795"
"1779","8593.556"
"1780","8549.039"
"1781","8580.43"
"1782","8673.147"
"1783","8754.211"
"1784","8760.756"
"1785","8706.062"
"1786","8631.944"
"1787","8571.048"
"1788","8535.655"
"1789","8534.2"
"1790","8553.737"
"1791","8562.647"
"1792","8537.823"
"1793","8505.635"
"1794","8508.87"
"1795","8561.531"
"1796","8622.011"
"1797","8645.069"
"1798","8626.455"
"1799","8592.961"
"1800","8566.721"
"1801","8545.375"
"1802","8519.868"
"1803","8490.751"
"1804","8473.957"
"1805","8484.911"
"1806","8517.949"
"1807","8554.386"
"1808","8578.959"
"1809","8589.076"
"1810","8585.051"
"1811","8573.082"
"1812","8566.747"
"1813","8576.588"
"1814","8585.629"
"1815","8563.991"
"1816","8501.979"
"1817","8441.268"
"1818","8429.278"
"1819","8465.727"
"1820","8506.151"
"1821","8512.704"
"1822","8492.006"
"1823","8465.296"
"1824","8447.19"
"1825","8440.558"
"1826","8446.451"
"1827","8458.646"
"1828","8466.227"
"1829","8461.659"
"1830","8449.359"
"1831","8436.11"
"1832","8422.826"
"1833","8403.52"
"1834","8373.344"
"1835","8337.902"
"1836","8307.123"
"1837","8290.626"
"1838","8297.308"
"1839","8334.272"
"1840","8384.404"
"1841","8412.624"
"1842","8395.141"
"1843","8353.586"
"1844","8320.172"
"1845","8311.517"
"1846","8324.526"
"1847","8353.901"
"1848","8387.737"
"1849","8411.279"
"1850","8415.674"
"1851","8404.672"
"1852","8383.746"
"1853","8359.759"
"1854","8340.576"
"1855","8331.312"
"1856","8326.99"
"1857","8320.465"
"1858","8308.267"
"1859","8291.169"
"1860","8271.021"
"1861","8254.767"
"1862","8251.217"
"1863","8262.283"
"1864","8277.374"
"1865","8285.325"
"1866","8282.997"
"1867","8272.019"
"1868","8252.876"
"1869","8222.624"
"1870","8178.797"
"1871","8139.488"
"1872","8141.229"
"1873","8205.782"
"1874","8286.782"
"1875","8320.343"
"1876","8294.802"
"1877","8266.839"
"1878","8286.109"
"1879","8322.94"
"1880","8315.211"
"1881","8242.563"
"1882","8163.241"
"1883","8138.268"
"1884","8166.17"
"1885","8208.507"
"1886","8236.32"
"1887","8247.352"
"1888","8244.128"
"1889","8235.755"
"1890","8236.695"
"1891","8252.368"
"1892","8253.746"
"1893","8205.43"
"1894","8118.962"
"1895","8056.878"
"1896","8069.204"
"1897","8127.821"
"1898","8180.155"
"1899","8204.409"
"1900","8222.418"
"1901","8253.18"
"1902","8272.989"
"1903","8240.416"
"1904","8150.937"
"1905","8066.886"
"1906","8049.279"
"1907","8080.915"
"1908","8102.64"
"1909","8084.929"
"1910","8066.449"
"1911","8089.78"
"1912","8130.528"
"1913","8119.977"
"1914","8028.243"
"1915","7935.958"
"1916","7936.229"
"1917","8015.384"
"1918","8075.255"
"1919","8050.756"
"1920","7995.859"
"1921","7986.01"
"1922","8025.616"
"1923","8053.668"
"1924","8026.962"
"1925","7982.275"
"1926","7974.157"
"1927","8008.412"
"1928","8039.865"
"1929","8032.4"
"1930","8001.68"
"1931","7977.398"
"1932","7973.781"
"1933","7987.109"
"1934","8010.432"
"1935","8025.764"
"1936","8012.268"
"1937","7971.767"
"1938","7934.448"
"1939","7926.098"
"1940","7938.711"
"1941","7953.116"
"1942","7955.921"
"1943","7941.407"
"1944","7907.751"
"1945","7872.125"
"1946","7858.039"
"1947","7872.725"
"1948","7901.212"
"1949","7927.393"
"1950","7938.047"
"1951","7921.36"
"1952","7883.312"
"1953","7854.267"
"1954","7858.761"
"1955","7877.461"
"1956","7876.183"
"1957","7852.576"
"1958","7847.144"
"1959","7889.936"
"1960","7936.208"
"1961","7917.078"
"1962","7825.358"
"1963","7733.45"
"1964","7704.141"
"1965","7722.252"
"1966","7748.106"
"1967","7764.588"
"1968","7781.837"
"1969","7805.898"
"1970","7815.751"
"1971","7783.387"
"1972","7709.976"
"1973","7628.87"
"1974","7570.144"
"1975","7542.698"
"1976","7549.313"
"1977","7579.527"
"1978","7609.849"
"1979","7624.919"
"1980","7641.185"
"1981","7680.624"
"1982","7734.005"
"1983","7765.326"
"1984","7748.633"
"1985","7691.766"
"1986","7610.337"
"1987","7537.424"
"1988","7518.824"
"1989","7569.387"
"1990","7624.545"
"1991","7614.988"
"1992","7555.479"
"1993","7511.496"
"1994","7519.479"
"1995","7554.527"
"1996","7585.68"
"1997","7594.742"
"1998","7569.917"
"1999","7514.993"
"2000","7459.195"
"2001","7430.346"
"2002","7432.485"
"2003","7460.291"
"2004","7495.658"
"2005","7504.148"
"2006","7464.84"
"2007","7423.83"
"2008","7443.357"
"2009","7515.8"
"2010","7564.923"
"2011","7536.299"
"2012","7458.339"
"2013","7375.779"
"2014","7319.106"
"2015","7308.316"
"2016","7342.838"
"2017","7373.576"
"2018","7351.767"
"2019","7297.911"
"2020","7269.164"
"2021","7290.977"
"2022","7334.206"
"2023","7362.691"
"2024","7330.633"
"2025","7191.279"
"2026","6988.046"
"2027","6872.313"
"2028","6951.29"
"2029","7128.823"
"2030","7263.286"
"2031","7307.601"
"2032","7293.095"
"2033","7251.521"
"2034","7209.403"
"2035","7190.035"
"2036","7192.843"
"2037","7204"
"2038","7213.336"
"2039","7217.194"
"2040","7214.417"
"2041","7214.67"
"2042","7230.892"
"2043","7258.729"
"2044","7274.668"
"2045","7260.134"
"2046","7217.507"
"2047","7154.533"
"2048","7089.397"
"2049","7047.612"
"2050","7039.105"
"2051","7040.548"
"2052","7029.416"
"2053","7019.471"
"2054","7039.166"
"2055","7074.762"
"2056","7058.158"
"2057","6947.782"
"2058","6823.517"
"2059","6789.395"
"2060","6848.529"
"2061","6925.538"
"2062","6970.829"
"2063","6998.225"
"2064","7025.67"
"2065","7036.53"
"2066","6999.345"
"2067","6918.251"
"2068","6843.844"
"2069","6817.737"
"2070","6833.156"
"2071","6871.148"
"2072","6909.555"
"2073","6923.874"
"2074","6904.181"
"2075","6871.37"
"2076","6848.09"
"2077","6842.161"
"2078","6854.889"
"2079","6872.779"
"2080","6865.344"
"2081","6819.083"
"2082","6780.088"
"2083","6800.042"
"2084","6853.957"
"2085","6869.634"
"2086","6819.398"
"2087","6752.438"
"2088","6716.674"
"2089","6715.075"
"2090","6736.283"
"2091","6765.917"
"2092","6786.93"
"2093","6788.667"
"2094","6776.246"
"2095","6755.783"
"2096","6723.411"
"2097","6671.422"
"2098","6613.184"
"2099","6587.407"
"2100","6618.514"
"2101","6678.168"
"2102","6728.829"
"2103","6752.53"
"2104","6743.167"
"2105","6708.686"
"2106","6678.627"
"2107","6672.331"
"2108","6656.071"
"2109","6586.246"
"2110","6487.115"
"2111","6433.461"
"2112","6455.969"
"2113","6497.688"
"2114","6502.083"
"2115","6470.546"
"2116","6423.972"
"2117","6379.65"
"2118","6351.633"
"2119","6351.639"
"2120","6386.192"
"2121","6454.591"
"2122","6513.98"
"2123","6507.08"
"2124","6437.015"
"2125","6368.435"
"2126","6347.455"
"2127","6364.605"
"2128","6400.951"
"2129","6433.641"
"2130","6438.414"
"2131","6402.519"
"2132","6325.984"
"2133","6227.387"
"2134","6175.058"
"2135","6229.628"
"2136","6322.528"
"2137","6327.965"
"2138","6230.024"
"2139","6139.47"
"2140","6128.607"
"2141","6139.079"
"2142","6101.665"
"2143","6045.684"
"2144","6044.767"
"2145","6102.43"
"2146","6142.026"
"2147","6110.929"
"2148","6036.088"
"2149","5958.753"
"2150","5923.419"
"2151","5973.145"
"2152","6070.82"
"2153","6093.009"
"2154","5977.298"
"2155","5830.368"
"2156","5768.72"
"2157","5790.563"
"2158","5846.002"
"2159","5904.538"
"2160","5954.757"
"2161","5987.518"
"2162","5997.163"
"2163","5980.708"
"2164","5947.948"
"2165","5913.103"
"2166","5886.789"
"2167","5876.438"
"2168","5873.555"
"2169","5839.228"
"2170","5748.109"
"2171","5655.68"
"2172","5635.562"
"2173","5684.479"
"2174","5745.701"
"2175","5777.802"
"2176","5765.051"
"2177","5708.615"
"2178","5663.622"
"2179","5689.788"
"2180","5771.305"
"2181","5851.311"
"2182","5889.13"
"2183","5864.314"
"2184","5773.207"
"2185","5654.832"
"2186","5552.865"
"2187","5492.724"
"2188","5490.465"
"2189","5524.08"
"2190","5537.348"
"2191","5505.525"
"2192","5468.234"
"2193","5461.853"
"2194","5473.08"
"2195","5475.61"
"2196","5457.481"
"2197","5416.335"
"2198","5366.676"
"2199","5345.856"
"2200","5371.08"
"2201","5393.646"
"2202","5361.433"
"2203","5287.344"
"2204","5212.016"
"2205","5165.962"
"2206","5170.055"
"2207","5219.766"
"2208","5262.088"
"2209","5254.905"
"2210","5228.068"
"2211","5225.718"
"2212","5236.85"
"2213","5218.729"
"2214","5164.104"
"2215","5109.639"
"2216","5084.794"
"2217","5093.494"
"2218","5131.045"
"2219","5166.507"
"2220","5161.492"
"2221","5106.538"
"2222","5014.226"
"2223","4921.571"
"2224","4901.438"
"2225","4985.204"
"2226","5063.806"
"2227","5027.128"
"2228","4953.924"
"2229","4994.295"
"2230","5123.919"
"2231","5168.199"
"2232","5051.669"
"2233","4878.138"
"2234","4745.332"
"2235","4664.785"
"2236","4631.049"
"2237","4655.902"
"2238","4754.669"
"2239","4849.082"
"2240","4774.953"
"2241","4520.213"
"2242","4356.242"
"2243","4481.414"
"2244","4705.927"
"2245","4777.85"
"2246","4681.5"
"2247","4515.406"
"2248","4380.981"
"2249","4380.577"
"2250","4514.339"
"2251","4599.088"
"2252","4501.511"
"2253","4337.593"
"2254","4257.662"
"2255","4245.785"
"2256","4213.678"
"2257","4138.154"
"2258","4053.129"
"2259","3993.433"
"2260","3992.15"
"2261","4055.448"
"2262","4104.277"
"2263","4060.562"
"2264","3964.059"
"2265","3897.235"
"2266","3878.321"
"2267","3877.229"
"2268","3875.488"
"2269","3872.405"
"2270","3856.345"
"2271","3783.897"
"2272","3630.536"
"2273","3495.691"
"2274","3499.188"
"2275","3549.81"
"2276","3436.448"
"2277","3182.161"
"2278","3068.199"
"2279","3199.128"
"2280","3299.671"
"2281","3155.724"
"2282","2958.156"
"2283","2948.516"
"2284","3027.695"
"2285","2959.802"
"2286","2787.088"
"2287","2773.809"
"2288","2947.146"
"2289","2984.616"
"2290","2724.224"
"2291","2491.75"
"2292","2582.263"
"2293","2754.226"
"2294","2648.006"
"2295","2350.33"
"2296","2184.431"
"2297","2200.948"
"2298","2184.191"
"2299","2036.21"
"2300","1876.738"
