,"Scan 01012"
"400","10690.76"
"401","10691.57"
"402","10697.56"
"403","10706.76"
"404","10717.2"
"405","10726.81"
"406","10732.43"
"407","10730.39"
"408","10717.01"
"409","10689.39"
"410","10653.87"
"411","10623.28"
"412","10610.46"
"413","10627.32"
"414","10668.59"
"415","10712.98"
"416","10738.73"
"417","10724.83"
"418","10670.59"
"419","10600.34"
"420","10539.76"
"421","10514.12"
"422","10531.67"
"423","10573.34"
"424","10617.74"
"425","10643.69"
"426","10639.58"
"427","10613.72"
"428","10576.84"
"429","10539.59"
"430","10510.91"
"431","10495.24"
"432","10496.26"
"433","10517.6"
"434","10559.17"
"435","10607.95"
"436","10648.26"
"437","10664.51"
"438","10646.15"
"439","10604.42"
"440","10556.42"
"441","10519.14"
"442","10506.29"
"443","10514.21"
"444","10533.33"
"445","10554.18"
"446","10568.14"
"447","10572.26"
"448","10565.86"
"449","10548.33"
"450","10519.48"
"451","10482.95"
"452","10444.23"
"453","10408.78"
"454","10381.48"
"455","10361.42"
"456","10344.39"
"457","10326.17"
"458","10303.02"
"459","10276.84"
"460","10253.23"
"461","10237.82"
"462","10235.62"
"463","10243.45"
"464","10251.99"
"465","10251.83"
"466","10234.24"
"467","10201.14"
"468","10163.31"
"469","10131.74"
"470","10116.8"
"471","10118.36"
"472","10126.64"
"473","10131.57"
"474","10123.61"
"475","10104.02"
"476","10084.81"
"477","10078.36"
"478","10096.43"
"479","10136.84"
"480","10182.63"
"481","10216.24"
"482","10220.7"
"483","10193.71"
"484","10149.33"
"485","10102.37"
"486","10067.31"
"487","10050.18"
"488","10047.18"
"489","10054"
"490","10066.33"
"491","10078.88"
"492","10085.26"
"493","10079.01"
"494","10053.92"
"495","10010.43"
"496","9956.934"
"497","9902.3"
"498","9855.137"
"499","9817.851"
"500","9785.382"
"501","9752.248"
"502","9713.157"
"503","9667.92"
"504","9622.395"
"505","9582.759"
"506","9554.95"
"507","9538.557"
"508","9525.861"
"509","9508.771"
"510","9479.493"
"511","9437.12"
"512","9388.379"
"513","9340.347"
"514","9299.878"
"515","9268.993"
"516","9244.675"
"517","9223.674"
"518","9202.945"
"519","9183.58"
"520","9170.709"
"521","9169.598"
"522","9185.071"
"523","9213.909"
"524","9245.642"
"525","9269.593"
"526","9275.643"
"527","9261.986"
"528","9233.633"
"529","9195.763"
"530","9153.409"
"531","9109.874"
"532","9067.179"
"533","9027.311"
"534","8992.255"
"535","8964.176"
"536","8945.337"
"537","8938"
"538","8943.841"
"539","8958.871"
"540","8975.919"
"541","8987.812"
"542","8988.512"
"543","8980.994"
"544","8972.604"
"545","8970.672"
"546","8980.694"
"547","8996.115"
"548","9005.479"
"549","8997.376"
"550","8963.573"
"551","8912.9"
"552","8859.912"
"553","8819.095"
"554","8801.319"
"555","8801.811"
"556","8811.543"
"557","8821.533"
"558","8825.107"
"559","8823.552"
"560","8819.869"
"561","8817.052"
"562","8816.324"
"563","8814.078"
"564","8805.905"
"565","8787.436"
"566","8759.094"
"567","8731.575"
"568","8716.867"
"569","8726.756"
"570","8762.197"
"571","8805.988"
"572","8839.274"
"573","8843.651"
"574","8815.279"
"575","8769.223"
"576","8721.745"
"577","8688.571"
"578","8674.502"
"579","8673.435"
"580","8678.818"
"581","8684.391"
"582","8687.704"
"583","8689.219"
"584","8689.46"
"585","8688.94"
"586","8688.03"
"587","8687.021"
"588","8686.207"
"589","8685.925"
"590","8686.842"
"591","8689.755"
"592","8695.462"
"593","8704.273"
"594","8714.278"
"595","8722.914"
"596","8727.63"
"597","8726.561"
"598","8720.005"
"599","8708.689"
"600","8693.343"
"601","8674.928"
"602","8654.921"
"603","8634.867"
"604","8616.308"
"605","8600.865"
"606","8590.303"
"607","8586.387"
"608","8590.758"
"609","8602.014"
"610","8615.505"
"611","8626.435"
"612","8630.357"
"613","8627.362"
"614","8620.877"
"615","8614.387"
"616","8610.685"
"617","8606.886"
"618","8597.313"
"619","8576.296"
"620","8540.49"
"621","8498.421"
"622","8462.38"
"623","8444.611"
"624","8452.27"
"625","8476.306"
"626","8504.466"
"627","8524.581"
"628","8530.163"
"629","8526.133"
"630","8518.773"
"631","8514.245"
"632","8515.116"
"633","8519.321"
"634","8524.497"
"635","8528.409"
"636","8530.92"
"637","8533.608"
"638","8538.104"
"639","8545.548"
"640","8552.854"
"641","8554.751"
"642","8545.968"
"643","8522.772"
"644","8488.976"
"645","8450.723"
"646","8414.14"
"647","8384.901"
"648","8367.438"
"649","8365.948"
"650","8384.525"
"651","8420.521"
"652","8459.897"
"653","8487.56"
"654","8489.091"
"655","8465.169"
"656","8431.767"
"657","8405.488"
"658","8401.363"
"659","8418.104"
"660","8444.607"
"661","8469.665"
"662","8484.095"
"663","8489.728"
"664","8492.151"
"665","8496.941"
"666","8506.841"
"667","8516.195"
"668","8517.827"
"669","8504.67"
"670","8476.344"
"671","8443.442"
"672","8417.554"
"673","8409.749"
"674","8421.302"
"675","8444.355"
"676","8470.724"
"677","8492.667"
"678","8506.181"
"679","8509.2"
"680","8499.694"
"681","8477.655"
"682","8451.965"
"683","8433.908"
"684","8434.716"
"685","8458.589"
"686","8494.057"
"687","8527.542"
"688","8545.766"
"689","8543.957"
"690","8527.507"
"691","8502.394"
"692","8474.384"
"693","8446.951"
"694","8422.102"
"695","8401.813"
"696","8387.712"
"697","8379.628"
"698","8376.793"
"699","8378.447"
"700","8383.827"
"701","8392.178"
"702","8402.739"
"703","8414.729"
"704","8426.207"
"705","8433.755"
"706","8433.869"
"707","8423.438"
"708","8404.012"
"709","8380.201"
"710","8356.667"
"711","8337.996"
"712","8328.479"
"713","8332.306"
"714","8353.634"
"715","8391.577"
"716","8433.335"
"717","8464.4"
"718","8470.773"
"719","8452.562"
"720","8426.104"
"721","8408.604"
"722","8415.22"
"723","8441.437"
"724","8471.665"
"725","8490.212"
"726","8485.766"
"727","8464.873"
"728","8438.647"
"729","8418.14"
"730","8410.589"
"731","8416.231"
"732","8434.565"
"733","8464.789"
"734","8500.849"
"735","8532.113"
"736","8547.829"
"737","8539.345"
"738","8511.664"
"739","8475.226"
"740","8440.463"
"741","8415.151"
"742","8399.916"
"743","8394.173"
"744","8397.327"
"745","8408.084"
"746","8424.318"
"747","8443.856"
"748","8464.396"
"749","8482.466"
"750","8493.932"
"751","8494.668"
"752","8483.013"
"753","8466.343"
"754","8454.078"
"755","8455.524"
"756","8473.376"
"757","8500.215"
"758","8527.762"
"759","8548.17"
"760","8558.728"
"761","8560.201"
"762","8553.417"
"763","8540.367"
"764","8528.215"
"765","8525.56"
"766","8540.895"
"767","8574.131"
"768","8609.938"
"769","8631.435"
"770","8623.191"
"771","8590.722"
"772","8555.405"
"773","8538.997"
"774","8557.618"
"775","8599.946"
"776","8646.271"
"777","8677.01"
"778","8683.332"
"779","8676.53"
"780","8670.088"
"781","8676.711"
"782","8697.612"
"783","8725.129"
"784","8751.374"
"785","8769.574"
"786","8778.3"
"787","8777.743"
"788","8768.11"
"789","8751.18"
"790","8731.543"
"791","8714.083"
"792","8703.412"
"793","8700.563"
"794","8703.997"
"795","8712.116"
"796","8722.848"
"797","8732.063"
"798","8735.082"
"799","8727.332"
"800","8710.665"
"801","8696.978"
"802","8699.033"
"803","8727.904"
"804","8776.492"
"805","8826.613"
"806","8859.936"
"807","8863.627"
"808","8843.831"
"809","8810.788"
"810","8774.699"
"811","8744.561"
"812","8727.871"
"813","8732.031"
"814","8762.69"
"815","8811.899"
"816","8865.306"
"817","8908.537"
"818","8930.974"
"819","8931.498"
"820","8910.475"
"821","8868.71"
"822","8815.938"
"823","8770.112"
"824","8749.492"
"825","8767.228"
"826","8809.827"
"827","8855.125"
"828","8881.107"
"829","8877.407"
"830","8853.699"
"831","8821.629"
"832","8792.442"
"833","8773.052"
"834","8767.682"
"835","8780.517"
"836","8812.435"
"837","8853.672"
"838","8892.325"
"839","8916.813"
"840","8923.877"
"841","8919.354"
"842","8909.534"
"843","8900.076"
"844","8892.812"
"845","8888.148"
"846","8886.482"
"847","8887.202"
"848","8887.828"
"849","8885.682"
"850","8878.61"
"851","8870.536"
"852","8869.248"
"853","8882.6"
"854","8914.088"
"855","8953.488"
"856","8987.876"
"857","9004.776"
"858","9002.419"
"859","8989.976"
"860","8977.116"
"861","8972.089"
"862","8975.643"
"863","8986.049"
"864","9001.554"
"865","9018.616"
"866","9030.877"
"867","9031.724"
"868","9015.938"
"869","8990.462"
"870","8968.521"
"871","8963.382"
"872","8982.006"
"873","9016.25"
"874","9055.745"
"875","9090.454"
"876","9115.155"
"877","9128.306"
"878","9128.457"
"879","9116.099"
"880","9098.674"
"881","9085.191"
"882","9084.354"
"883","9096.793"
"884","9114.472"
"885","9128.913"
"886","9133.342"
"887","9129.832"
"888","9123.348"
"889","9118.81"
"890","9119.128"
"891","9124.254"
"892","9133.91"
"893","9147.646"
"894","9163.771"
"895","9180.042"
"896","9194.223"
"897","9205.675"
"898","9216.862"
"899","9230.61"
"900","9249.183"
"901","9269.109"
"902","9283.554"
"903","9285.646"
"904","9272.933"
"905","9254.057"
"906","9239.378"
"907","9238.664"
"908","9253.407"
"909","9279"
"910","9310.694"
"911","9343.528"
"912","9371.86"
"913","9389.921"
"914","9392.31"
"915","9380.701"
"916","9363.055"
"917","9347.551"
"918","9340.354"
"919","9339.896"
"920","9342.746"
"921","9345.578"
"922","9347.514"
"923","9350.225"
"924","9355.493"
"925","9364.397"
"926","9374.803"
"927","9383.679"
"928","9388.027"
"929","9385.935"
"930","9376.77"
"931","9359.968"
"932","9336.268"
"933","9312.999"
"934","9299.582"
"935","9305.163"
"936","9328.397"
"937","9354.493"
"938","9367.782"
"939","9356.491"
"940","9330.434"
"941","9306.839"
"942","9302.63"
"943","9321.319"
"944","9348.219"
"945","9367.337"
"946","9365.644"
"947","9347.282"
"948","9322.569"
"949","9301.72"
"950","9289.774"
"951","9284.581"
"952","9283.456"
"953","9283.979"
"954","9285.297"
"955","9287.126"
"956","9289.192"
"957","9291.638"
"958","9295.195"
"959","9300.634"
"960","9308.502"
"961","9318.043"
"962","9328.043"
"963","9337.219"
"964","9341.515"
"965","9333.187"
"966","9304.243"
"967","9250.485"
"968","9188.091"
"969","9140.016"
"970","9128.737"
"971","9159.13"
"972","9214.281"
"973","9275.914"
"974","9327.369"
"975","9359.884"
"976","9367.079"
"977","9343.018"
"978","9294.437"
"979","9242.266"
"980","9208.205"
"981","9207.628"
"982","9229.058"
"983","9253.867"
"984","9264.063"
"985","9255.748"
"986","9238.911"
"987","9224.134"
"988","9219.095"
"989","9221.02"
"990","9224.778"
"991","9225.486"
"992","9222.482"
"993","9218.653"
"994","9216.996"
"995","9220.249"
"996","9230.409"
"997","9249.332"
"998","9278.386"
"999","9312.629"
"1000","9342.749"
"1001","9359.36"
"1002","9358.185"
"1003","9347.018"
"1004","9335.403"
"1005","9332.886"
"1006","9347.094"
"1007","9372.729"
"1008","9399.161"
"1009","9415.829"
"1010","9416.643"
"1011","9401.922"
"1012","9372.482"
"1013","9331.018"
"1014","9290.407"
"1015","9266.979"
"1016","9276.526"
"1017","9317.716"
"1018","9369.087"
"1019","9408.02"
"1020","9417.616"
"1021","9405.207"
"1022","9384.516"
"1023","9368.889"
"1024","9363.854"
"1025","9367.696"
"1026","9378.429"
"1027","9394.487"
"1028","9415.667"
"1029","9442.023"
"1030","9473.25"
"1031","9504.307"
"1032","9526.828"
"1033","9532.4"
"1034","9518.424"
"1035","9495.484"
"1036","9476"
"1037","9470.924"
"1038","9478.627"
"1039","9491.102"
"1040","9500.361"
"1041","9503.325"
"1042","9504.761"
"1043","9510.136"
"1044","9523.233"
"1045","9538.465"
"1046","9547.002"
"1047","9540.376"
"1048","9520.175"
"1049","9499.013"
"1050","9490.076"
"1051","9501.545"
"1052","9523.929"
"1053","9543.836"
"1054","9548.969"
"1055","9542.171"
"1056","9537.277"
"1057","9548.332"
"1058","9581.233"
"1059","9624.049"
"1060","9662.473"
"1061","9683.705"
"1062","9686.313"
"1063","9674.025"
"1064","9650.676"
"1065","9623.286"
"1066","9603.16"
"1067","9601.911"
"1068","9625.973"
"1069","9659.899"
"1070","9682.468"
"1071","9674.052"
"1072","9640.99"
"1073","9610.629"
"1074","9610.872"
"1075","9653.503"
"1076","9712.689"
"1077","9757.226"
"1078","9760.731"
"1079","9733.682"
"1080","9703.541"
"1081","9697.295"
"1082","9719.351"
"1083","9744.816"
"1084","9746.828"
"1085","9708.492"
"1086","9651.156"
"1087","9605.338"
"1088","9599.19"
"1089","9629.276"
"1090","9669.796"
"1091","9694.565"
"1092","9690.605"
"1093","9670.389"
"1094","9649.305"
"1095","9640.666"
"1096","9645.78"
"1097","9661.624"
"1098","9684.854"
"1099","9705.011"
"1100","9704.624"
"1101","9665.944"
"1102","9585.859"
"1103","9500.283"
"1104","9451.574"
"1105","9475.136"
"1106","9550.069"
"1107","9628.25"
"1108","9662.261"
"1109","9637.836"
"1110","9582.417"
"1111","9526.123"
"1112","9491.67"
"1113","9476.61"
"1114","9473.172"
"1115","9474.05"
"1116","9476.868"
"1117","9482.153"
"1118","9490.435"
"1119","9500.998"
"1120","9511.268"
"1121","9518.518"
"1122","9520.608"
"1123","9517.695"
"1124","9510.506"
"1125","9500.063"
"1126","9490.915"
"1127","9489.911"
"1128","9503.806"
"1129","9529.932"
"1130","9550.614"
"1131","9546.826"
"1132","9507.183"
"1133","9452.083"
"1134","9410.204"
"1135","9407.754"
"1136","9440.812"
"1137","9485.406"
"1138","9517.404"
"1139","9526.382"
"1140","9523.557"
"1141","9522.06"
"1142","9530.879"
"1143","9542.477"
"1144","9545.203"
"1145","9528.787"
"1146","9498.299"
"1147","9468.345"
"1148","9453.522"
"1149","9460.285"
"1150","9483.406"
"1151","9516.748"
"1152","9553.541"
"1153","9584.843"
"1154","9601.229"
"1155","9594.796"
"1156","9571.406"
"1157","9544.269"
"1158","9526.418"
"1159","9522.805"
"1160","9528.692"
"1161","9538.771"
"1162","9549.116"
"1163","9559.633"
"1164","9570.872"
"1165","9582.8"
"1166","9591.399"
"1167","9590.991"
"1168","9576.182"
"1169","9547.415"
"1170","9510.529"
"1171","9471.567"
"1172","9437.14"
"1173","9414.953"
"1174","9412.869"
"1175","9435.823"
"1176","9475.102"
"1177","9518.007"
"1178","9552.356"
"1179","9572.194"
"1180","9575.63"
"1181","9560.966"
"1182","9532.168"
"1183","9500.955"
"1184","9479.612"
"1185","9476.112"
"1186","9485.641"
"1187","9501.022"
"1188","9515.938"
"1189","9529.927"
"1190","9544.97"
"1191","9562.956"
"1192","9583.912"
"1193","9606.256"
"1194","9628.336"
"1195","9647.72"
"1196","9660.597"
"1197","9663.008"
"1198","9652.912"
"1199","9635.468"
"1200","9617.521"
"1201","9605.728"
"1202","9605.035"
"1203","9619.528"
"1204","9652.822"
"1205","9697.733"
"1206","9736.329"
"1207","9750.288"
"1208","9732.843"
"1209","9699.885"
"1210","9669.938"
"1211","9657.234"
"1212","9658.59"
"1213","9666.402"
"1214","9673.513"
"1215","9676.613"
"1216","9674.394"
"1217","9665.671"
"1218","9651.835"
"1219","9636.817"
"1220","9624.675"
"1221","9620.809"
"1222","9633.137"
"1223","9669.859"
"1224","9731.973"
"1225","9793.918"
"1226","9823.987"
"1227","9796.088"
"1228","9726.655"
"1229","9651.539"
"1230","9605.359"
"1231","9599.057"
"1232","9623.509"
"1233","9668.908"
"1234","9723.073"
"1235","9770.186"
"1236","9794.107"
"1237","9786.299"
"1238","9759.941"
"1239","9732.079"
"1240","9716.896"
"1241","9712.689"
"1242","9712.315"
"1243","9709.48"
"1244","9707.576"
"1245","9716.068"
"1246","9744.062"
"1247","9787.961"
"1248","9830.233"
"1249","9852.706"
"1250","9848.084"
"1251","9829.948"
"1252","9814.238"
"1253","9812.938"
"1254","9824.296"
"1255","9843.59"
"1256","9865.271"
"1257","9878.497"
"1258","9870.345"
"1259","9829.906"
"1260","9771.66"
"1261","9727.398"
"1262","9728.143"
"1263","9772.169"
"1264","9820.484"
"1265","9832.279"
"1266","9792.921"
"1267","9737.533"
"1268","9706.828"
"1269","9726.438"
"1270","9772.876"
"1271","9812.65"
"1272","9818.038"
"1273","9794.192"
"1274","9757.894"
"1275","9725.291"
"1276","9705.729"
"1277","9704.558"
"1278","9726.57"
"1279","9766.084"
"1280","9807.52"
"1281","9835.079"
"1282","9842.715"
"1283","9838.969"
"1284","9833.57"
"1285","9832.861"
"1286","9835.032"
"1287","9837.08"
"1288","9836.142"
"1289","9829.954"
"1290","9816.38"
"1291","9794.376"
"1292","9769.917"
"1293","9751.795"
"1294","9747.951"
"1295","9756.727"
"1296","9770.451"
"1297","9781.771"
"1298","9792.012"
"1299","9810.752"
"1300","9847.628"
"1301","9898.538"
"1302","9939.757"
"1303","9946.127"
"1304","9909.246"
"1305","9856.895"
"1306","9821.591"
"1307","9824.271"
"1308","9847.534"
"1309","9866.032"
"1310","9860.063"
"1311","9838.9"
"1312","9821.077"
"1313","9822.465"
"1314","9837.479"
"1315","9850.252"
"1316","9846.087"
"1317","9826.386"
"1318","9803.795"
"1319","9790.728"
"1320","9788.868"
"1321","9789.215"
"1322","9782.43"
"1323","9765.096"
"1324","9742.132"
"1325","9719.074"
"1326","9700.196"
"1327","9687.258"
"1328","9681.724"
"1329","9684.408"
"1330","9694.298"
"1331","9710.059"
"1332","9729.348"
"1333","9745.716"
"1334","9751.662"
"1335","9741.864"
"1336","9723.737"
"1337","9709.31"
"1338","9709.009"
"1339","9719.584"
"1340","9730.911"
"1341","9733.208"
"1342","9721.72"
"1343","9695.101"
"1344","9652.644"
"1345","9604.658"
"1346","9571.433"
"1347","9572.994"
"1348","9608.884"
"1349","9654.193"
"1350","9682.791"
"1351","9682.84"
"1352","9664.84"
"1353","9641.239"
"1354","9623.184"
"1355","9619.161"
"1356","9637.321"
"1357","9676.383"
"1358","9709.778"
"1359","9706.722"
"1360","9650.858"
"1361","9576.645"
"1362","9529.734"
"1363","9543.15"
"1364","9591.69"
"1365","9633.396"
"1366","9634.104"
"1367","9606.376"
"1368","9580.066"
"1369","9580.985"
"1370","9603.151"
"1371","9625.707"
"1372","9629.379"
"1373","9611.983"
"1374","9581.273"
"1375","9545.18"
"1376","9512.132"
"1377","9490.924"
"1378","9489.771"
"1379","9506.135"
"1380","9528.184"
"1381","9544.141"
"1382","9551.311"
"1383","9556.415"
"1384","9566.418"
"1385","9581.184"
"1386","9591.801"
"1387","9588.945"
"1388","9569.761"
"1389","9540.843"
"1390","9509.529"
"1391","9482.5"
"1392","9465.3"
"1393","9463.323"
"1394","9476.353"
"1395","9492.945"
"1396","9500.318"
"1397","9491.624"
"1398","9473.784"
"1399","9455.683"
"1400","9443.144"
"1401","9433.78"
"1402","9423.839"
"1403","9413.203"
"1404","9412.964"
"1405","9436.37"
"1406","9487.429"
"1407","9537.647"
"1408","9551.381"
"1409","9506.594"
"1410","9435.392"
"1411","9383.331"
"1412","9383.722"
"1413","9415.273"
"1414","9441.509"
"1415","9433.873"
"1416","9403.033"
"1417","9371.747"
"1418","9358.654"
"1419","9359.955"
"1420","9364.265"
"1421","9363.091"
"1422","9365.082"
"1423","9385.185"
"1424","9434.011"
"1425","9494.347"
"1426","9538.006"
"1427","9542.324"
"1428","9522.799"
"1429","9510.924"
"1430","9533.342"
"1431","9580.799"
"1432","9628.175"
"1433","9653.636"
"1434","9661.151"
"1435","9666.604"
"1436","9684.04"
"1437","9712.233"
"1438","9742.671"
"1439","9767.051"
"1440","9779.245"
"1441","9774.187"
"1442","9748.41"
"1443","9711.752"
"1444","9680.683"
"1445","9670.05"
"1446","9680.407"
"1447","9705.134"
"1448","9736.878"
"1449","9762.675"
"1450","9766.723"
"1451","9735.998"
"1452","9680.917"
"1453","9623.575"
"1454","9584.411"
"1455","9569.51"
"1456","9577.946"
"1457","9606.996"
"1458","9640.097"
"1459","9654.078"
"1460","9629.568"
"1461","9576.484"
"1462","9518.199"
"1463","9475.079"
"1464","9445.008"
"1465","9416.006"
"1466","9378.576"
"1467","9340.549"
"1468","9316.972"
"1469","9319.098"
"1470","9333.841"
"1471","9338.569"
"1472","9314.538"
"1473","9266.047"
"1474","9205.776"
"1475","9147.005"
"1476","9106.035"
"1477","9100.203"
"1478","9138.826"
"1479","9191.915"
"1480","9217.426"
"1481","9185.509"
"1482","9120.337"
"1483","9061.014"
"1484","9037.841"
"1485","9046.225"
"1486","9072.954"
"1487","9106.224"
"1488","9139.164"
"1489","9165.976"
"1490","9180.072"
"1491","9172.444"
"1492","9133.63"
"1493","9065.777"
"1494","9002.145"
"1495","8981.098"
"1496","9017.548"
"1497","9071.75"
"1498","9096.343"
"1499","9069.396"
"1500","9020.109"
"1501","8983.617"
"1502","8977.731"
"1503","8990.353"
"1504","9006.48"
"1505","9014.835"
"1506","9009.636"
"1507","8985.796"
"1508","8947.521"
"1509","8910.661"
"1510","8891.367"
"1511","8894.724"
"1512","8914.123"
"1513","8942.471"
"1514","8974.287"
"1515","9005.519"
"1516","9031.888"
"1517","9045.466"
"1518","9035.642"
"1519","8993.792"
"1520","8933.106"
"1521","8879.92"
"1522","8857.964"
"1523","8867.978"
"1524","8899.498"
"1525","8940.511"
"1526","8969.789"
"1527","8962.503"
"1528","8903.072"
"1529","8821.352"
"1530","8761.109"
"1531","8752.638"
"1532","8775.179"
"1533","8795.9"
"1534","8793.994"
"1535","8783.611"
"1536","8785.164"
"1537","8806.842"
"1538","8829.554"
"1539","8830.682"
"1540","8802.226"
"1541","8761.312"
"1542","8727.267"
"1543","8707.852"
"1544","8695.528"
"1545","8682.19"
"1546","8671.504"
"1547","8679.064"
"1548","8719.264"
"1549","8780.024"
"1550","8828.81"
"1551","8836.231"
"1552","8810.492"
"1553","8781.639"
"1554","8775.646"
"1555","8787.75"
"1556","8800.007"
"1557","8797.878"
"1558","8784.086"
"1559","8766.691"
"1560","8750.416"
"1561","8728.275"
"1562","8690.746"
"1563","8638.854"
"1564","8599.72"
"1565","8604.176"
"1566","8658.156"
"1567","8723.684"
"1568","8758.959"
"1569","8747.995"
"1570","8707.454"
"1571","8655.967"
"1572","8609.426"
"1573","8581.238"
"1574","8582.951"
"1575","8605.436"
"1576","8626.3"
"1577","8626.981"
"1578","8618.81"
"1579","8626.433"
"1580","8666.141"
"1581","8713.606"
"1582","8732.31"
"1583","8702.114"
"1584","8654.867"
"1585","8632.562"
"1586","8652.49"
"1587","8679.922"
"1588","8674.22"
"1589","8628.74"
"1590","8585.16"
"1591","8586.638"
"1592","8628.091"
"1593","8657.949"
"1594","8628.214"
"1595","8555.267"
"1596","8497.156"
"1597","8503.336"
"1598","8558.261"
"1599","8618.813"
"1600","8650.968"
"1601","8660.281"
"1602","8662.929"
"1603","8667.121"
"1604","8659.775"
"1605","8624.486"
"1606","8561.698"
"1607","8500.469"
"1608","8471.84"
"1609","8484.256"
"1610","8521.378"
"1611","8566.061"
"1612","8607.5"
"1613","8639.349"
"1614","8655.926"
"1615","8655.791"
"1616","8639.382"
"1617","8610.006"
"1618","8583.17"
"1619","8577.619"
"1620","8600.309"
"1621","8628.393"
"1622","8634.709"
"1623","8612.111"
"1624","8584.252"
"1625","8576.324"
"1626","8589.961"
"1627","8604.379"
"1628","8600.17"
"1629","8581.232"
"1630","8565.032"
"1631","8565.728"
"1632","8578.165"
"1633","8590.571"
"1634","8593.45"
"1635","8584.443"
"1636","8562.641"
"1637","8533.488"
"1638","8513.837"
"1639","8521.134"
"1640","8557.009"
"1641","8606.25"
"1642","8653.105"
"1643","8685.237"
"1644","8692.428"
"1645","8669.34"
"1646","8638.597"
"1647","8632.842"
"1648","8669.91"
"1649","8721.418"
"1650","8750.302"
"1651","8745.68"
"1652","8741.944"
"1653","8776.13"
"1654","8842.327"
"1655","8892.13"
"1656","8881.06"
"1657","8821.159"
"1658","8756.233"
"1659","8721.789"
"1660","8711.024"
"1661","8704.289"
"1662","8689.601"
"1663","8674.466"
"1664","8669.202"
"1665","8672.777"
"1666","8668.479"
"1667","8639.971"
"1668","8593.784"
"1669","8553.975"
"1670","8541.478"
"1671","8553.133"
"1672","8575.844"
"1673","8596.009"
"1674","8598.498"
"1675","8568.06"
"1676","8507.295"
"1677","8449.543"
"1678","8429.318"
"1679","8442.859"
"1680","8451.08"
"1681","8420.016"
"1682","8368.681"
"1683","8341.946"
"1684","8367.95"
"1685","8409.379"
"1686","8413.384"
"1687","8363.68"
"1688","8313.825"
"1689","8322.564"
"1690","8386.177"
"1691","8439.064"
"1692","8421.933"
"1693","8353.22"
"1694","8291.005"
"1695","8277.115"
"1696","8288.197"
"1697","8285.069"
"1698","8248.086"
"1699","8194.317"
"1700","8144.712"
"1701","8115.959"
"1702","8120.719"
"1703","8167.376"
"1704","8231.989"
"1705","8275.328"
"1706","8271.744"
"1707","8243.439"
"1708","8222.854"
"1709","8226.495"
"1710","8244.708"
"1711","8265.314"
"1712","8274.943"
"1713","8259.248"
"1714","8208.771"
"1715","8144.822"
"1716","8100.589"
"1717","8096.712"
"1718","8119.311"
"1719","8148.738"
"1720","8169.632"
"1721","8172.137"
"1722","8148.774"
"1723","8114.118"
"1724","8096.287"
"1725","8114.398"
"1726","8146.89"
"1727","8161.165"
"1728","8145.373"
"1729","8127.591"
"1730","8138.634"
"1731","8174.166"
"1732","8198.35"
"1733","8180.869"
"1734","8135.984"
"1735","8096.188"
"1736","8084.556"
"1737","8097.986"
"1738","8128.765"
"1739","8164.243"
"1740","8185.75"
"1741","8176.923"
"1742","8147.443"
"1743","8121.502"
"1744","8116.509"
"1745","8123.817"
"1746","8128.802"
"1747","8124.233"
"1748","8114.544"
"1749","8105.286"
"1750","8103.08"
"1751","8115.307"
"1752","8145.022"
"1753","8174.707"
"1754","8180.841"
"1755","8154.31"
"1756","8113.578"
"1757","8079.604"
"1758","8062.205"
"1759","8061.939"
"1760","8077.217"
"1761","8096.019"
"1762","8102.718"
"1763","8092.163"
"1764","8082.098"
"1765","8092.198"
"1766","8119.555"
"1767","8140.402"
"1768","8133.965"
"1769","8103.111"
"1770","8059.769"
"1771","8017.643"
"1772","7994.51"
"1773","8007.445"
"1774","8045.185"
"1775","8069.16"
"1776","8048.268"
"1777","8006.384"
"1778","7988.867"
"1779","8017.216"
"1780","8056.908"
"1781","8067.238"
"1782","8046.895"
"1783","8031.809"
"1784","8051.898"
"1785","8091.384"
"1786","8117.403"
"1787","8114.74"
"1788","8107.023"
"1789","8121.103"
"1790","8147.856"
"1791","8146.762"
"1792","8088.157"
"1793","8006.917"
"1794","7959.377"
"1795","7970.929"
"1796","8007.132"
"1797","8028.638"
"1798","8025.115"
"1799","8008.213"
"1800","7990.038"
"1801","7982.19"
"1802","7995.941"
"1803","8028.449"
"1804","8054.313"
"1805","8049.066"
"1806","8021.301"
"1807","8000.04"
"1808","8003.511"
"1809","8011.327"
"1810","7995.514"
"1811","7957.553"
"1812","7935.806"
"1813","7963.624"
"1814","8016.433"
"1815","8042.471"
"1816","8012.602"
"1817","7955.572"
"1818","7908.509"
"1819","7894.017"
"1820","7921.254"
"1821","7991.427"
"1822","8066.236"
"1823","8094.589"
"1824","8056.005"
"1825","7984.035"
"1826","7916.086"
"1827","7869.545"
"1828","7848.931"
"1829","7855.376"
"1830","7879.123"
"1831","7908.104"
"1832","7931.707"
"1833","7941.03"
"1834","7929.839"
"1835","7909.41"
"1836","7898.238"
"1837","7906.385"
"1838","7926.066"
"1839","7947.282"
"1840","7961.181"
"1841","7959.742"
"1842","7940.666"
"1843","7923.671"
"1844","7933.064"
"1845","7964.95"
"1846","7979.847"
"1847","7945.259"
"1848","7894.925"
"1849","7891.027"
"1850","7955.583"
"1851","8024.926"
"1852","8029.861"
"1853","7977.269"
"1854","7928.958"
"1855","7929.706"
"1856","7957.924"
"1857","7977.645"
"1858","7973.228"
"1859","7952.47"
"1860","7925.948"
"1861","7913.115"
"1862","7936.566"
"1863","7994.289"
"1864","8039.836"
"1865","8028.298"
"1866","7980.949"
"1867","7958.551"
"1868","7993.038"
"1869","8033.339"
"1870","8017.124"
"1871","7947.255"
"1872","7885.06"
"1873","7880.134"
"1874","7920.768"
"1875","7978.448"
"1876","8027.542"
"1877","8046.214"
"1878","8018.192"
"1879","7963.349"
"1880","7916.391"
"1881","7897.957"
"1882","7902.119"
"1883","7919.334"
"1884","7933.188"
"1885","7923.181"
"1886","7884.396"
"1887","7853.531"
"1888","7871.186"
"1889","7928.299"
"1890","7975.38"
"1891","7975.208"
"1892","7941.196"
"1893","7898.42"
"1894","7866.458"
"1895","7858.905"
"1896","7883.855"
"1897","7922.572"
"1898","7948.101"
"1899","7954.103"
"1900","7963.436"
"1901","7995.209"
"1902","8026.977"
"1903","8018.983"
"1904","7960.928"
"1905","7895.914"
"1906","7868.214"
"1907","7880.14"
"1908","7911.471"
"1909","7944.559"
"1910","7968.166"
"1911","7972.908"
"1912","7961.529"
"1913","7944.79"
"1914","7931.782"
"1915","7926.484"
"1916","7931.378"
"1917","7939.226"
"1918","7935.083"
"1919","7911.118"
"1920","7884.043"
"1921","7874.4"
"1922","7875.772"
"1923","7856.902"
"1924","7800.116"
"1925","7744.869"
"1926","7742.542"
"1927","7789.546"
"1928","7824.789"
"1929","7804.212"
"1930","7772.752"
"1931","7797.969"
"1932","7874.216"
"1933","7911.013"
"1934","7841.002"
"1935","7736.403"
"1936","7710.391"
"1937","7784.65"
"1938","7866.158"
"1939","7873.626"
"1940","7829.025"
"1941","7788.333"
"1942","7783.971"
"1943","7817.13"
"1944","7881.774"
"1945","7943.256"
"1946","7957.586"
"1947","7914.3"
"1948","7848.679"
"1949","7794.623"
"1950","7758.603"
"1951","7737.309"
"1952","7726.712"
"1953","7721.846"
"1954","7719.759"
"1955","7729.45"
"1956","7763.64"
"1957","7812.016"
"1958","7833.3"
"1959","7794.799"
"1960","7723.794"
"1961","7667.585"
"1962","7650.043"
"1963","7664.759"
"1964","7702.426"
"1965","7749.152"
"1966","7789.55"
"1967","7809.259"
"1968","7795.16"
"1969","7742.209"
"1970","7683.219"
"1971","7661.044"
"1972","7684.384"
"1973","7724.281"
"1974","7751.417"
"1975","7743.541"
"1976","7681.872"
"1977","7585.239"
"1978","7509.517"
"1979","7496.754"
"1980","7532.508"
"1981","7589.263"
"1982","7636.653"
"1983","7641.855"
"1984","7593.926"
"1985","7549.509"
"1986","7572.206"
"1987","7640.437"
"1988","7670.522"
"1989","7621.081"
"1990","7562.002"
"1991","7570.74"
"1992","7617.535"
"1993","7608.133"
"1994","7509.228"
"1995","7414.898"
"1996","7420.329"
"1997","7499.644"
"1998","7568.481"
"1999","7582.19"
"2000","7561.936"
"2001","7531.469"
"2002","7492.677"
"2003","7439.698"
"2004","7386.81"
"2005","7374.072"
"2006","7427.114"
"2007","7497.46"
"2008","7517.947"
"2009","7480.326"
"2010","7434.193"
"2011","7416.542"
"2012","7413.887"
"2013","7403.435"
"2014","7379.652"
"2015","7349.697"
"2016","7321.714"
"2017","7305.438"
"2018","7308.595"
"2019","7318.149"
"2020","7310.13"
"2021","7276.285"
"2022","7235.256"
"2023","7208.88"
"2024","7221.915"
"2025","7298.766"
"2026","7413.825"
"2027","7481.617"
"2028","7442.996"
"2029","7358.938"
"2030","7316.218"
"2031","7327.847"
"2032","7345.701"
"2033","7335.931"
"2034","7306.949"
"2035","7272.929"
"2036","7237.87"
"2037","7200.232"
"2038","7167.175"
"2039","7160.716"
"2040","7197.99"
"2041","7259.242"
"2042","7311.857"
"2043","7334.601"
"2044","7318.864"
"2045","7265.945"
"2046","7209.395"
"2047","7186.375"
"2048","7187.077"
"2049","7168.587"
"2050","7115.701"
"2051","7073.179"
"2052","7084.042"
"2053","7123.608"
"2054","7138.562"
"2055","7107.633"
"2056","7051"
"2057","6989.955"
"2058","6939.058"
"2059","6910.429"
"2060","6903.978"
"2061","6910.088"
"2062","6918.523"
"2063","6918.285"
"2064","6901.826"
"2065","6888.459"
"2066","6908.898"
"2067","6961.138"
"2068","7000.468"
"2069","6992.829"
"2070","6957.969"
"2071","6927.371"
"2072","6909.546"
"2073","6895.93"
"2074","6886.374"
"2075","6899.273"
"2076","6948.304"
"2077","6999.859"
"2078","7002.248"
"2079","6943.855"
"2080","6859.225"
"2081","6783.126"
"2082","6742.207"
"2083","6757.924"
"2084","6811.779"
"2085","6860.63"
"2086","6882.842"
"2087","6893.99"
"2088","6908.479"
"2089","6916.34"
"2090","6900.768"
"2091","6861.393"
"2092","6812.438"
"2093","6765.386"
"2094","6723.793"
"2095","6691.401"
"2096","6681.847"
"2097","6712.414"
"2098","6773.338"
"2099","6822.311"
"2100","6828.407"
"2101","6805.31"
"2102","6774.857"
"2103","6746.732"
"2104","6723.404"
"2105","6707.299"
"2106","6700.941"
"2107","6702.399"
"2108","6690.33"
"2109","6639.797"
"2110","6551.738"
"2111","6446.61"
"2112","6359.937"
"2113","6355.183"
"2114","6473.256"
"2115","6613.505"
"2116","6634.859"
"2117","6548.836"
"2118","6503.265"
"2119","6572.042"
"2120","6648.328"
"2121","6622.16"
"2122","6528.929"
"2123","6459.529"
"2124","6442.792"
"2125","6444.187"
"2126","6432.565"
"2127","6393.169"
"2128","6321.072"
"2129","6264.24"
"2130","6291.144"
"2131","6382.915"
"2132","6423.923"
"2133","6351.055"
"2134","6262.558"
"2135","6265.559"
"2136","6315.678"
"2137","6300.387"
"2138","6201.688"
"2139","6110.689"
"2140","6094.675"
"2141","6134.933"
"2142","6196.661"
"2143","6239.381"
"2144","6221.64"
"2145","6155.985"
"2146","6116.459"
"2147","6144.682"
"2148","6182.237"
"2149","6164.675"
"2150","6113.433"
"2151","6087.006"
"2152","6092.595"
"2153","6081.93"
"2154","6030.297"
"2155","5981.087"
"2156","5977.756"
"2157","5989.982"
"2158","5959.836"
"2159","5896.093"
"2160","5872.586"
"2161","5921.268"
"2162","5972.279"
"2163","5956.512"
"2164","5892.3"
"2165","5828.126"
"2166","5790.014"
"2167","5784.847"
"2168","5800.985"
"2169","5792.35"
"2170","5726.368"
"2171","5653.383"
"2172","5643.22"
"2173","5698.613"
"2174","5775.513"
"2175","5833.582"
"2176","5839.898"
"2177","5774.897"
"2178","5666.112"
"2179","5552.027"
"2180","5471.146"
"2181","5460.759"
"2182","5513.816"
"2183","5569.54"
"2184","5583.594"
"2185","5565.847"
"2186","5534.294"
"2187","5499.725"
"2188","5470.243"
"2189","5458.007"
"2190","5478.646"
"2191","5519.248"
"2192","5510.704"
"2193","5408.378"
"2194","5310.068"
"2195","5339.827"
"2196","5450.671"
"2197","5487.634"
"2198","5400.69"
"2199","5286.185"
"2200","5226.804"
"2201","5231.34"
"2202","5288.167"
"2203","5338.952"
"2204","5309.48"
"2205","5216.756"
"2206","5161.638"
"2207","5184.013"
"2208","5199.289"
"2209","5137.221"
"2210","5052.487"
"2211","5025.129"
"2212","5045.235"
"2213","5050.625"
"2214","5019.626"
"2215","4980.971"
"2216","4958.971"
"2217","4958.557"
"2218","4980.761"
"2219","5021.661"
"2220","5073.696"
"2221","5103.105"
"2222","5057.577"
"2223","4942.878"
"2224","4852.792"
"2225","4851.604"
"2226","4887.003"
"2227","4891.97"
"2228","4858.492"
"2229","4804.254"
"2230","4755.458"
"2231","4745.243"
"2232","4775.262"
"2233","4792.629"
"2234","4760.41"
"2235","4718.43"
"2236","4714.025"
"2237","4717.567"
"2238","4666.506"
"2239","4570.637"
"2240","4507.029"
"2241","4501.328"
"2242","4480.625"
"2243","4391.622"
"2244","4294.119"
"2245","4264.822"
"2246","4301.832"
"2247","4364.613"
"2248","4399.507"
"2249","4341.646"
"2250","4206.188"
"2251","4152.419"
"2252","4277.698"
"2253","4401.924"
"2254","4319.094"
"2255","4102.61"
"2256","3946.076"
"2257","3905.073"
"2258","3914.417"
"2259","3916.263"
"2260","3871.563"
"2261","3769.813"
"2262","3686.024"
"2263","3692.167"
"2264","3728.828"
"2265","3691.738"
"2266","3588.948"
"2267","3512.023"
"2268","3487.388"
"2269","3448.214"
"2270","3357.646"
"2271","3275.153"
"2272","3255.809"
"2273","3251.364"
"2274","3188.258"
"2275","3078.799"
"2276","2986.359"
"2277","2942.965"
"2278","2945.173"
"2279","2968.594"
"2280","2950.759"
"2281","2855.381"
"2282","2762.926"
"2283","2761.856"
"2284","2792.581"
"2285","2736.306"
"2286","2600.125"
"2287","2492.428"
"2288","2455.036"
"2289","2429.798"
"2290","2369.618"
"2291","2276.512"
"2292","2164.57"
"2293","2068.372"
"2294","2022.678"
"2295","2002.734"
"2296","1952.794"
"2297","1866.061"
"2298","1783.47"
"2299","1726.673"
"2300","1681.352"
