,"Scan 01069"
"400","14471.02"
"401","14451.4"
"402","14419.49"
"403","14383.83"
"404","14352.88"
"405","14334.09"
"406","14326.37"
"407","14324.33"
"408","14322.56"
"409","14315.96"
"410","14302.48"
"411","14282.19"
"412","14255.22"
"413","14221.9"
"414","14186.8"
"415","14158.46"
"416","14145.5"
"417","14156.23"
"418","14189.3"
"419","14231.58"
"420","14269.3"
"421","14288.86"
"422","14283.8"
"423","14258.98"
"424","14220.29"
"425","14173.56"
"426","14124.88"
"427","14080.84"
"428","14048.11"
"429","14033.27"
"430","14038.66"
"431","14055.32"
"432","14072.41"
"433","14079.2"
"434","14068.75"
"435","14047.18"
"436","14023.38"
"437","14006.15"
"438","14001.91"
"439","14006.76"
"440","14014.02"
"441","14017.03"
"442","14010.47"
"443","13996.09"
"444","13978.01"
"445","13960.34"
"446","13946.26"
"447","13932.94"
"448","13915.09"
"449","13887.44"
"450","13846.01"
"451","13797.21"
"452","13752.52"
"453","13723.38"
"454","13719.49"
"455","13733.65"
"456","13749"
"457","13748.67"
"458","13717.73"
"459","13663.51"
"460","13608.07"
"461","13573.55"
"462","13580.03"
"463","13619.8"
"464","13664.38"
"465","13684.96"
"466","13654.72"
"467","13577.69"
"468","13483.58"
"469","13402.72"
"470","13363.97"
"471","13371.49"
"472","13406.77"
"473","13450.58"
"474","13484.37"
"475","13502.04"
"476","13509.88"
"477","13514.66"
"478","13522.85"
"479","13534.01"
"480","13540.38"
"481","13533.9"
"482","13506.92"
"483","13462.7"
"484","13416.64"
"485","13384.69"
"486","13382.22"
"487","13409.16"
"488","13447.46"
"489","13478.21"
"490","13483"
"491","13457.15"
"492","13412.37"
"493","13361.24"
"494","13316.02"
"495","13280.91"
"496","13250.36"
"497","13218.3"
"498","13179"
"499","13138.19"
"500","13115.38"
"501","13130.76"
"502","13203.83"
"503","13334.21"
"504","13497.98"
"505","13669.96"
"506","13826.55"
"507","13987.45"
"508","14222.31"
"509","14603.17"
"510","15199.94"
"511","16032.77"
"512","17066.88"
"513","18264.82"
"514","19587.73"
"515","20956.3"
"516","22248.83"
"517","23342.27"
"518","24116.56"
"519","24503.74"
"520","24486.77"
"521","24050.8"
"522","23185.89"
"523","21975.09"
"524","20585.2"
"525","19185.14"
"526","17936.58"
"527","16895.36"
"528","16030.6"
"529","15309.02"
"530","14698.67"
"531","14183.84"
"532","13760.78"
"533","13426.05"
"534","13175.23"
"535","12992.31"
"536","12853.75"
"537","12736"
"538","12617.54"
"539","12495.62"
"540","12378.11"
"541","12272.96"
"542","12187.05"
"543","12118.7"
"544","12062.1"
"545","12011.44"
"546","11961.73"
"547","11913.34"
"548","11868.86"
"549","11830.82"
"550","11800.83"
"551","11775.32"
"552","11748.97"
"553","11716.5"
"554","11674.45"
"555","11627.18"
"556","11581.19"
"557","11542.95"
"558","11517.43"
"559","11504.53"
"560","11502.99"
"561","11511.62"
"562","11527.79"
"563","11545.1"
"564","11556.55"
"565","11555.16"
"566","11537.32"
"567","11506.64"
"568","11467.63"
"569","11424.81"
"570","11382.73"
"571","11346.12"
"572","11319.66"
"573","11307.91"
"574","11310.16"
"575","11318.85"
"576","11326.02"
"577","11324.05"
"578","11312.79"
"579","11299.54"
"580","11291.89"
"581","11296.77"
"582","11311.45"
"583","11325.93"
"584","11330.08"
"585","11315.04"
"586","11284.39"
"587","11248.66"
"588","11218.45"
"589","11202.68"
"590","11199.3"
"591","11201.73"
"592","11203.43"
"593","11199.03"
"594","11188.64"
"595","11173.92"
"596","11156.58"
"597","11139.03"
"598","11126.21"
"599","11123.48"
"600","11136.21"
"601","11165.04"
"602","11200.29"
"603","11230.89"
"604","11245.96"
"605","11241.04"
"606","11221.6"
"607","11193.91"
"608","11164.19"
"609","11138.1"
"610","11120.67"
"611","11116.88"
"612","11131.03"
"613","11157.95"
"614","11185.55"
"615","11201.61"
"616","11195.91"
"617","11174.45"
"618","11151.18"
"619","11140.04"
"620","11150.99"
"621","11173.58"
"622","11190.86"
"623","11185.99"
"624","11149.99"
"625","11099.09"
"626","11054.5"
"627","11037.25"
"628","11055.21"
"629","11089.84"
"630","11119.46"
"631","11122.92"
"632","11096.54"
"633","11059.11"
"634","11030.88"
"635","11030.87"
"636","11059.04"
"637","11099.63"
"638","11136.47"
"639","11154.86"
"640","11152.61"
"641","11133.99"
"642","11103.33"
"643","11064.9"
"644","11022.77"
"645","10980.96"
"646","10943.45"
"647","10913.69"
"648","10893.49"
"649","10884.38"
"650","10887.84"
"651","10901.84"
"652","10918.39"
"653","10928.94"
"654","10925.33"
"655","10907.21"
"656","10882.22"
"657","10858.29"
"658","10842.87"
"659","10838.15"
"660","10843.19"
"661","10856.99"
"662","10877.61"
"663","10897.99"
"664","10909.28"
"665","10902.68"
"666","10875.08"
"667","10840.25"
"668","10815.03"
"669","10816.04"
"670","10847.27"
"671","10892.05"
"672","10931.81"
"673","10948.79"
"674","10940.68"
"675","10919.55"
"676","10897.99"
"677","10887.62"
"678","10891.91"
"679","10910.05"
"680","10941.23"
"681","10983.09"
"682","11026.64"
"683","11061.05"
"684","11075.6"
"685","11067.78"
"686","11053.53"
"687","11051.25"
"688","11078.73"
"689","11135.13"
"690","11197.42"
"691","11241.31"
"692","11244.97"
"693","11214.5"
"694","11173.87"
"695","11147.31"
"696","11153.61"
"697","11183.26"
"698","11217.53"
"699","11237.74"
"700","11233.11"
"701","11212.9"
"702","11189.42"
"703","11174.78"
"704","11173.26"
"705","11179.18"
"706","11186.2"
"707","11188.27"
"708","11182.59"
"709","11168.49"
"710","11145.33"
"711","11113.19"
"712","11075.73"
"713","11037.76"
"714","11004.07"
"715","10976.83"
"716","10952.03"
"717","10924.77"
"718","10890.36"
"719","10849.83"
"720","10810.77"
"721","10781.12"
"722","10767.62"
"723","10765.23"
"724","10762.29"
"725","10747.08"
"726","10712.21"
"727","10667.96"
"728","10629.12"
"729","10610.36"
"730","10618.07"
"731","10643.35"
"732","10675.73"
"733","10705.04"
"734","10726.6"
"735","10740.5"
"736","10746.99"
"737","10746.34"
"738","10738.93"
"739","10725.22"
"740","10705.63"
"741","10682.16"
"742","10660.99"
"743","10649.02"
"744","10652.91"
"745","10672.5"
"746","10699.34"
"747","10724.53"
"748","10739.97"
"749","10745.09"
"750","10743.48"
"751","10738.74"
"752","10733.94"
"753","10730.14"
"754","10727.96"
"755","10727.99"
"756","10731.15"
"757","10738.81"
"758","10752.39"
"759","10772.91"
"760","10796.61"
"761","10816.47"
"762","10825.42"
"763","10818.88"
"764","10803.35"
"765","10788.41"
"766","10783.54"
"767","10790.89"
"768","10799.6"
"769","10797.47"
"770","10773.67"
"771","10737.05"
"772","10711.36"
"773","10720.68"
"774","10781.17"
"775","10870.11"
"776","10952.94"
"777","10995.31"
"778","10983.75"
"779","10943.74"
"780","10905.02"
"781","10895.62"
"782","10918.24"
"783","10956.05"
"784","10991.71"
"785","11010.86"
"786","11013.61"
"787","11004.38"
"788","10987.63"
"789","10966.87"
"790","10944.1"
"791","10921.1"
"792","10899.7"
"793","10882.07"
"794","10870.59"
"795","10867.67"
"796","10875"
"797","10891.26"
"798","10914.3"
"799","10941.99"
"800","10971.31"
"801","10997.92"
"802","11017.35"
"803","11025.3"
"804","11019.18"
"805","10997.45"
"806","10958.58"
"807","10904.73"
"808","10850.83"
"809","10814.55"
"810","10813.12"
"811","10847.7"
"812","10899.33"
"813","10947.81"
"814","10975.27"
"815","10982.29"
"816","10978.12"
"817","10972.02"
"818","10969.98"
"819","10969.66"
"820","10967.4"
"821","10959.74"
"822","10946.5"
"823","10930.53"
"824","10914.81"
"825","10902.49"
"826","10897.61"
"827","10904.53"
"828","10927.51"
"829","10964.75"
"830","11004.05"
"831","11032.14"
"832","11037.23"
"833","11023.28"
"834","11004.05"
"835","10993.43"
"836","11000.42"
"837","11018.27"
"838","11037.07"
"839","11047.17"
"840","11046.28"
"841","11040.07"
"842","11034.63"
"843","11035.08"
"844","11040.6"
"845","11048.19"
"846","11054.82"
"847","11057.98"
"848","11056.03"
"849","11047.46"
"850","11031.23"
"851","11012.11"
"852","10998.51"
"853","10998.92"
"854","11017.99"
"855","11048.19"
"856","11079.63"
"857","11102.74"
"858","11115.59"
"859","11124.08"
"860","11134.47"
"861","11152.01"
"862","11176.59"
"863","11206.37"
"864","11239.48"
"865","11274.54"
"866","11310.83"
"867","11347.76"
"868","11384.37"
"869","11417.04"
"870","11440.76"
"871","11450.48"
"872","11446.33"
"873","11440.72"
"874","11447.86"
"875","11480.71"
"876","11533.81"
"877","11587.62"
"878","11622.21"
"879","11624.83"
"880","11608.29"
"881","11591.19"
"882","11591.62"
"883","11615.78"
"884","11656.99"
"885","11707.94"
"886","11760.49"
"887","11802.13"
"888","11818.93"
"889","11797.27"
"890","11739.42"
"891","11671"
"892","11619.45"
"893","11608.15"
"894","11630.08"
"895","11664.64"
"896","11691.22"
"897","11698.66"
"898","11694.13"
"899","11686.9"
"900","11685.46"
"901","11690.06"
"902","11696.11"
"903","11698.97"
"904","11695.44"
"905","11685.96"
"906","11671.56"
"907","11653.47"
"908","11636.15"
"909","11626.47"
"910","11631.33"
"911","11653.57"
"912","11683.19"
"913","11707.66"
"914","11715.05"
"915","11705.1"
"916","11687.85"
"917","11673.74"
"918","11669.73"
"919","11669.54"
"920","11663.7"
"921","11643.3"
"922","11613.09"
"923","11592.02"
"924","11599.69"
"925","11649.34"
"926","11725.6"
"927","11805.05"
"928","11864.77"
"929","11897.13"
"930","11912.47"
"931","11922.15"
"932","11935.99"
"933","11956.08"
"934","11982.02"
"935","12013.36"
"936","12046.62"
"937","12074.5"
"938","12089.43"
"939","12085.84"
"940","12069.32"
"941","12049.23"
"942","12034.84"
"943","12029.92"
"944","12030.73"
"945","12033.04"
"946","12032.61"
"947","12025.25"
"948","12006.79"
"949","11973.23"
"950","11927.42"
"951","11881.72"
"952","11849.25"
"953","11840.86"
"954","11854.35"
"955","11882.77"
"956","11919.14"
"957","11955.87"
"958","11984.5"
"959","11996.54"
"960","11986.15"
"961","11962.9"
"962","11941.81"
"963","11937.59"
"964","11952.44"
"965","11971.97"
"966","11980.62"
"967","11966.93"
"968","11941.4"
"969","11921.82"
"970","11925.57"
"971","11955.38"
"972","11995.8"
"973","12030.22"
"974","12044.7"
"975","12038.16"
"976","12013.38"
"977","11973.38"
"978","11926.45"
"979","11886.85"
"980","11869.17"
"981","11883.39"
"982","11919.93"
"983","11964"
"984","12001.11"
"985","12023.86"
"986","12031.81"
"987","12024.78"
"988","12004.65"
"989","11980.57"
"990","11963.29"
"991","11962.99"
"992","11979.5"
"993","12003.97"
"994","12027.25"
"995","12043.72"
"996","12058.05"
"997","12076.82"
"998","12105.9"
"999","12141.69"
"1000","12174.07"
"1001","12192.79"
"1002","12193.63"
"1003","12186.52"
"1004","12183.44"
"1005","12196.4"
"1006","12234.58"
"1007","12288.22"
"1008","12339.79"
"1009","12371.93"
"1010","12378.48"
"1011","12369.4"
"1012","12355.88"
"1013","12347.63"
"1014","12346.28"
"1015","12350.72"
"1016","12359.82"
"1017","12371.3"
"1018","12381.53"
"1019","12386.81"
"1020","12385.58"
"1021","12385.43"
"1022","12396.31"
"1023","12427.48"
"1024","12473.41"
"1025","12514.9"
"1026","12532.22"
"1027","12514.28"
"1028","12477.21"
"1029","12442.46"
"1030","12430.07"
"1031","12441.28"
"1032","12464.12"
"1033","12486.34"
"1034","12499.81"
"1035","12505.61"
"1036","12506.13"
"1037","12503.91"
"1038","12502.83"
"1039","12507.46"
"1040","12522.29"
"1041","12546.3"
"1042","12569.7"
"1043","12581.88"
"1044","12575.28"
"1045","12559.3"
"1046","12549.17"
"1047","12559.55"
"1048","12589.72"
"1049","12622"
"1050","12637.84"
"1051","12625.73"
"1052","12598.95"
"1053","12576.25"
"1054","12574.99"
"1055","12593.11"
"1056","12614.48"
"1057","12622.71"
"1058","12610.56"
"1059","12590.9"
"1060","12579.28"
"1061","12588.42"
"1062","12609.85"
"1063","12625.47"
"1064","12617.48"
"1065","12584.13"
"1066","12545.2"
"1067","12521.99"
"1068","12529.7"
"1069","12557.75"
"1070","12588.73"
"1071","12605.91"
"1072","12603.69"
"1073","12585.48"
"1074","12554.95"
"1075","12516.31"
"1076","12475.03"
"1077","12436.78"
"1078","12407.04"
"1079","12389.99"
"1080","12389.18"
"1081","12407.98"
"1082","12441.74"
"1083","12475.48"
"1084","12493.49"
"1085","12485.6"
"1086","12462.87"
"1087","12441.42"
"1088","12436.2"
"1089","12446.42"
"1090","12460.12"
"1091","12465.16"
"1092","12457.16"
"1093","12446.69"
"1094","12446.05"
"1095","12463.58"
"1096","12484.67"
"1097","12486.49"
"1098","12447.45"
"1099","12374.8"
"1100","12304.21"
"1101","12272.56"
"1102","12299.08"
"1103","12356.07"
"1104","12408.02"
"1105","12423.63"
"1106","12405.47"
"1107","12372.48"
"1108","12343.48"
"1109","12328.81"
"1110","12328.15"
"1111","12340.5"
"1112","12364.06"
"1113","12394.35"
"1114","12426.31"
"1115","12454.93"
"1116","12475.61"
"1117","12483.97"
"1118","12475.79"
"1119","12454.47"
"1120","12434.62"
"1121","12431.79"
"1122","12455.3"
"1123","12490"
"1124","12514.71"
"1125","12510.24"
"1126","12481.37"
"1127","12448.54"
"1128","12432.27"
"1129","12439.75"
"1130","12456.9"
"1131","12467.75"
"1132","12460.68"
"1133","12442.24"
"1134","12423.7"
"1135","12415.7"
"1136","12420.99"
"1137","12437.04"
"1138","12461.24"
"1139","12490.18"
"1140","12519.18"
"1141","12543.47"
"1142","12558.8"
"1143","12563.06"
"1144","12554.67"
"1145","12532.85"
"1146","12505.36"
"1147","12485.28"
"1148","12485.57"
"1149","12507.51"
"1150","12535.65"
"1151","12553.24"
"1152","12549.86"
"1153","12537.07"
"1154","12531.17"
"1155","12545.94"
"1156","12572.29"
"1157","12588.93"
"1158","12575.14"
"1159","12532.79"
"1160","12490.84"
"1161","12479.81"
"1162","12516"
"1163","12576.43"
"1164","12631.46"
"1165","12656.03"
"1166","12656.37"
"1167","12651.72"
"1168","12660.49"
"1169","12684.13"
"1170","12708.33"
"1171","12718.28"
"1172","12708.93"
"1173","12694.82"
"1174","12692.86"
"1175","12714.16"
"1176","12742.77"
"1177","12754.81"
"1178","12729.25"
"1179","12678.97"
"1180","12638.95"
"1181","12643.93"
"1182","12698.49"
"1183","12765.91"
"1184","12806.47"
"1185","12796.83"
"1186","12762.29"
"1187","12737.08"
"1188","12749.54"
"1189","12787.56"
"1190","12822.15"
"1191","12825.88"
"1192","12800.66"
"1193","12773.92"
"1194","12773.74"
"1195","12810.55"
"1196","12863.66"
"1197","12909.15"
"1198","12928.53"
"1199","12923.66"
"1200","12901.15"
"1201","12868.18"
"1202","12836.47"
"1203","12820.05"
"1204","12832.17"
"1205","12867.79"
"1206","12903.68"
"1207","12915.9"
"1208","12895.18"
"1209","12860.95"
"1210","12836"
"1211","12836.8"
"1212","12854.2"
"1213","12872.56"
"1214","12878.07"
"1215","12873.1"
"1216","12868.37"
"1217","12874.24"
"1218","12891.28"
"1219","12910.36"
"1220","12922"
"1221","12921.89"
"1222","12915.44"
"1223","12909.11"
"1224","12907.79"
"1225","12910.48"
"1226","12914.82"
"1227","12918.72"
"1228","12922.21"
"1229","12926.26"
"1230","12931.84"
"1231","12939.3"
"1232","12948.52"
"1233","12959.39"
"1234","12972.72"
"1235","12990.79"
"1236","13016.02"
"1237","13047.96"
"1238","13078.08"
"1239","13096.4"
"1240","13095.68"
"1241","13083.76"
"1242","13073.69"
"1243","13077.32"
"1244","13093.18"
"1245","13111.45"
"1246","13122.38"
"1247","13123.09"
"1248","13118.13"
"1249","13112.48"
"1250","13110.38"
"1251","13114.7"
"1252","13128.17"
"1253","13149.77"
"1254","13165.52"
"1255","13158.64"
"1256","13117.71"
"1257","13065.57"
"1258","13038.6"
"1259","13069.68"
"1260","13147.17"
"1261","13229.17"
"1262","13274.19"
"1263","13271.76"
"1264","13246.71"
"1265","13225.69"
"1266","13223"
"1267","13229.48"
"1268","13233.34"
"1269","13227.12"
"1270","13217.44"
"1271","13213.81"
"1272","13223.65"
"1273","13242.5"
"1274","13261.71"
"1275","13273.3"
"1276","13276.54"
"1277","13274.92"
"1278","13271.83"
"1279","13267.2"
"1280","13257.68"
"1281","13239.9"
"1282","13215.56"
"1283","13193.92"
"1284","13184.88"
"1285","13193.93"
"1286","13216.08"
"1287","13244.78"
"1288","13273.87"
"1289","13298.86"
"1290","13315.64"
"1291","13320.68"
"1292","13314.08"
"1293","13297.42"
"1294","13272.9"
"1295","13249.53"
"1296","13240.57"
"1297","13258.52"
"1298","13298.31"
"1299","13338.13"
"1300","13355.78"
"1301","13342.56"
"1302","13309.08"
"1303","13267.43"
"1304","13230.88"
"1305","13215.12"
"1306","13236.21"
"1307","13299.19"
"1308","13372.69"
"1309","13417.78"
"1310","13405.46"
"1311","13357.66"
"1312","13312.63"
"1313","13304.14"
"1314","13330.17"
"1315","13371.57"
"1316","13409.71"
"1317","13434.78"
"1318","13443.06"
"1319","13431.39"
"1320","13406.37"
"1321","13384.28"
"1322","13381.59"
"1323","13403.09"
"1324","13437.1"
"1325","13470.73"
"1326","13495.41"
"1327","13511.15"
"1328","13518.99"
"1329","13521.02"
"1330","13522.34"
"1331","13528.6"
"1332","13543.23"
"1333","13560.76"
"1334","13573.41"
"1335","13575.68"
"1336","13575.36"
"1337","13585.03"
"1338","13614.59"
"1339","13651.11"
"1340","13670.18"
"1341","13649.74"
"1342","13598.37"
"1343","13545.48"
"1344","13519.73"
"1345","13526.87"
"1346","13551.92"
"1347","13579.24"
"1348","13596.45"
"1349","13595"
"1350","13566.8"
"1351","13517.1"
"1352","13472.03"
"1353","13459.44"
"1354","13489.72"
"1355","13537.48"
"1356","13572.98"
"1357","13577.12"
"1358","13559.36"
"1359","13533.95"
"1360","13511.6"
"1361","13490.74"
"1362","13467.09"
"1363","13439.54"
"1364","13421.73"
"1365","13431.53"
"1366","13481.07"
"1367","13548.06"
"1368","13597.49"
"1369","13599.05"
"1370","13559.58"
"1371","13503.32"
"1372","13453.63"
"1373","13424.36"
"1374","13423.8"
"1375","13458.26"
"1376","13508.83"
"1377","13538.53"
"1378","13512.61"
"1379","13443.31"
"1380","13383.51"
"1381","13385.34"
"1382","13448.19"
"1383","13516.75"
"1384","13534.4"
"1385","13488.54"
"1386","13420.93"
"1387","13376.17"
"1388","13371.21"
"1389","13382.65"
"1390","13384.07"
"1391","13364.99"
"1392","13342.29"
"1393","13335.46"
"1394","13353.59"
"1395","13384.94"
"1396","13415.26"
"1397","13437.08"
"1398","13458.51"
"1399","13489.9"
"1400","13532.51"
"1401","13563.2"
"1402","13554.77"
"1403","13494.83"
"1404","13416.63"
"1405","13362.27"
"1406","13359.28"
"1407","13384.06"
"1408","13401.81"
"1409","13387.83"
"1410","13357.79"
"1411","13337.37"
"1412","13346.14"
"1413","13376.39"
"1414","13412.8"
"1415","13441.64"
"1416","13456.96"
"1417","13455.23"
"1418","13435.17"
"1419","13407.95"
"1420","13388.92"
"1421","13389.7"
"1422","13399.65"
"1423","13399.96"
"1424","13376.09"
"1425","13341.05"
"1426","13318.71"
"1427","13328.54"
"1428","13359.77"
"1429","13388.91"
"1430","13395.86"
"1431","13385.7"
"1432","13374.6"
"1433","13376.17"
"1434","13383.86"
"1435","13381.83"
"1436","13357.29"
"1437","13322.33"
"1438","13300.95"
"1439","13313.28"
"1440","13347.1"
"1441","13374.37"
"1442","13370.17"
"1443","13336.98"
"1444","13290.92"
"1445","13247.48"
"1446","13215.85"
"1447","13202.02"
"1448","13210.78"
"1449","13236.56"
"1450","13268.65"
"1451","13295.89"
"1452","13304.22"
"1453","13278.12"
"1454","13206.9"
"1455","13119.83"
"1456","13065.68"
"1457","13085.3"
"1458","13155.31"
"1459","13221.71"
"1460","13237.84"
"1461","13214.25"
"1462","13187.78"
"1463","13189.48"
"1464","13207.36"
"1465","13210.49"
"1466","13173.92"
"1467","13114.34"
"1468","13065.75"
"1469","13056.08"
"1470","13074.1"
"1471","13093.23"
"1472","13091.31"
"1473","13072.33"
"1474","13049.8"
"1475","13036.14"
"1476","13037.62"
"1477","13058.44"
"1478","13098.46"
"1479","13136.03"
"1480","13142.97"
"1481","13100.91"
"1482","13035.08"
"1483","12982.75"
"1484","12972.26"
"1485","12996.47"
"1486","13039.51"
"1487","13084.54"
"1488","13111.51"
"1489","13099.62"
"1490","13040.52"
"1491","12963.95"
"1492","12907.01"
"1493","12892.09"
"1494","12902.11"
"1495","12913.48"
"1496","12912.14"
"1497","12906.27"
"1498","12907.18"
"1499","12921.41"
"1500","12945.91"
"1501","12976.41"
"1502","13003.24"
"1503","13007.43"
"1504","12969.56"
"1505","12895.76"
"1506","12829.85"
"1507","12817.51"
"1508","12861.25"
"1509","12909.6"
"1510","12909.59"
"1511","12858.51"
"1512","12806.73"
"1513","12804.58"
"1514","12853.41"
"1515","12911.27"
"1516","12937.04"
"1517","12922.34"
"1518","12882.78"
"1519","12834.39"
"1520","12791.41"
"1521","12766.99"
"1522","12771.96"
"1523","12798.15"
"1524","12828.11"
"1525","12846.26"
"1526","12849.48"
"1527","12839.48"
"1528","12818.09"
"1529","12787.55"
"1530","12750.22"
"1531","12711.84"
"1532","12690.73"
"1533","12708.23"
"1534","12770.51"
"1535","12839.71"
"1536","12870.08"
"1537","12840.97"
"1538","12787.69"
"1539","12752.86"
"1540","12755.17"
"1541","12772.29"
"1542","12778.22"
"1543","12764.26"
"1544","12744.56"
"1545","12734.27"
"1546","12734.19"
"1547","12730.59"
"1548","12710.12"
"1549","12674.99"
"1550","12639.46"
"1551","12616.94"
"1552","12608.77"
"1553","12609.32"
"1554","12613.67"
"1555","12622.66"
"1556","12639.62"
"1557","12665.64"
"1558","12690.65"
"1559","12701.15"
"1560","12689.51"
"1561","12668.88"
"1562","12656.87"
"1563","12660.24"
"1564","12658.78"
"1565","12628.39"
"1566","12563.87"
"1567","12493.48"
"1568","12448.35"
"1569","12440.74"
"1570","12459"
"1571","12489.96"
"1572","12521.22"
"1573","12541.06"
"1574","12539.44"
"1575","12525.68"
"1576","12521.5"
"1577","12544.65"
"1578","12581.79"
"1579","12605.8"
"1580","12596.4"
"1581","12566.83"
"1582","12540.43"
"1583","12532.61"
"1584","12533.78"
"1585","12529.43"
"1586","12512.58"
"1587","12492.11"
"1588","12478.81"
"1589","12479.7"
"1590","12496.4"
"1591","12529.49"
"1592","12566.8"
"1593","12583.81"
"1594","12558.34"
"1595","12501.62"
"1596","12446.53"
"1597","12421.28"
"1598","12418.78"
"1599","12416.99"
"1600","12400.47"
"1601","12382.27"
"1602","12383.13"
"1603","12412.95"
"1604","12452.81"
"1605","12479.09"
"1606","12477.67"
"1607","12450.63"
"1608","12402.05"
"1609","12348.73"
"1610","12321.38"
"1611","12348"
"1612","12411.5"
"1613","12462.9"
"1614","12460.09"
"1615","12415.83"
"1616","12367.16"
"1617","12344.75"
"1618","12351.44"
"1619","12382.69"
"1620","12429.07"
"1621","12468.86"
"1622","12478.7"
"1623","12452.08"
"1624","12408.43"
"1625","12369.22"
"1626","12352"
"1627","12370.62"
"1628","12434.38"
"1629","12508"
"1630","12530.21"
"1631","12456.87"
"1632","12340.65"
"1633","12267.42"
"1634","12289.22"
"1635","12352.66"
"1636","12384.28"
"1637","12349.41"
"1638","12283"
"1639","12226.42"
"1640","12197.98"
"1641","12191.46"
"1642","12199.3"
"1643","12212.62"
"1644","12221.69"
"1645","12218.34"
"1646","12203.76"
"1647","12182.42"
"1648","12159.21"
"1649","12140.14"
"1650","12131.4"
"1651","12133.85"
"1652","12139.21"
"1653","12138.5"
"1654","12128.64"
"1655","12112.32"
"1656","12092.72"
"1657","12075.22"
"1658","12066.46"
"1659","12070.32"
"1660","12077.26"
"1661","12073.67"
"1662","12054.26"
"1663","12034.91"
"1664","12034.46"
"1665","12055.01"
"1666","12075.52"
"1667","12075.08"
"1668","12059.65"
"1669","12055.83"
"1670","12084.34"
"1671","12122.76"
"1672","12130.86"
"1673","12085.43"
"1674","12020.32"
"1675","11980.97"
"1676","11987.38"
"1677","12015.76"
"1678","12038.62"
"1679","12041.77"
"1680","12023.34"
"1681","11983.89"
"1682","11940.42"
"1683","11917.95"
"1684","11933.01"
"1685","11969.04"
"1686","12001.56"
"1687","12013.56"
"1688","12002.47"
"1689","11967.68"
"1690","11917.44"
"1691","11868.72"
"1692","11837.45"
"1693","11826.87"
"1694","11833.81"
"1695","11852.57"
"1696","11867.95"
"1697","11862.58"
"1698","11836.47"
"1699","11822.35"
"1700","11854.72"
"1701","11929.19"
"1702","12004.47"
"1703","12042.05"
"1704","12037.46"
"1705","12002.22"
"1706","11951.37"
"1707","11911.76"
"1708","11912.52"
"1709","11958.02"
"1710","12012.01"
"1711","12035.98"
"1712","12016.99"
"1713","11962.77"
"1714","11884.83"
"1715","11814.48"
"1716","11790.67"
"1717","11828.22"
"1718","11875.75"
"1719","11872.16"
"1720","11816.94"
"1721","11787.24"
"1722","11855.37"
"1723","11984.9"
"1724","12072.61"
"1725","12042.6"
"1726","11943.9"
"1727","11859.69"
"1728","11837.48"
"1729","11856.06"
"1730","11887.02"
"1731","11914.19"
"1732","11932.32"
"1733","11937.35"
"1734","11930.46"
"1735","11914.95"
"1736","11894.57"
"1737","11874.13"
"1738","11858.61"
"1739","11850.51"
"1740","11849.3"
"1741","11854.01"
"1742","11860.75"
"1743","11864.04"
"1744","11858.87"
"1745","11842.05"
"1746","11810.97"
"1747","11770.77"
"1748","11738.86"
"1749","11732.33"
"1750","11749.54"
"1751","11775.67"
"1752","11796.57"
"1753","11802.71"
"1754","11786"
"1755","11747.7"
"1756","11706.92"
"1757","11683.95"
"1758","11684.27"
"1759","11701.04"
"1760","11726.72"
"1761","11752.16"
"1762","11767.59"
"1763","11767.58"
"1764","11756.06"
"1765","11738.23"
"1766","11719.9"
"1767","11707.41"
"1768","11705.26"
"1769","11706.32"
"1770","11699"
"1771","11680.92"
"1772","11671.19"
"1773","11690.92"
"1774","11737.4"
"1775","11784.97"
"1776","11810.7"
"1777","11815.28"
"1778","11808.68"
"1779","11797.91"
"1780","11783.04"
"1781","11763.92"
"1782","11756.93"
"1783","11794"
"1784","11894.14"
"1785","11993.91"
"1786","11999.09"
"1787","11876.33"
"1788","11726.01"
"1789","11660.78"
"1790","11690"
"1791","11732.9"
"1792","11723.9"
"1793","11696.54"
"1794","11717.28"
"1795","11806.17"
"1796","11893.62"
"1797","11905.31"
"1798","11849.65"
"1799","11797.72"
"1800","11802.13"
"1801","11825.26"
"1802","11804.94"
"1803","11727.84"
"1804","11658.75"
"1805","11662.43"
"1806","11725.36"
"1807","11785.63"
"1808","11798"
"1809","11777.86"
"1810","11753.55"
"1811","11743.01"
"1812","11751.27"
"1813","11778.86"
"1814","11797.8"
"1815","11766.76"
"1816","11674.11"
"1817","11583.78"
"1818","11568.15"
"1819","11628.77"
"1820","11701.61"
"1821","11731.9"
"1822","11727.87"
"1823","11718.39"
"1824","11715.26"
"1825","11700.21"
"1826","11654.81"
"1827","11594.53"
"1828","11556.71"
"1829","11567.45"
"1830","11612.91"
"1831","11670.66"
"1832","11717.85"
"1833","11731.14"
"1834","11695"
"1835","11647.09"
"1836","11646.91"
"1837","11712.46"
"1838","11774.14"
"1839","11757.59"
"1840","11681.09"
"1841","11631.48"
"1842","11668.63"
"1843","11741.31"
"1844","11772.99"
"1845","11745.27"
"1846","11713.22"
"1847","11726.45"
"1848","11761.94"
"1849","11765.41"
"1850","11715.38"
"1851","11660.4"
"1852","11653.72"
"1853","11688.88"
"1854","11716.34"
"1855","11700.68"
"1856","11661.37"
"1857","11629.76"
"1858","11620.44"
"1859","11628.73"
"1860","11648.65"
"1861","11673.22"
"1862","11695.07"
"1863","11709.12"
"1864","11714.48"
"1865","11711.14"
"1866","11704.01"
"1867","11700.95"
"1868","11706.3"
"1869","11714.4"
"1870","11718.35"
"1871","11721.2"
"1872","11735"
"1873","11765.13"
"1874","11786.29"
"1875","11765.66"
"1876","11708.26"
"1877","11668.58"
"1878","11694.18"
"1879","11762.14"
"1880","11820.62"
"1881","11837.18"
"1882","11816.14"
"1883","11766.84"
"1884","11708.65"
"1885","11666.89"
"1886","11656.05"
"1887","11661.56"
"1888","11665.06"
"1889","11665.55"
"1890","11676.15"
"1891","11701.27"
"1892","11711.26"
"1893","11670.33"
"1894","11594.24"
"1895","11554.69"
"1896","11604.93"
"1897","11688.09"
"1898","11713.27"
"1899","11654.39"
"1900","11577.28"
"1901","11545.31"
"1902","11555.61"
"1903","11577.43"
"1904","11589.19"
"1905","11586.21"
"1906","11567.32"
"1907","11547.34"
"1908","11549.63"
"1909","11582.79"
"1910","11621.76"
"1911","11638.71"
"1912","11629.93"
"1913","11607.6"
"1914","11583.56"
"1915","11567.83"
"1916","11569.24"
"1917","11582.76"
"1918","11592.43"
"1919","11585.85"
"1920","11563.9"
"1921","11530.44"
"1922","11494.79"
"1923","11471.29"
"1924","11472.38"
"1925","11502.19"
"1926","11561.79"
"1927","11626.19"
"1928","11643.2"
"1929","11579.02"
"1930","11488.58"
"1931","11449.6"
"1932","11471.97"
"1933","11486.99"
"1934","11440.57"
"1935","11373.93"
"1936","11356.29"
"1937","11396.85"
"1938","11429.59"
"1939","11402.67"
"1940","11367.01"
"1941","11405.9"
"1942","11518.09"
"1943","11590.44"
"1944","11531.84"
"1945","11420.35"
"1946","11391.12"
"1947","11476.41"
"1948","11568.14"
"1949","11568.63"
"1950","11499.99"
"1951","11426.53"
"1952","11384.35"
"1953","11370.71"
"1954","11379.04"
"1955","11397.01"
"1956","11410.24"
"1957","11406.05"
"1958","11374.13"
"1959","11310.39"
"1960","11244.41"
"1961","11216.58"
"1962","11237.41"
"1963","11278.78"
"1964","11311.49"
"1965","11314.41"
"1966","11270.03"
"1967","11197.13"
"1968","11158.25"
"1969","11197.68"
"1970","11260.53"
"1971","11265.34"
"1972","11210.12"
"1973","11180.49"
"1974","11236.64"
"1975","11312.05"
"1976","11310.85"
"1977","11230.04"
"1978","11157.99"
"1979","11157.59"
"1980","11184.35"
"1981","11172.44"
"1982","11114.28"
"1983","11052.19"
"1984","11018.51"
"1985","11009.49"
"1986","11014.09"
"1987","11015.98"
"1988","10995.01"
"1989","10946.7"
"1990","10906.68"
"1991","10912.29"
"1992","10950.9"
"1993","10979.78"
"1994","10974.13"
"1995","10947.06"
"1996","10915.35"
"1997","10887.02"
"1998","10865.76"
"1999","10850.73"
"2000","10833.66"
"2001","10807.32"
"2002","10775.37"
"2003","10745.68"
"2004","10727.92"
"2005","10734.07"
"2006","10768.3"
"2007","10798.31"
"2008","10783.57"
"2009","10734.37"
"2010","10710.88"
"2011","10746.58"
"2012","10778.63"
"2013","10731.19"
"2014","10629.53"
"2015","10573.14"
"2016","10610.09"
"2017","10661.07"
"2018","10639.5"
"2019","10564.63"
"2020","10511.83"
"2021","10518.19"
"2022","10554.71"
"2023","10581.44"
"2024","10531.94"
"2025","10333.96"
"2026","10054.59"
"2027","9927.804"
"2028","10109.48"
"2029","10402.27"
"2030","10534.78"
"2031","10484.7"
"2032","10436.16"
"2033","10494.29"
"2034","10541.51"
"2035","10444.8"
"2036","10269.69"
"2037","10191.07"
"2038","10270.76"
"2039","10376.11"
"2040","10382.45"
"2041","10322.52"
"2042","10283.15"
"2043","10287.42"
"2044","10287.64"
"2045","10250.58"
"2046","10206.7"
"2047","10196.8"
"2048","10213.75"
"2049","10216.63"
"2050","10186.27"
"2051","10151.06"
"2052","10140.46"
"2053","10148.16"
"2054","10152.56"
"2055","10142.73"
"2056","10121.59"
"2057","10090.66"
"2058","10042.08"
"2059","9967.178"
"2060","9880.376"
"2061","9814.091"
"2062","9791.362"
"2063","9812.776"
"2064","9872.398"
"2065","9938.784"
"2066","9969.577"
"2067","9952.233"
"2068","9913.139"
"2069","9873.54"
"2070","9823.783"
"2071","9750.462"
"2072","9695.297"
"2073","9740.757"
"2074","9894.29"
"2075","10003.52"
"2076","9929.369"
"2077","9758.955"
"2078","9668.037"
"2079","9712.914"
"2080","9812.137"
"2081","9889.363"
"2082","9911.295"
"2083","9858.344"
"2084","9765.32"
"2085","9700.451"
"2086","9689.877"
"2087","9687.37"
"2088","9652.533"
"2089","9610.593"
"2090","9604.688"
"2091","9623.895"
"2092","9609.364"
"2093","9527.026"
"2094","9407.005"
"2095","9291.258"
"2096","9237.902"
"2097","9309.574"
"2098","9473.78"
"2099","9583.633"
"2100","9539.79"
"2101","9424.623"
"2102","9349.059"
"2103","9324.813"
"2104","9304.971"
"2105","9273.725"
"2106","9264.955"
"2107","9301.438"
"2108","9338.374"
"2109","9317.418"
"2110","9253.263"
"2111","9215.017"
"2112","9231.727"
"2113","9252.424"
"2114","9231.878"
"2115","9206.771"
"2116","9237.584"
"2117","9305.793"
"2118","9322.322"
"2119","9242.12"
"2120","9126.937"
"2121","9046.858"
"2122","9027.976"
"2123","9076.757"
"2124","9148.518"
"2125","9146.636"
"2126","9030.272"
"2127","8909.54"
"2128","8898.704"
"2129","8962.901"
"2130","9002.89"
"2131","8973.742"
"2132","8891.08"
"2133","8791.191"
"2134","8759.034"
"2135","8864.58"
"2136","8993.152"
"2137","8949.296"
"2138","8726.566"
"2139","8536.289"
"2140","8521.343"
"2141","8593.09"
"2142","8635.984"
"2143","8648.789"
"2144","8682.255"
"2145","8727.024"
"2146","8704.971"
"2147","8582.495"
"2148","8460.778"
"2149","8446.325"
"2150","8508.317"
"2151","8555.486"
"2152","8547.375"
"2153","8498.696"
"2154","8434.868"
"2155","8401.681"
"2156","8436.448"
"2157","8496.171"
"2158","8507.142"
"2159","8454.801"
"2160","8382.426"
"2161","8325.643"
"2162","8296.909"
"2163","8299.498"
"2164","8301.856"
"2165","8263.339"
"2166","8203.733"
"2167","8193.483"
"2168","8251.145"
"2169","8292.288"
"2170","8242.742"
"2171","8133.43"
"2172","8023.458"
"2173","7933.812"
"2174","7859.13"
"2175","7807.689"
"2176","7809.811"
"2177","7877.312"
"2178","7946.883"
"2179","7947.098"
"2180","7895.015"
"2181","7855.22"
"2182","7855.114"
"2183","7876.354"
"2184","7897.188"
"2185","7894.241"
"2186","7847.221"
"2187","7758.871"
"2188","7642.669"
"2189","7536.861"
"2190","7501.78"
"2191","7555.404"
"2192","7630.819"
"2193","7666.775"
"2194","7674.072"
"2195","7681.093"
"2196","7681.468"
"2197","7646.832"
"2198","7567.27"
"2199","7458.699"
"2200","7345.672"
"2201","7272.865"
"2202","7279.553"
"2203","7338.445"
"2204","7393.947"
"2205","7403.521"
"2206","7337.092"
"2207","7198.901"
"2208","7058.82"
"2209","6983.188"
"2210","6989.348"
"2211","7075.511"
"2212","7178.356"
"2213","7200.195"
"2214","7123.22"
"2215","7027.895"
"2216","6983.141"
"2217","7012.379"
"2218","7114.787"
"2219","7191.542"
"2220","7120.83"
"2221","6955.569"
"2222","6876.827"
"2223","6932.245"
"2224","6964.01"
"2225","6866.765"
"2226","6754.971"
"2227","6761.723"
"2228","6845.051"
"2229","6891.748"
"2230","6857.594"
"2231","6758.646"
"2232","6631.181"
"2233","6542.669"
"2234","6537.767"
"2235","6567.73"
"2236","6569.736"
"2237","6535.882"
"2238","6483.883"
"2239","6424.738"
"2240","6363.051"
"2241","6304.533"
"2242","6257.328"
"2243","6225.511"
"2244","6196.93"
"2245","6156.233"
"2246","6093.353"
"2247","6002.418"
"2248","5911.627"
"2249","5880.546"
"2250","5920.329"
"2251","5953.133"
"2252","5914.495"
"2253","5822.064"
"2254","5711.283"
"2255","5612.207"
"2256","5551.104"
"2257","5528.201"
"2258","5520.867"
"2259","5496.951"
"2260","5410.113"
"2261","5244.923"
"2262","5088.649"
"2263","5029.4"
"2264","5026.496"
"2265","4991.764"
"2266","4895.328"
"2267","4752.208"
"2268","4613.324"
"2269","4577.646"
"2270","4678.74"
"2271","4770.03"
"2272","4715.643"
"2273","4586.598"
"2274","4507.664"
"2275","4465.622"
"2276","4366.776"
"2277","4210.393"
"2278","4098.797"
"2279","4071.313"
"2280","4030.705"
"2281","3904.182"
"2282","3773.743"
"2283","3736.787"
"2284","3730.835"
"2285","3630.42"
"2286","3461.023"
"2287","3368.853"
"2288","3385.02"
"2289","3370.235"
"2290","3238.166"
"2291","3074.746"
"2292","2975.199"
"2293","2943.871"
"2294","2953.207"
"2295","2935.912"
"2296","2808.082"
"2297","2610.502"
"2298","2504"
"2299","2531.816"
"2300","2530.143"
