,"Scan 01043"
"400","7815.18"
"401","7818.819"
"402","7823.66"
"403","7826.319"
"404","7823.438"
"405","7812.537"
"406","7798.421"
"407","7789.582"
"408","7794.471"
"409","7820.496"
"410","7862.212"
"411","7905.26"
"412","7935.205"
"413","7938.376"
"414","7914.836"
"415","7877.433"
"416","7839.411"
"417","7813.662"
"418","7803.631"
"419","7801.182"
"420","7797.512"
"421","7783.982"
"422","7758.824"
"423","7731.285"
"424","7711.555"
"425","7709.705"
"426","7729.229"
"427","7759.948"
"428","7790.034"
"429","7807.746"
"430","7805.865"
"431","7789.218"
"432","7764.609"
"433","7738.792"
"434","7716.627"
"435","7696.552"
"436","7675.624"
"437","7650.927"
"438","7621.382"
"439","7593.889"
"440","7577.497"
"441","7581.182"
"442","7610.702"
"443","7654.418"
"444","7694.855"
"445","7714.653"
"446","7699.844"
"447","7658.706"
"448","7608.655"
"449","7567.015"
"450","7548.858"
"451","7551.475"
"452","7563.428"
"453","7573.291"
"454","7570.677"
"455","7554.839"
"456","7530.575"
"457","7502.716"
"458","7475.965"
"459","7453.772"
"460","7438.754"
"461","7433.501"
"462","7440.118"
"463","7454.004"
"464","7465.55"
"465","7465.093"
"466","7443.799"
"467","7406.114"
"468","7367.521"
"469","7343.742"
"470","7349.482"
"471","7380.988"
"472","7417.625"
"473","7438.262"
"474","7422.868"
"475","7373.783"
"476","7315.516"
"477","7273.376"
"478","7271.612"
"479","7310.758"
"480","7366.244"
"481","7412.422"
"482","7424.502"
"483","7397.591"
"484","7349.019"
"485","7297.187"
"486","7260.035"
"487","7244.445"
"488","7244.477"
"489","7253.498"
"490","7264.962"
"491","7273.847"
"492","7276.939"
"493","7271.148"
"494","7253.447"
"495","7222.321"
"496","7178.093"
"497","7121.181"
"498","7052.104"
"499","6974.615"
"500","6896.369"
"501","6825.208"
"502","6768.792"
"503","6730.174"
"504","6706.954"
"505","6696.428"
"506","6695.767"
"507","6697.889"
"508","6690.814"
"509","6662.343"
"510","6600.952"
"511","6511.925"
"512","6419.144"
"513","6347.323"
"514","6320.138"
"515","6338.268"
"516","6378.344"
"517","6415.981"
"518","6427.692"
"519","6407.163"
"520","6364.842"
"521","6311.83"
"522","6258.995"
"523","6213.869"
"524","6180.971"
"525","6164.689"
"526","6168.774"
"527","6186.752"
"528","6203.778"
"529","6204.846"
"530","6176.301"
"531","6122.583"
"532","6061.416"
"533","6010.733"
"534","5986.795"
"535","5987.08"
"536","5996.87"
"537","6001.317"
"538","5987.381"
"539","5959.157"
"540","5930.427"
"541","5915.015"
"542","5924.335"
"543","5950.764"
"544","5977.465"
"545","5987.618"
"546","5967.438"
"547","5922.871"
"548","5867.908"
"549","5816.492"
"550","5780.358"
"551","5759.53"
"552","5750.084"
"553","5748.113"
"554","5750.21"
"555","5755.109"
"556","5762.124"
"557","5770.584"
"558","5779.626"
"559","5787.738"
"560","5793.266"
"561","5794.576"
"562","5790.66"
"563","5782.259"
"564","5770.401"
"565","5756.111"
"566","5740.237"
"567","5723.257"
"568","5705.598"
"569","5687.7"
"570","5671.217"
"571","5659.82"
"572","5657.37"
"573","5667.532"
"574","5687.325"
"575","5705.125"
"576","5708.778"
"577","5686.785"
"578","5641.734"
"579","5590.257"
"580","5549.532"
"581","5535.487"
"582","5546.702"
"583","5568.613"
"584","5586.388"
"585","5586.865"
"586","5572.728"
"587","5555.605"
"588","5547.187"
"589","5557.153"
"590","5582.004"
"591","5612.82"
"592","5640.704"
"593","5658.292"
"594","5665.25"
"595","5663.28"
"596","5654.079"
"597","5640.282"
"598","5627.565"
"599","5622.19"
"600","5630.37"
"601","5652.945"
"602","5678.897"
"603","5695.654"
"604","5690.85"
"605","5661.445"
"606","5618.7"
"607","5575.048"
"608","5542.572"
"609","5525.386"
"610","5519.121"
"611","5519.003"
"612","5520.553"
"613","5523.125"
"614","5528.884"
"615","5540.05"
"616","5558.065"
"617","5577.966"
"618","5591.649"
"619","5591.013"
"620","5570.77"
"621","5539.906"
"622","5511.938"
"623","5500.338"
"624","5512.554"
"625","5536.861"
"626","5557.748"
"627","5559.833"
"628","5538.182"
"629","5508.883"
"630","5490.499"
"631","5501.061"
"632","5540.69"
"633","5586.429"
"634","5613.873"
"635","5600.259"
"636","5549.08"
"637","5485.468"
"638","5435.123"
"639","5420.576"
"640","5437.242"
"641","5466.542"
"642","5489.844"
"643","5492.878"
"644","5482.875"
"645","5473.689"
"646","5479.135"
"647","5505.922"
"648","5540.495"
"649","5565.729"
"650","5564.715"
"651","5533.048"
"652","5487.417"
"653","5446.495"
"654","5428.27"
"655","5435.848"
"656","5457.248"
"657","5479.854"
"658","5492.224"
"659","5495.062"
"660","5496.384"
"661","5504.279"
"662","5524.383"
"663","5548.929"
"664","5565.574"
"665","5562.017"
"666","5531.033"
"667","5480.397"
"668","5420.641"
"669","5362.249"
"670","5314.955"
"671","5287.262"
"672","5287.547"
"673","5323.379"
"674","5386.393"
"675","5453.391"
"676","5500.668"
"677","5507.666"
"678","5481.093"
"679","5441.797"
"680","5410.692"
"681","5404.074"
"682","5418.224"
"683","5443.979"
"684","5472.198"
"685","5495.174"
"686","5508.369"
"687","5507.679"
"688","5489.261"
"689","5457.285"
"690","5425.488"
"691","5408.144"
"692","5417.992"
"693","5450.464"
"694","5489.893"
"695","5520.469"
"696","5529.554"
"697","5521.037"
"698","5504.199"
"699","5488.292"
"700","5479.321"
"701","5475.09"
"702","5472.13"
"703","5467.018"
"704","5457.725"
"705","5444.007"
"706","5425.738"
"707","5403.181"
"708","5381.289"
"709","5368.096"
"710","5371.671"
"711","5397.408"
"712","5437.051"
"713","5477.987"
"714","5507.646"
"715","5518.66"
"716","5515.927"
"717","5506.102"
"718","5495.744"
"719","5488.816"
"720","5486.299"
"721","5489.003"
"722","5497.476"
"723","5509.635"
"724","5521.931"
"725","5530.798"
"726","5533.741"
"727","5532.605"
"728","5530.356"
"729","5529.935"
"730","5533.237"
"731","5540.239"
"732","5550.708"
"733","5564.435"
"734","5581.613"
"735","5602.78"
"736","5628.488"
"737","5658.154"
"738","5683.83"
"739","5694.642"
"740","5679.731"
"741","5636.312"
"742","5583.432"
"743","5543.758"
"744","5539.378"
"745","5573.804"
"746","5628.112"
"747","5682.062"
"748","5717.181"
"749","5731.428"
"750","5731.771"
"751","5725.263"
"752","5717.936"
"753","5712.118"
"754","5709.281"
"755","5710.888"
"756","5717.535"
"757","5728.488"
"758","5742.91"
"759","5759.957"
"760","5778.779"
"761","5798.518"
"762","5818.314"
"763","5836.582"
"764","5848.472"
"765","5848.227"
"766","5830.187"
"767","5796.242"
"768","5761.701"
"769","5743.232"
"770","5756.168"
"771","5796.521"
"772","5845.661"
"773","5884.62"
"774","5898.74"
"775","5894.404"
"776","5884.42"
"777","5881.533"
"778","5893.857"
"779","5920.841"
"780","5960.986"
"781","6012.399"
"782","6067.248"
"783","6113.111"
"784","6137.464"
"785","6131.476"
"786","6104.138"
"787","6069.811"
"788","6042.774"
"789","6030.867"
"790","6030.406"
"791","6036.51"
"792","6044.567"
"793","6053.537"
"794","6064.947"
"795","6080.383"
"796","6100.145"
"797","6119.022"
"798","6130.326"
"799","6127.485"
"800","6110.772"
"801","6091.185"
"802","6080.64"
"803","6089.813"
"804","6116.041"
"805","6148.516"
"806","6176.326"
"807","6191.405"
"808","6195.513"
"809","6192.534"
"810","6186.339"
"811","6180.59"
"812","6178.682"
"813","6183.99"
"814","6199.173"
"815","6221.313"
"816","6244.867"
"817","6264.282"
"818","6275.917"
"819","6280.96"
"820","6281.354"
"821","6279.099"
"822","6277.476"
"823","6280.937"
"824","6293.977"
"825","6319.262"
"826","6349.921"
"827","6375.968"
"828","6387.496"
"829","6380.212"
"830","6359.483"
"831","6331.627"
"832","6302.885"
"833","6278.739"
"834","6264.193"
"835","6264.242"
"836","6281.795"
"837","6313.043"
"838","6352.828"
"839","6395.991"
"840","6437.163"
"841","6470.761"
"842","6491.189"
"843","6494.453"
"844","6486.219"
"845","6475.75"
"846","6472.275"
"847","6480.623"
"848","6497.454"
"849","6518.539"
"850","6539.911"
"851","6560.553"
"852","6581.332"
"853","6603.143"
"854","6626.292"
"855","6649.225"
"856","6670.017"
"857","6686.713"
"858","6696.579"
"859","6696.083"
"860","6681.656"
"861","6651.895"
"862","6616.838"
"863","6590.311"
"864","6585.948"
"865","6606.012"
"866","6634.774"
"867","6654.916"
"868","6651.504"
"869","6630.469"
"870","6608.531"
"871","6602.475"
"872","6621.2"
"873","6654.669"
"874","6690.068"
"875","6715.46"
"876","6731.962"
"877","6750.642"
"878","6782.823"
"879","6833.962"
"880","6888.444"
"881","6925.927"
"882","6926.91"
"883","6894.029"
"884","6853.754"
"885","6833.724"
"886","6854.357"
"887","6898.301"
"888","6935.898"
"889","6937.983"
"890","6900.859"
"891","6858.227"
"892","6846.761"
"893","6896.75"
"894","6991.24"
"895","7092.101"
"896","7161.249"
"897","7178.688"
"898","7159.616"
"899","7123.288"
"900","7087.803"
"901","7059.451"
"902","7037.578"
"903","7021.446"
"904","7010.415"
"905","7004.097"
"906","7002.142"
"907","7004.354"
"908","7012.761"
"909","7031.016"
"910","7062.814"
"911","7108.295"
"912","7156.375"
"913","7193.76"
"914","7207.83"
"915","7198.697"
"916","7177.792"
"917","7156.938"
"918","7144.672"
"919","7136.898"
"920","7126.487"
"921","7106.707"
"922","7080.604"
"923","7061.37"
"924","7062.672"
"925","7093.603"
"926","7142.674"
"927","7192.612"
"928","7226.524"
"929","7239.493"
"930","7240.634"
"931","7239.864"
"932","7245.29"
"933","7255.818"
"934","7267.448"
"935","7276.228"
"936","7280.327"
"937","7280.637"
"938","7278.221"
"939","7273.7"
"940","7265.223"
"941","7250.083"
"942","7225.688"
"943","7194.013"
"944","7163.251"
"945","7142.034"
"946","7137.183"
"947","7144.983"
"948","7157.934"
"949","7168.603"
"950","7172.99"
"951","7171.866"
"952","7166.356"
"953","7157.911"
"954","7149.916"
"955","7146.454"
"956","7151.539"
"957","7165.922"
"958","7185.859"
"959","7207.268"
"960","7225.958"
"961","7237.091"
"962","7235.6"
"963","7216.58"
"964","7181.956"
"965","7142.72"
"966","7110.497"
"967","7095.153"
"968","7097.129"
"969","7113.728"
"970","7142.144"
"971","7175.93"
"972","7204.127"
"973","7215.49"
"974","7202.387"
"975","7174.742"
"976","7147.79"
"977","7136.333"
"978","7142.393"
"979","7153.676"
"980","7157.129"
"981","7144.441"
"982","7127.51"
"983","7123.604"
"984","7149.021"
"985","7198.243"
"986","7244.279"
"987","7259.216"
"988","7226.522"
"989","7170.648"
"990","7125.274"
"991","7122.225"
"992","7161.398"
"993","7215.897"
"994","7257.992"
"995","7270.502"
"996","7267.432"
"997","7268.525"
"998","7292.07"
"999","7337.491"
"1000","7391.131"
"1001","7439.081"
"1002","7471.336"
"1003","7487.128"
"1004","7487.021"
"1005","7471.573"
"1006","7441.972"
"1007","7403.603"
"1008","7363.57"
"1009","7328.915"
"1010","7302.835"
"1011","7283.001"
"1012","7266.661"
"1013","7251.808"
"1014","7240.507"
"1015","7236.203"
"1016","7242.192"
"1017","7257.061"
"1018","7273.851"
"1019","7285.294"
"1020","7286.571"
"1021","7283.276"
"1022","7283.745"
"1023","7295.96"
"1024","7320.603"
"1025","7351.603"
"1026","7382.624"
"1027","7409.229"
"1028","7432.977"
"1029","7456.589"
"1030","7482.341"
"1031","7506.53"
"1032","7521.259"
"1033","7518.563"
"1034","7496.204"
"1035","7464.938"
"1036","7437.333"
"1037","7424.737"
"1038","7428.099"
"1039","7443.092"
"1040","7465.354"
"1041","7490.904"
"1042","7516.38"
"1043","7538.471"
"1044","7554.368"
"1045","7564.072"
"1046","7568.552"
"1047","7568.868"
"1048","7568.505"
"1049","7573.609"
"1050","7590.469"
"1051","7621.675"
"1052","7656.814"
"1053","7682.586"
"1054","7686.547"
"1055","7668.034"
"1056","7634.927"
"1057","7595.307"
"1058","7557.084"
"1059","7527.809"
"1060","7514.977"
"1061","7524.767"
"1062","7553.383"
"1063","7592.499"
"1064","7633.777"
"1065","7669.865"
"1066","7694.727"
"1067","7702.417"
"1068","7690.2"
"1069","7668.889"
"1070","7652.88"
"1071","7655.614"
"1072","7675.008"
"1073","7696.428"
"1074","7704.908"
"1075","7694.192"
"1076","7678.386"
"1077","7674.494"
"1078","7696.4"
"1079","7734.081"
"1080","7766.498"
"1081","7772.952"
"1082","7748.522"
"1083","7708.762"
"1084","7670.599"
"1085","7647.78"
"1086","7641.822"
"1087","7651.321"
"1088","7674.45"
"1089","7703.97"
"1090","7728.787"
"1091","7737.793"
"1092","7728.044"
"1093","7712.332"
"1094","7705.252"
"1095","7717.914"
"1096","7741.161"
"1097","7758.551"
"1098","7754.257"
"1099","7726.797"
"1100","7688.816"
"1101","7653.57"
"1102","7631.487"
"1103","7625.468"
"1104","7637.176"
"1105","7666.65"
"1106","7700.846"
"1107","7720.386"
"1108","7706.39"
"1109","7659.869"
"1110","7606.857"
"1111","7575.008"
"1112","7582.323"
"1113","7614.046"
"1114","7648.466"
"1115","7665.682"
"1116","7664.545"
"1117","7654.93"
"1118","7646.773"
"1119","7645.372"
"1120","7649.185"
"1121","7656.115"
"1122","7664.331"
"1123","7673.082"
"1124","7681.873"
"1125","7690.155"
"1126","7696.698"
"1127","7699.83"
"1128","7697.886"
"1129","7690.456"
"1130","7679.106"
"1131","7665.59"
"1132","7652.173"
"1133","7643.247"
"1134","7643.76"
"1135","7657.769"
"1136","7678.535"
"1137","7692.123"
"1138","7684.647"
"1139","7653.841"
"1140","7615.787"
"1141","7588.193"
"1142","7583.703"
"1143","7594.77"
"1144","7608.818"
"1145","7614.432"
"1146","7613.058"
"1147","7614.135"
"1148","7627.035"
"1149","7651.292"
"1150","7672.339"
"1151","7674.508"
"1152","7649.362"
"1153","7613.526"
"1154","7589.042"
"1155","7595.088"
"1156","7624.723"
"1157","7657.088"
"1158","7671.727"
"1159","7665.777"
"1160","7657.492"
"1161","7666.359"
"1162","7701.813"
"1163","7745.658"
"1164","7774.973"
"1165","7771.192"
"1166","7745.313"
"1167","7720.625"
"1168","7719.368"
"1169","7741.661"
"1170","7767.192"
"1171","7774.965"
"1172","7757.442"
"1173","7734.124"
"1174","7727.773"
"1175","7754.2"
"1176","7796.74"
"1177","7829.235"
"1178","7828.123"
"1179","7800.748"
"1180","7774.643"
"1181","7777.195"
"1182","7813.42"
"1183","7857.685"
"1184","7882.124"
"1185","7869.226"
"1186","7832.174"
"1187","7789.822"
"1188","7759.271"
"1189","7745.636"
"1190","7749.037"
"1191","7769.259"
"1192","7800.273"
"1193","7831.007"
"1194","7850.296"
"1195","7854.67"
"1196","7854.235"
"1197","7860.487"
"1198","7881.34"
"1199","7911.23"
"1200","7941.427"
"1201","7964.258"
"1202","7981.144"
"1203","7998.049"
"1204","8020.685"
"1205","8047.952"
"1206","8071.956"
"1207","8084.53"
"1208","8080.28"
"1209","8059.264"
"1210","8022.167"
"1211","7973.24"
"1212","7931.12"
"1213","7918.105"
"1214","7952.998"
"1215","8023.891"
"1216","8103.005"
"1217","8163.038"
"1218","8190.969"
"1219","8187.905"
"1220","8155.612"
"1221","8102.263"
"1222","8048.013"
"1223","8014.346"
"1224","8015.832"
"1225","8041.483"
"1226","8074.417"
"1227","8099.68"
"1228","8116.945"
"1229","8132.56"
"1230","8152.585"
"1231","8177.368"
"1232","8202.412"
"1233","8223.104"
"1234","8237.154"
"1235","8245.859"
"1236","8250.814"
"1237","8253.598"
"1238","8255.714"
"1239","8258.663"
"1240","8264.02"
"1241","8273.799"
"1242","8290.159"
"1243","8314.637"
"1244","8341.709"
"1245","8361.427"
"1246","8364.162"
"1247","8351.18"
"1248","8335.695"
"1249","8331.482"
"1250","8343.901"
"1251","8362.191"
"1252","8373.757"
"1253","8369.983"
"1254","8356.06"
"1255","8340.16"
"1256","8329.909"
"1257","8329.382"
"1258","8341.249"
"1259","8367.328"
"1260","8398.666"
"1261","8418.986"
"1262","8412.448"
"1263","8380.585"
"1264","8344.707"
"1265","8327.116"
"1266","8339.507"
"1267","8373.419"
"1268","8418.129"
"1269","8462.98"
"1270","8497.587"
"1271","8511.596"
"1272","8497.659"
"1273","8465.528"
"1274","8431.001"
"1275","8409.002"
"1276","8405.312"
"1277","8420.313"
"1278","8453.886"
"1279","8496.618"
"1280","8530.331"
"1281","8536.767"
"1282","8512.918"
"1283","8478.58"
"1284","8455.412"
"1285","8456.858"
"1286","8476.654"
"1287","8505.629"
"1288","8534.356"
"1289","8552.447"
"1290","8549.255"
"1291","8517.804"
"1292","8474.976"
"1293","8447.216"
"1294","8458.167"
"1295","8499.677"
"1296","8543.693"
"1297","8562.983"
"1298","8554.385"
"1299","8537.639"
"1300","8533.132"
"1301","8547.825"
"1302","8569.508"
"1303","8584.505"
"1304","8584.556"
"1305","8573.075"
"1306","8555.006"
"1307","8536.686"
"1308","8529.059"
"1309","8544.034"
"1310","8588.193"
"1311","8640.791"
"1312","8672.345"
"1313","8658.108"
"1314","8611.304"
"1315","8563.375"
"1316","8543.678"
"1317","8552.765"
"1318","8571.09"
"1319","8579.405"
"1320","8575.201"
"1321","8572.606"
"1322","8586.136"
"1323","8613.998"
"1324","8631.48"
"1325","8612.3"
"1326","8553.191"
"1327","8496.712"
"1328","8490.849"
"1329","8558.963"
"1330","8654.496"
"1331","8718.529"
"1332","8709.586"
"1333","8657.376"
"1334","8609.78"
"1335","8605.887"
"1336","8633.283"
"1337","8660.889"
"1338","8662.036"
"1339","8647.666"
"1340","8647.601"
"1341","8688.649"
"1342","8757.928"
"1343","8815.568"
"1344","8822.997"
"1345","8777.382"
"1346","8708.233"
"1347","8645.754"
"1348","8604.054"
"1349","8578.025"
"1350","8561.461"
"1351","8549.647"
"1352","8540.205"
"1353","8530.972"
"1354","8521.79"
"1355","8516.604"
"1356","8519.854"
"1357","8529.916"
"1358","8528.906"
"1359","8496.226"
"1360","8423.785"
"1361","8347.527"
"1362","8313.101"
"1363","8351.838"
"1364","8429.106"
"1365","8491.29"
"1366","8494.126"
"1367","8449.48"
"1368","8389.988"
"1369","8345.526"
"1370","8324.125"
"1371","8323.593"
"1372","8340.965"
"1373","8366.068"
"1374","8384.525"
"1375","8382.928"
"1376","8361.706"
"1377","8331.159"
"1378","8301.749"
"1379","8282.848"
"1380","8282.882"
"1381","8309.574"
"1382","8353.916"
"1383","8389.531"
"1384","8389.981"
"1385","8355.236"
"1386","8317.876"
"1387","8312.041"
"1388","8347.513"
"1389","8398.513"
"1390","8436.619"
"1391","8448.72"
"1392","8447.973"
"1393","8450.049"
"1394","8461.044"
"1395","8467.883"
"1396","8455.232"
"1397","8418.687"
"1398","8379.257"
"1399","8361.556"
"1400","8377.054"
"1401","8401.887"
"1402","8406.32"
"1403","8374.408"
"1404","8332.774"
"1405","8316.242"
"1406","8346.192"
"1407","8396.734"
"1408","8431.577"
"1409","8425.059"
"1410","8393.798"
"1411","8364.923"
"1412","8359.48"
"1413","8371.409"
"1414","8387.113"
"1415","8395.848"
"1416","8400.993"
"1417","8410.282"
"1418","8429.073"
"1419","8449.834"
"1420","8460.663"
"1421","8452.285"
"1422","8431.01"
"1423","8408.875"
"1424","8395.893"
"1425","8389.052"
"1426","8380.202"
"1427","8362.918"
"1428","8342.636"
"1429","8329.771"
"1430","8333.637"
"1431","8355.359"
"1432","8392.439"
"1433","8441.047"
"1434","8487.338"
"1435","8512.834"
"1436","8502.998"
"1437","8474.967"
"1438","8461.018"
"1439","8489.1"
"1440","8550.723"
"1441","8619.53"
"1442","8671.423"
"1443","8702.39"
"1444","8718.433"
"1445","8725.463"
"1446","8728.043"
"1447","8730.057"
"1448","8734.456"
"1449","8736.406"
"1450","8727.143"
"1451","8699.356"
"1452","8658.15"
"1453","8614.8"
"1454","8580.006"
"1455","8559.272"
"1456","8555.568"
"1457","8570.04"
"1458","8589.497"
"1459","8593.928"
"1460","8566.613"
"1461","8516.357"
"1462","8463.694"
"1463","8426.14"
"1464","8398.839"
"1465","8367.101"
"1466","8319.161"
"1467","8263.561"
"1468","8217.305"
"1469","8194.121"
"1470","8186.648"
"1471","8179.26"
"1472","8159.019"
"1473","8128.964"
"1474","8097.952"
"1475","8073.07"
"1476","8051.841"
"1477","8028.565"
"1478","7997.97"
"1479","7956.917"
"1480","7902.915"
"1481","7836.901"
"1482","7774.946"
"1483","7737.306"
"1484","7738.176"
"1485","7767.716"
"1486","7810.159"
"1487","7849.067"
"1488","7865.736"
"1489","7840.959"
"1490","7768.787"
"1491","7684.055"
"1492","7629.409"
"1493","7628.919"
"1494","7656.734"
"1495","7678.751"
"1496","7674.655"
"1497","7656.258"
"1498","7639.903"
"1499","7636.106"
"1500","7643.645"
"1501","7659.857"
"1502","7679.428"
"1503","7692.449"
"1504","7688.737"
"1505","7667.639"
"1506","7642.552"
"1507","7627.702"
"1508","7625.918"
"1509","7625.792"
"1510","7615.45"
"1511","7594.544"
"1512","7574.897"
"1513","7568.074"
"1514","7569.815"
"1515","7561.873"
"1516","7527.747"
"1517","7482.274"
"1518","7463.279"
"1519","7503.89"
"1520","7581.462"
"1521","7639.744"
"1522","7629.919"
"1523","7568.011"
"1524","7501.697"
"1525","7471.346"
"1526","7469.491"
"1527","7470.032"
"1528","7452.861"
"1529","7427.525"
"1530","7412.644"
"1531","7421.119"
"1532","7444.198"
"1533","7468.009"
"1534","7482.904"
"1535","7491.538"
"1536","7498.773"
"1537","7506.899"
"1538","7512.442"
"1539","7511.2"
"1540","7502.693"
"1541","7492.839"
"1542","7487.983"
"1543","7486.021"
"1544","7473.68"
"1545","7437.688"
"1546","7383.224"
"1547","7334.204"
"1548","7314.212"
"1549","7328.898"
"1550","7370.047"
"1551","7427.913"
"1552","7480.954"
"1553","7500.768"
"1554","7465.955"
"1555","7405.161"
"1556","7368.515"
"1557","7392.622"
"1558","7446.427"
"1559","7477.9"
"1560","7452.459"
"1561","7396.708"
"1562","7350.628"
"1563","7338.732"
"1564","7347.249"
"1565","7356.661"
"1566","7355.537"
"1567","7346.705"
"1568","7334.409"
"1569","7321.501"
"1570","7309.066"
"1571","7298.102"
"1572","7289.975"
"1573","7286.393"
"1574","7289.019"
"1575","7298.861"
"1576","7316.501"
"1577","7341.033"
"1578","7360.637"
"1579","7358.635"
"1580","7324.73"
"1581","7279.473"
"1582","7252.692"
"1583","7263.438"
"1584","7296.587"
"1585","7330.289"
"1586","7349.712"
"1587","7354.821"
"1588","7347.538"
"1589","7333.882"
"1590","7325.676"
"1591","7334.621"
"1592","7359.799"
"1593","7388.154"
"1594","7406.673"
"1595","7408.865"
"1596","7392.458"
"1597","7358.145"
"1598","7326.747"
"1599","7327.636"
"1600","7378.213"
"1601","7444.313"
"1602","7477.942"
"1603","7453.157"
"1604","7403.029"
"1605","7370.125"
"1606","7373.387"
"1607","7391.634"
"1608","7400.455"
"1609","7394.709"
"1610","7390.369"
"1611","7402.856"
"1612","7425.961"
"1613","7438.217"
"1614","7422.547"
"1615","7396.307"
"1616","7392.093"
"1617","7431.015"
"1618","7484.837"
"1619","7512.215"
"1620","7491.369"
"1621","7450.004"
"1622","7423.237"
"1623","7427.165"
"1624","7448.62"
"1625","7472.394"
"1626","7493.23"
"1627","7515.324"
"1628","7542.907"
"1629","7576.685"
"1630","7615.306"
"1631","7655.639"
"1632","7684.891"
"1633","7686.944"
"1634","7656.7"
"1635","7623.304"
"1636","7622.323"
"1637","7666.152"
"1638","7725.579"
"1639","7768.053"
"1640","7787.626"
"1641","7806.67"
"1642","7846.411"
"1643","7899.554"
"1644","7940.844"
"1645","7950.279"
"1646","7939.956"
"1647","7933.461"
"1648","7946.498"
"1649","7970.101"
"1650","7990.563"
"1651","7998.097"
"1652","7989.698"
"1653","7963.532"
"1654","7928.807"
"1655","7905.685"
"1656","7911.724"
"1657","7934.58"
"1658","7945.086"
"1659","7920.644"
"1660","7871.7"
"1661","7818.738"
"1662","7777.477"
"1663","7751.482"
"1664","7742.234"
"1665","7742.621"
"1666","7733.674"
"1667","7697.557"
"1668","7646.561"
"1669","7616.056"
"1670","7634.272"
"1671","7677.247"
"1672","7699.504"
"1673","7668.56"
"1674","7595.648"
"1675","7501.153"
"1676","7408.398"
"1677","7345.725"
"1678","7339.901"
"1679","7375.478"
"1680","7398.029"
"1681","7360.026"
"1682","7282.723"
"1683","7220.929"
"1684","7213.24"
"1685","7234.533"
"1686","7244.425"
"1687","7220.415"
"1688","7174.209"
"1689","7121.091"
"1690","7070.009"
"1691","7023.625"
"1692","6983.961"
"1693","6949.758"
"1694","6918.096"
"1695","6888.202"
"1696","6867.809"
"1697","6866.629"
"1698","6882.248"
"1699","6889.486"
"1700","6862.127"
"1701","6805.706"
"1702","6755.853"
"1703","6743.822"
"1704","6756.868"
"1705","6761.467"
"1706","6737.562"
"1707","6712.585"
"1708","6723.935"
"1709","6777.708"
"1710","6828.645"
"1711","6829.252"
"1712","6774.208"
"1713","6692.284"
"1714","6612.548"
"1715","6559.447"
"1716","6555.661"
"1717","6605.328"
"1718","6661.804"
"1719","6670.944"
"1720","6624.22"
"1721","6571.531"
"1722","6561.975"
"1723","6593.372"
"1724","6632.085"
"1725","6650.197"
"1726","6647.184"
"1727","6630.053"
"1728","6605.867"
"1729","6581.773"
"1730","6564.654"
"1731","6555.896"
"1732","6551.958"
"1733","6549.447"
"1734","6547.2"
"1735","6544.956"
"1736","6542.426"
"1737","6539.246"
"1738","6535.082"
"1739","6531.181"
"1740","6530.736"
"1741","6536.162"
"1742","6541.316"
"1743","6535.277"
"1744","6512.984"
"1745","6491.464"
"1746","6492.674"
"1747","6521.381"
"1748","6555.268"
"1749","6571.1"
"1750","6565.522"
"1751","6549.173"
"1752","6531.149"
"1753","6511.784"
"1754","6488.858"
"1755","6464.227"
"1756","6447.554"
"1757","6448.685"
"1758","6465.438"
"1759","6485.621"
"1760","6498.377"
"1761","6502.229"
"1762","6498.956"
"1763","6490.526"
"1764","6479.296"
"1765","6467.53"
"1766","6454.375"
"1767","6436.111"
"1768","6410.527"
"1769","6385.454"
"1770","6372.56"
"1771","6376.059"
"1772","6382.762"
"1773","6377.95"
"1774","6368.103"
"1775","6380.125"
"1776","6433.579"
"1777","6495.777"
"1778","6513.617"
"1779","6461.515"
"1780","6378.491"
"1781","6311.994"
"1782","6290.959"
"1783","6326.833"
"1784","6420.318"
"1785","6511.127"
"1786","6516.262"
"1787","6410.05"
"1788","6292.703"
"1789","6275.191"
"1790","6355.905"
"1791","6435.005"
"1792","6431.089"
"1793","6380.918"
"1794","6360.558"
"1795","6397.893"
"1796","6427.702"
"1797","6380.391"
"1798","6279.607"
"1799","6219.654"
"1800","6267.181"
"1801","6356.619"
"1802","6386.333"
"1803","6322.86"
"1804","6241.836"
"1805","6221.608"
"1806","6260.96"
"1807","6309.583"
"1808","6328.42"
"1809","6320.316"
"1810","6297.133"
"1811","6268.186"
"1812","6239.605"
"1813","6217.567"
"1814","6210.114"
"1815","6226.145"
"1816","6265.669"
"1817","6306.133"
"1818","6322.577"
"1819","6313.356"
"1820","6298.436"
"1821","6293.431"
"1822","6286.376"
"1823","6256.389"
"1824","6201.421"
"1825","6152.649"
"1826","6141.94"
"1827","6169.043"
"1828","6213.045"
"1829","6254.089"
"1830","6277.303"
"1831","6269.425"
"1832","6235.451"
"1833","6201.798"
"1834","6191.04"
"1835","6191.175"
"1836","6175.98"
"1837","6138.704"
"1838","6113.745"
"1839","6137.594"
"1840","6201.302"
"1841","6262.268"
"1842","6286.164"
"1843","6274.035"
"1844","6235.657"
"1845","6188.119"
"1846","6157.719"
"1847","6167.395"
"1848","6211.696"
"1849","6272.836"
"1850","6326.376"
"1851","6333.922"
"1852","6260.745"
"1853","6147.476"
"1854","6089.195"
"1855","6145.819"
"1856","6245.259"
"1857","6287.865"
"1858","6247.97"
"1859","6185.215"
"1860","6155.217"
"1861","6159.172"
"1862","6177.731"
"1863","6192.651"
"1864","6187.825"
"1865","6150.452"
"1866","6100.518"
"1867","6077.572"
"1868","6103.404"
"1869","6148.809"
"1870","6176.898"
"1871","6176.091"
"1872","6157.502"
"1873","6131.38"
"1874","6100.514"
"1875","6065.839"
"1876","6035.608"
"1877","6027.64"
"1878","6055.508"
"1879","6099.539"
"1880","6126.441"
"1881","6119.571"
"1882","6093.655"
"1883","6066.679"
"1884","6054.114"
"1885","6069.956"
"1886","6115.125"
"1887","6155.789"
"1888","6154.814"
"1889","6116.077"
"1890","6076.819"
"1891","6066.33"
"1892","6080.211"
"1893","6105.996"
"1894","6125.966"
"1895","6116.729"
"1896","6063.502"
"1897","5997.507"
"1898","5964.189"
"1899","5980.824"
"1900","6024.783"
"1901","6071.086"
"1902","6099.861"
"1903","6093.541"
"1904","6051.846"
"1905","6005.756"
"1906","5986.133"
"1907","5991.747"
"1908","6004.136"
"1909","6012.104"
"1910","6021.302"
"1911","6038.585"
"1912","6057.104"
"1913","6060.94"
"1914","6041.323"
"1915","6009.898"
"1916","5981.566"
"1917","5966.348"
"1918","5970.405"
"1919","5995.594"
"1920","6029.679"
"1921","6057.582"
"1922","6067.146"
"1923","6048.898"
"1924","5999.749"
"1925","5941.303"
"1926","5900.716"
"1927","5890.54"
"1928","5908.061"
"1929","5948.499"
"1930","6001.094"
"1931","6053.274"
"1932","6089.238"
"1933","6089.461"
"1934","6041.582"
"1935","5970.102"
"1936","5910.563"
"1937","5881.895"
"1938","5882.17"
"1939","5904.815"
"1940","5925.443"
"1941","5914.43"
"1942","5873.964"
"1943","5848.324"
"1944","5874.049"
"1945","5927.061"
"1946","5962.622"
"1947","5963.721"
"1948","5951.207"
"1949","5946.164"
"1950","5955.048"
"1951","5978.84"
"1952","6006.327"
"1953","6009.635"
"1954","5968.629"
"1955","5914.689"
"1956","5896.472"
"1957","5917.357"
"1958","5919.753"
"1959","5857.525"
"1960","5772.146"
"1961","5733.756"
"1962","5756.11"
"1963","5780.219"
"1964","5757.513"
"1965","5718.934"
"1966","5719.73"
"1967","5768.134"
"1968","5815.64"
"1969","5822.486"
"1970","5806.802"
"1971","5802.804"
"1972","5815.53"
"1973","5817.853"
"1974","5788.286"
"1975","5736.294"
"1976","5679.337"
"1977","5631.229"
"1978","5602.187"
"1979","5600.76"
"1980","5629.83"
"1981","5689.724"
"1982","5758.342"
"1983","5794.323"
"1984","5775.391"
"1985","5740.035"
"1986","5734.835"
"1987","5755.741"
"1988","5761.775"
"1989","5731.332"
"1990","5694.26"
"1991","5684.712"
"1992","5695.932"
"1993","5696.5"
"1994","5669.24"
"1995","5627.063"
"1996","5586.17"
"1997","5558.926"
"1998","5555.689"
"1999","5574.381"
"2000","5592.593"
"2001","5590.004"
"2002","5571.191"
"2003","5549.931"
"2004","5530.22"
"2005","5503.509"
"2006","5465.646"
"2007","5436.38"
"2008","5440.944"
"2009","5473.292"
"2010","5496.654"
"2011","5485.385"
"2012","5455.481"
"2013","5431.072"
"2014","5428.068"
"2015","5456.305"
"2016","5511.342"
"2017","5555.001"
"2018","5549.658"
"2019","5508.868"
"2020","5473.308"
"2021","5462.744"
"2022","5460.886"
"2023","5450.17"
"2024","5426.795"
"2025","5392.386"
"2026","5358.086"
"2027","5346.427"
"2028","5374.057"
"2029","5431.219"
"2030","5500.682"
"2031","5551.249"
"2032","5540.17"
"2033","5454.703"
"2034","5361.266"
"2035","5330.829"
"2036","5353.522"
"2037","5374.777"
"2038","5367.812"
"2039","5354.009"
"2040","5354.759"
"2041","5364.126"
"2042","5366.895"
"2043","5362.11"
"2044","5364.611"
"2045","5382.214"
"2046","5395.281"
"2047","5380.076"
"2048","5338.771"
"2049","5291.859"
"2050","5254.554"
"2051","5230.029"
"2052","5219.502"
"2053","5221.015"
"2054","5231.031"
"2055","5238.888"
"2056","5224.781"
"2057","5179.507"
"2058","5138.996"
"2059","5147.608"
"2060","5203.636"
"2061","5269.508"
"2062","5314.087"
"2063","5323.168"
"2064","5289.819"
"2065","5244.476"
"2066","5233.598"
"2067","5264.588"
"2068","5293.836"
"2069","5286.523"
"2070","5256.514"
"2071","5228.379"
"2072","5207.395"
"2073","5184.484"
"2074","5157.53"
"2075","5139.755"
"2076","5142.451"
"2077","5150.87"
"2078","5140.516"
"2079","5114.338"
"2080","5106.907"
"2081","5139.04"
"2082","5179.894"
"2083","5190.67"
"2084","5164.201"
"2085","5113.076"
"2086","5056.042"
"2087","5021.698"
"2088","5032.275"
"2089","5072.443"
"2090","5115.632"
"2091","5147.9"
"2092","5166.524"
"2093","5170.449"
"2094","5161.761"
"2095","5143.808"
"2096","5125.788"
"2097","5119.054"
"2098","5118.966"
"2099","5101.639"
"2100","5055.292"
"2101","5012.314"
"2102","5009.347"
"2103","5030.375"
"2104","5028.467"
"2105","4989.23"
"2106","4949.604"
"2107","4944.547"
"2108","4980.397"
"2109","5053.122"
"2110","5121.831"
"2111","5118.391"
"2112","5025.064"
"2113","4922.761"
"2114","4886.509"
"2115","4896.25"
"2116","4901.633"
"2117","4891.874"
"2118","4891.56"
"2119","4912.592"
"2120","4934.888"
"2121","4937.016"
"2122","4918.104"
"2123","4885.868"
"2124","4856.788"
"2125","4856.215"
"2126","4891.118"
"2127","4919.737"
"2128","4899.946"
"2129","4844.991"
"2130","4792.081"
"2131","4759.667"
"2132","4745.284"
"2133","4746.185"
"2134","4761.87"
"2135","4788.707"
"2136","4795.836"
"2137","4741.497"
"2138","4643.064"
"2139","4585.921"
"2140","4616.495"
"2141","4658.635"
"2142","4630.667"
"2143","4580.751"
"2144","4614.904"
"2145","4730.904"
"2146","4802.865"
"2147","4757.425"
"2148","4686.968"
"2149","4694.158"
"2150","4741.816"
"2151","4732.29"
"2152","4648.587"
"2153","4561.027"
"2154","4527.076"
"2155","4559.363"
"2156","4653.517"
"2157","4738.427"
"2158","4719.701"
"2159","4603.896"
"2160","4496.085"
"2161","4463.815"
"2162","4479.284"
"2163","4505.567"
"2164","4529.998"
"2165","4548.784"
"2166","4561.932"
"2167","4572.53"
"2168","4569.109"
"2169","4512.083"
"2170","4382.218"
"2171","4271.848"
"2172","4295.468"
"2173","4423.759"
"2174","4528.021"
"2175","4546.826"
"2176","4526.975"
"2177","4508.994"
"2178","4475.541"
"2179","4401.738"
"2180","4317.28"
"2181","4280.639"
"2182","4307.619"
"2183","4361.904"
"2184","4409.959"
"2185","4434.737"
"2186","4426.833"
"2187","4409.569"
"2188","4417.434"
"2189","4440.66"
"2190","4429.615"
"2191","4364.688"
"2192","4288.162"
"2193","4245.445"
"2194","4262.546"
"2195","4353.367"
"2196","4454.87"
"2197","4456.227"
"2198","4332.598"
"2199","4178.123"
"2200","4075.641"
"2201","4047.108"
"2202","4096.144"
"2203","4176.645"
"2204","4222.98"
"2205","4213.417"
"2206","4166.907"
"2207","4107.602"
"2208","4066.655"
"2209","4065.55"
"2210","4079.989"
"2211","4075.2"
"2212","4037.429"
"2213","3966.417"
"2214","3896.996"
"2215","3906.549"
"2216","4026.192"
"2217","4161.561"
"2218","4213.959"
"2219","4175.689"
"2220","4074.327"
"2221","3978.641"
"2222","3986.488"
"2223","4099.315"
"2224","4172.486"
"2225","4109.304"
"2226","4003.213"
"2227","3966.296"
"2228","3976.934"
"2229","3959.147"
"2230","3889.636"
"2231","3791.14"
"2232","3701.875"
"2233","3683.895"
"2234","3763.385"
"2235","3829.438"
"2236","3763.995"
"2237","3636.937"
"2238","3600.05"
"2239","3658.713"
"2240","3681.824"
"2241","3614.445"
"2242","3550.277"
"2243","3566.859"
"2244","3621.322"
"2245","3650.402"
"2246","3654.447"
"2247","3663.112"
"2248","3677.348"
"2249","3671.188"
"2250","3630.371"
"2251","3563.546"
"2252","3490.58"
"2253","3462.763"
"2254","3525.281"
"2255","3622.633"
"2256","3657.258"
"2257","3605.934"
"2258","3510.466"
"2259","3413.393"
"2260","3354.733"
"2261","3350.615"
"2262","3341.649"
"2263","3269.306"
"2264","3179.098"
"2265","3152.262"
"2266","3184.207"
"2267","3206.259"
"2268","3187.889"
"2269","3153.754"
"2270","3124.806"
"2271","3101.614"
"2272","3073.725"
"2273","2991.081"
"2274","2802.706"
"2275","2585.606"
"2276","2490.222"
"2277","2543.157"
"2278","2633.742"
"2279","2674.913"
"2280","2641.296"
"2281","2540.334"
"2282","2476.056"
"2283","2547.624"
"2284","2645.497"
"2285","2579.123"
"2286","2376.723"
"2287","2242.297"
"2288","2254.595"
"2289","2304.889"
"2290","2307.901"
"2291","2277.454"
"2292","2234.334"
"2293","2155.891"
"2294","2016.297"
"2295","1886.731"
"2296","1885.849"
"2297","1984.305"
"2298","2009.725"
"2299","1908.557"
"2300","1838.03"
