,"Scan 01058"
"400","10231.89"
"401","10217.42"
"402","10161.95"
"403","10088.04"
"404","10018.11"
"405","9972.426"
"406","9953.947"
"407","9956.896"
"408","9975.465"
"409","10003.83"
"410","10035.54"
"411","10063.7"
"412","10081.45"
"413","10082.39"
"414","10068.25"
"415","10048.32"
"416","10032.14"
"417","10028.92"
"418","10039.76"
"419","10055.73"
"420","10067.37"
"421","10065.35"
"422","10047.59"
"423","10023.56"
"424","10003.73"
"425","9998.438"
"426","10012.1"
"427","10036.82"
"428","10063.16"
"429","10081.82"
"430","10086.68"
"431","10080.28"
"432","10066.53"
"433","10049.37"
"434","10032.15"
"435","10016.4"
"436","10003.28"
"437","9993.906"
"438","9989.158"
"439","9988.784"
"440","9992.232"
"441","9998.955"
"442","10007.64"
"443","10012.84"
"444","10007.68"
"445","9985.376"
"446","9941.365"
"447","9886.002"
"448","9835.754"
"449","9806.99"
"450","9813.424"
"451","9847.562"
"452","9891.524"
"453","9927.483"
"454","9939.297"
"455","9926.77"
"456","9898.867"
"457","9864.6"
"458","9832.468"
"459","9805.43"
"460","9782.771"
"461","9763.727"
"462","9747.521"
"463","9733.276"
"464","9720.036"
"465","9706.849"
"466","9692.901"
"467","9679.692"
"468","9670.635"
"469","9669.179"
"470","9678.424"
"471","9694.866"
"472","9708.976"
"473","9711.047"
"474","9691.881"
"475","9652.418"
"476","9603.649"
"477","9556.934"
"478","9523.339"
"479","9508.294"
"480","9511.25"
"481","9531.373"
"482","9567.651"
"483","9613.949"
"484","9658.402"
"485","9688.909"
"486","9693.778"
"487","9671.7"
"488","9633.435"
"489","9590.352"
"490","9553.562"
"491","9527.641"
"492","9509.399"
"493","9495.215"
"494","9481.475"
"495","9464.642"
"496","9441.243"
"497","9407.832"
"498","9361.128"
"499","9302.72"
"500","9240.059"
"501","9180.909"
"502","9132.806"
"503","9097.389"
"504","9069.312"
"505","9042.847"
"506","9012.429"
"507","8976.456"
"508","8937.9"
"509","8899.955"
"510","8865.747"
"511","8836.55"
"512","8811.603"
"513","8790.036"
"514","8771.003"
"515","8753.895"
"516","8738.357"
"517","8724.056"
"518","8710.666"
"519","8698.327"
"520","8687.616"
"521","8679.12"
"522","8673.38"
"523","8670.023"
"524","8667.854"
"525","8665.653"
"526","8662.105"
"527","8654.243"
"528","8637.743"
"529","8608.267"
"530","8562.262"
"531","8506.963"
"532","8457.519"
"533","8429.182"
"534","8435.365"
"535","8468.641"
"536","8508.057"
"537","8532.539"
"538","8523.547"
"539","8486.506"
"540","8440.39"
"541","8404.229"
"542","8394.401"
"543","8406.352"
"544","8425.394"
"545","8436.848"
"546","8428.623"
"547","8405.511"
"548","8379.179"
"549","8361.263"
"550","8360.521"
"551","8370.351"
"552","8378.988"
"553","8374.723"
"554","8350.001"
"555","8315.307"
"556","8286.009"
"557","8277.405"
"558","8298.542"
"559","8336.817"
"560","8374.981"
"561","8395.869"
"562","8388.984"
"563","8362.009"
"564","8325.677"
"565","8290.662"
"566","8264.567"
"567","8248.449"
"568","8242.518"
"569","8246.94"
"570","8259.118"
"571","8271.803"
"572","8277.335"
"573","8268.295"
"574","8245.584"
"575","8220.899"
"576","8206.61"
"577","8214.379"
"578","8240.722"
"579","8267.037"
"580","8274.142"
"581","8244.529"
"582","8184.221"
"583","8117.071"
"584","8067.273"
"585","8056.163"
"586","8077.881"
"587","8111.213"
"588","8134.864"
"589","8131.121"
"590","8105.951"
"591","8075.038"
"592","8054.036"
"593","8055.041"
"594","8073.836"
"595","8101.48"
"596","8129.062"
"597","8149.207"
"598","8159.384"
"599","8158.031"
"600","8143.614"
"601","8118.19"
"602","8091.745"
"603","8075.303"
"604","8079.665"
"605","8104.906"
"606","8134.679"
"607","8151.286"
"608","8137.817"
"609","8096.034"
"610","8047.604"
"611","8015.084"
"612","8019.258"
"613","8057.17"
"614","8108.472"
"615","8152.484"
"616","8170.916"
"617","8164.644"
"618","8143.988"
"619","8119.298"
"620","8098.966"
"621","8081.509"
"622","8062.307"
"623","8036.747"
"624","8002.71"
"625","7966.008"
"626","7934.017"
"627","7914.059"
"628","7909.747"
"629","7917.233"
"630","7931.792"
"631","7948.731"
"632","7964.24"
"633","7975.625"
"634","7980.279"
"635","7975.954"
"636","7966.178"
"637","7959.259"
"638","7963.615"
"639","7986.022"
"640","8019.034"
"641","8047.875"
"642","8057.754"
"643","8038.217"
"644","8000.127"
"645","7960.926"
"646","7937.998"
"647","7941.495"
"648","7960.96"
"649","7982.287"
"650","7991.534"
"651","7983.363"
"652","7966.953"
"653","7952.852"
"654","7951.164"
"655","7962.118"
"656","7975.954"
"657","7982.482"
"658","7972.898"
"659","7952.744"
"660","7936.194"
"661","7937.504"
"662","7966.431"
"663","8008.149"
"664","8039.46"
"665","8037.234"
"666","7990.564"
"667","7924.707"
"668","7871.519"
"669","7862.446"
"670","7905.94"
"671","7972.741"
"672","8030.157"
"673","8046.909"
"674","8018.807"
"675","7966.86"
"676","7912.994"
"677","7877.187"
"678","7862.795"
"679","7864.541"
"680","7877.076"
"681","7895.88"
"682","7919.959"
"683","7949.276"
"684","7983.794"
"685","8020.798"
"686","8051.598"
"687","8066.709"
"688","8057.007"
"689","8024.13"
"690","7982.59"
"691","7947.612"
"692","7933.261"
"693","7940.564"
"694","7962.178"
"695","7990.643"
"696","8018.772"
"697","8040.748"
"698","8051.209"
"699","8044.815"
"700","8020.92"
"701","7990.757"
"702","7967.378"
"703","7963.526"
"704","7981.04"
"705","8007.81"
"706","8030.837"
"707","8038.09"
"708","8028.799"
"709","8009.6"
"710","7987.252"
"711","7967.965"
"712","7955.22"
"713","7951.621"
"714","7959.752"
"715","7978.567"
"716","7998.441"
"717","8008.524"
"718","7998.37"
"719","7968.814"
"720","7933.679"
"721","7907.476"
"722","7903.226"
"723","7919.614"
"724","7947.261"
"725","7976.712"
"726","7999.315"
"727","8009.658"
"728","8003.172"
"729","7975.376"
"730","7930.64"
"731","7889.57"
"732","7874.48"
"733","7906.138"
"734","7978.005"
"735","8059.816"
"736","8120.572"
"737","8134.458"
"738","8109.074"
"739","8065.36"
"740","8024.235"
"741","8000.546"
"742","7992.728"
"743","7996.463"
"744","8007.476"
"745","8022.309"
"746","8038.498"
"747","8053.644"
"748","8065.721"
"749","8076.163"
"750","8088.303"
"751","8105.492"
"752","8128.971"
"753","8152.297"
"754","8167.278"
"755","8165.859"
"756","8147.607"
"757","8123.769"
"758","8106.571"
"759","8107.234"
"760","8124.699"
"761","8149.587"
"762","8172.379"
"763","8185.301"
"764","8188.334"
"765","8183.631"
"766","8173.345"
"767","8160.438"
"768","8149.316"
"769","8144.536"
"770","8150.188"
"771","8163.825"
"772","8178.036"
"773","8185.294"
"774","8180.365"
"775","8169.223"
"776","8161.254"
"777","8165.782"
"778","8186.519"
"779","8216.682"
"780","8248.345"
"781","8274.042"
"782","8293.18"
"783","8310.472"
"784","8330.764"
"785","8357.176"
"786","8384.472"
"787","8404.911"
"788","8410.818"
"789","8400.155"
"790","8380.984"
"791","8362.413"
"792","8353.104"
"793","8355.798"
"794","8368.993"
"795","8391.086"
"796","8419.149"
"797","8444.547"
"798","8457.108"
"799","8446.859"
"800","8415.306"
"801","8381.912"
"802","8367.696"
"803","8391.14"
"804","8443.521"
"805","8499.51"
"806","8533.569"
"807","8528.379"
"808","8495.018"
"809","8450.693"
"810","8412.387"
"811","8389.261"
"812","8380.689"
"813","8385.438"
"814","8402.114"
"815","8428.217"
"816","8460.707"
"817","8496.545"
"818","8531.678"
"819","8559.481"
"820","8572.932"
"821","8565.537"
"822","8541.309"
"823","8513.94"
"824","8497.486"
"825","8502.783"
"826","8523.949"
"827","8549.642"
"828","8568.59"
"829","8574.383"
"830","8568.97"
"831","8555.13"
"832","8535.985"
"833","8518.541"
"834","8512.202"
"835","8526.397"
"836","8564.461"
"837","8610.055"
"838","8642.894"
"839","8643.413"
"840","8611.188"
"841","8566.687"
"842","8531.423"
"843","8523.252"
"844","8537.988"
"845","8563.229"
"846","8586.623"
"847","8602.218"
"848","8615.96"
"849","8635.088"
"850","8665.857"
"851","8703.287"
"852","8735.222"
"853","8749.401"
"854","8739.471"
"855","8717.721"
"856","8700.106"
"857","8701.929"
"858","8722.891"
"859","8746.752"
"860","8756.55"
"861","8739.974"
"862","8709.331"
"863","8685.047"
"864","8687.327"
"865","8722.482"
"866","8774.847"
"867","8826.813"
"868","8862.242"
"869","8877.824"
"870","8876.88"
"871","8862.797"
"872","8840.846"
"873","8820.834"
"874","8813.231"
"875","8827.63"
"876","8860.666"
"877","8899.083"
"878","8929.378"
"879","8942.238"
"880","8943.412"
"881","8942.031"
"882","8946.972"
"883","8960.473"
"884","8977.645"
"885","8993.237"
"886","9002.785"
"887","9005.926"
"888","9003.629"
"889","8996.927"
"890","8989.732"
"891","8990.205"
"892","9006.846"
"893","9046.123"
"894","9099.512"
"895","9151.768"
"896","9187.678"
"897","9200.198"
"898","9198.172"
"899","9192.269"
"900","9192.172"
"901","9197.393"
"902","9201.469"
"903","9197.874"
"904","9183.43"
"905","9163.386"
"906","9144.299"
"907","9132.58"
"908","9132.762"
"909","9147.973"
"910","9181.31"
"911","9231.748"
"912","9285.239"
"913","9325.169"
"914","9335.769"
"915","9317.161"
"916","9283.6"
"917","9249.835"
"918","9226.677"
"919","9209.807"
"920","9191.275"
"921","9163.713"
"922","9134.017"
"923","9123.898"
"924","9155.754"
"925","9241.866"
"926","9348.985"
"927","9431.068"
"928","9443.358"
"929","9381.652"
"930","9289.274"
"931","9212.256"
"932","9187.756"
"933","9207.787"
"934","9250.068"
"935","9292.563"
"936","9322.891"
"937","9341.04"
"938","9347.817"
"939","9344.736"
"940","9337.276"
"941","9332.272"
"942","9336.439"
"943","9351.127"
"944","9370.401"
"945","9387.808"
"946","9397.724"
"947","9399.328"
"948","9393.533"
"949","9381.252"
"950","9363.501"
"951","9341.435"
"952","9316.224"
"953","9290.148"
"954","9272.033"
"955","9273.073"
"956","9304.136"
"957","9360.956"
"958","9418.391"
"959","9449.761"
"960","9434.323"
"961","9385.21"
"962","9327.541"
"963","9286.136"
"964","9272.465"
"965","9280.278"
"966","9302.102"
"967","9330.316"
"968","9356.58"
"969","9372.303"
"970","9369.105"
"971","9346.294"
"972","9312.685"
"973","9277.687"
"974","9249.831"
"975","9233.37"
"976","9231.265"
"977","9246.192"
"978","9272.88"
"979","9297.133"
"980","9304.282"
"981","9285.069"
"982","9253.253"
"983","9228.716"
"984","9230.57"
"985","9260.549"
"986","9303.281"
"987","9342.662"
"988","9366.716"
"989","9378.318"
"990","9383.693"
"991","9388.739"
"992","9393.839"
"993","9394.736"
"994","9387.039"
"995","9370.559"
"996","9357.535"
"997","9362.5"
"998","9398.439"
"999","9458.39"
"1000","9521.563"
"1001","9566.904"
"1002","9582.002"
"1003","9574.844"
"1004","9556.363"
"1005","9537.502"
"1006","9528.009"
"1007","9529.6"
"1008","9540.67"
"1009","9559.552"
"1010","9581.645"
"1011","9598.158"
"1012","9599.965"
"1013","9581.11"
"1014","9552.911"
"1015","9532.521"
"1016","9536.611"
"1017","9566.09"
"1018","9603.347"
"1019","9629.704"
"1020","9631.479"
"1021","9616.115"
"1022","9596.639"
"1023","9585.746"
"1024","9589.318"
"1025","9606.921"
"1026","9637.887"
"1027","9679.134"
"1028","9720.001"
"1029","9748.331"
"1030","9753.188"
"1031","9739.651"
"1032","9724.039"
"1033","9722.879"
"1034","9744.071"
"1035","9775.913"
"1036","9803.99"
"1037","9815.717"
"1038","9814.198"
"1039","9810.487"
"1040","9815.596"
"1041","9833.129"
"1042","9854.849"
"1043","9871.455"
"1044","9875.246"
"1045","9867.459"
"1046","9852.411"
"1047","9834.443"
"1048","9818.328"
"1049","9809.314"
"1050","9812.677"
"1051","9831.492"
"1052","9861.076"
"1053","9895.029"
"1054","9926.972"
"1055","9950.925"
"1056","9961.186"
"1057","9952.095"
"1058","9925.4"
"1059","9899.07"
"1060","9893.222"
"1061","9923.76"
"1062","9974.828"
"1063","10016.13"
"1064","10017.89"
"1065","9976.413"
"1066","9923.092"
"1067","9891.805"
"1068","9906.551"
"1069","9949.575"
"1070","9992.107"
"1071","10006.95"
"1072","9992.584"
"1073","9968.293"
"1074","9953.916"
"1075","9960.239"
"1076","9976.906"
"1077","9990.548"
"1078","9989.917"
"1079","9980.046"
"1080","9973.456"
"1081","9982.395"
"1082","10006.67"
"1083","10029.93"
"1084","10034.75"
"1085","10011.03"
"1086","9976.773"
"1087","9956.752"
"1088","9973.608"
"1089","10021.82"
"1090","10075.92"
"1091","10110.1"
"1092","10111.18"
"1093","10090.35"
"1094","10061.57"
"1095","10037.12"
"1096","10019.42"
"1097","10007.37"
"1098","9999.779"
"1099","9994.022"
"1100","9986.036"
"1101","9971.706"
"1102","9950.821"
"1103","9933.607"
"1104","9932.006"
"1105","9955.469"
"1106","9993.327"
"1107","10025.17"
"1108","10031.01"
"1109","10008.47"
"1110","9977.391"
"1111","9959.018"
"1112","9967.822"
"1113","9995.242"
"1114","10027.83"
"1115","10052.77"
"1116","10063.82"
"1117","10058.6"
"1118","10034.96"
"1119","10000.32"
"1120","9976.201"
"1121","9985.294"
"1122","10040.19"
"1123","10113.66"
"1124","10168.63"
"1125","10171.67"
"1126","10132.3"
"1127","10088.17"
"1128","10076.98"
"1129","10108.62"
"1130","10148.54"
"1131","10158.23"
"1132","10111.48"
"1133","10033.33"
"1134","9962.146"
"1135","9933.629"
"1136","9950.627"
"1137","9994.149"
"1138","10044.89"
"1139","10089.57"
"1140","10124.41"
"1141","10146.51"
"1142","10152.83"
"1143","10140.02"
"1144","10104.64"
"1145","10045.01"
"1146","9978.891"
"1147","9936.148"
"1148","9946.322"
"1149","10012.55"
"1150","10100.14"
"1151","10171.43"
"1152","10199.92"
"1153","10197.76"
"1154","10185.47"
"1155","10181.9"
"1156","10190.68"
"1157","10207.39"
"1158","10227.51"
"1159","10246.63"
"1160","10260.5"
"1161","10264.87"
"1162","10258.26"
"1163","10246.83"
"1164","10238.05"
"1165","10238.25"
"1166","10246.14"
"1167","10257.28"
"1168","10267.23"
"1169","10272.52"
"1170","10270.54"
"1171","10258.77"
"1172","10240.75"
"1173","10232.23"
"1174","10250.46"
"1175","10305.31"
"1176","10372.41"
"1177","10417.31"
"1178","10409.06"
"1179","10358"
"1180","10301.41"
"1181","10276.49"
"1182","10295.33"
"1183","10335.56"
"1184","10372.35"
"1185","10387.64"
"1186","10383.6"
"1187","10366.12"
"1188","10341.31"
"1189","10316.81"
"1190","10300.87"
"1191","10301.42"
"1192","10319.94"
"1193","10352.37"
"1194","10394.41"
"1195","10439.9"
"1196","10479.31"
"1197","10502.8"
"1198","10504.14"
"1199","10490.79"
"1200","10473.47"
"1201","10462.58"
"1202","10466.17"
"1203","10491.08"
"1204","10543.41"
"1205","10612.4"
"1206","10670.53"
"1207","10689.64"
"1208","10659.29"
"1209","10603.8"
"1210","10551.51"
"1211","10524.36"
"1212","10518.3"
"1213","10522.69"
"1214","10527.69"
"1215","10530.32"
"1216","10531.14"
"1217","10530.89"
"1218","10533.11"
"1219","10544.14"
"1220","10570.38"
"1221","10611.22"
"1222","10652.97"
"1223","10680.53"
"1224","10683.52"
"1225","10669.18"
"1226","10648.78"
"1227","10632.53"
"1228","10622.32"
"1229","10616.26"
"1230","10612.64"
"1231","10612.82"
"1232","10620.86"
"1233","10640.77"
"1234","10671.59"
"1235","10704.62"
"1236","10730.54"
"1237","10743.41"
"1238","10747.16"
"1239","10747.41"
"1240","10748.62"
"1241","10748.71"
"1242","10743.34"
"1243","10729.16"
"1244","10713.96"
"1245","10712.49"
"1246","10738.97"
"1247","10789.69"
"1248","10841.19"
"1249","10869.1"
"1250","10863.18"
"1251","10840.29"
"1252","10820.34"
"1253","10817.75"
"1254","10827.84"
"1255","10841.8"
"1256","10852.44"
"1257","10862.81"
"1258","10880"
"1259","10909.9"
"1260","10943.03"
"1261","10959.45"
"1262","10939.82"
"1263","10888.93"
"1264","10839"
"1265","10823.59"
"1266","10856.91"
"1267","10916.36"
"1268","10975.22"
"1269","11013.77"
"1270","11035.2"
"1271","11047.36"
"1272","11056.66"
"1273","11061.38"
"1274","11056.95"
"1275","11039.65"
"1276","11014.9"
"1277","10993.47"
"1278","10985.63"
"1279","10989.33"
"1280","10990.9"
"1281","10976.43"
"1282","10944.57"
"1283","10912.72"
"1284","10899.81"
"1285","10916.75"
"1286","10955.18"
"1287","11003.89"
"1288","11051.85"
"1289","11088.66"
"1290","11104.06"
"1291","11090.41"
"1292","11057.03"
"1293","11020.04"
"1294","10994.85"
"1295","10988.53"
"1296","11002.95"
"1297","11039.47"
"1298","11090.54"
"1299","11140.15"
"1300","11172.1"
"1301","11177.8"
"1302","11159.6"
"1303","11120.68"
"1304","11070.05"
"1305","11029.21"
"1306","11021.34"
"1307","11058.1"
"1308","11113.12"
"1309","11152.16"
"1310","11149.13"
"1311","11119.91"
"1312","11093.8"
"1313","11096.77"
"1314","11128.05"
"1315","11174.03"
"1316","11220.99"
"1317","11254.67"
"1318","11260.41"
"1319","11224.72"
"1320","11160.65"
"1321","11107.7"
"1322","11105.8"
"1323","11161.68"
"1324","11235.29"
"1325","11283.21"
"1326","11283.02"
"1327","11254.12"
"1328","11220.9"
"1329","11201.66"
"1330","11197.54"
"1331","11206.64"
"1332","11226.4"
"1333","11251.57"
"1334","11276.19"
"1335","11294.94"
"1336","11306.22"
"1337","11309.73"
"1338","11305.69"
"1339","11298.31"
"1340","11293.82"
"1341","11297.62"
"1342","11304.73"
"1343","11303.07"
"1344","11281.14"
"1345","11241.77"
"1346","11200.69"
"1347","11173.75"
"1348","11165.21"
"1349","11165.4"
"1350","11164.03"
"1351","11159.16"
"1352","11161.96"
"1353","11184.7"
"1354","11228.13"
"1355","11269.57"
"1356","11283.44"
"1357","11257.13"
"1358","11212.79"
"1359","11178.34"
"1360","11172.83"
"1361","11183.87"
"1362","11192.21"
"1363","11183.38"
"1364","11165.12"
"1365","11151.56"
"1366","11154.59"
"1367","11172.69"
"1368","11199.39"
"1369","11227.72"
"1370","11247.03"
"1371","11244.98"
"1372","11211.09"
"1373","11154.21"
"1374","11094.42"
"1375","11050.78"
"1376","11026.31"
"1377","11012.62"
"1378","11001.76"
"1379","10998.83"
"1380","11020.15"
"1381","11081.15"
"1382","11165.86"
"1383","11225.68"
"1384","11211.96"
"1385","11127.04"
"1386","11036.22"
"1387","11007.76"
"1388","11058.59"
"1389","11130.71"
"1390","11160.68"
"1391","11124.89"
"1392","11068.06"
"1393","11041.46"
"1394","11068.42"
"1395","11116.36"
"1396","11146.06"
"1397","11136.33"
"1398","11107.98"
"1399","11087.75"
"1400","11090.23"
"1401","11097.28"
"1402","11085.34"
"1403","11043"
"1404","10996.29"
"1405","10978.48"
"1406","11010.12"
"1407","11067.1"
"1408","11115.46"
"1409","11129.37"
"1410","11115.25"
"1411","11087.53"
"1412","11059.42"
"1413","11038.52"
"1414","11030.91"
"1415","11041.21"
"1416","11066.92"
"1417","11103.33"
"1418","11143.68"
"1419","11170.14"
"1420","11161.09"
"1421","11102.3"
"1422","11023.21"
"1423","10969.28"
"1424","10977.2"
"1425","11027.14"
"1426","11076.93"
"1427","11089.88"
"1428","11066.96"
"1429","11024.97"
"1430","10980.97"
"1431","10953.52"
"1432","10961.84"
"1433","11019.9"
"1434","11101.32"
"1435","11161.07"
"1436","11161.06"
"1437","11119.51"
"1438","11081.53"
"1439","11086.85"
"1440","11129.63"
"1441","11181.62"
"1442","11216.78"
"1443","11228.78"
"1444","11221.1"
"1445","11198.21"
"1446","11172.17"
"1447","11158.92"
"1448","11171.86"
"1449","11202.75"
"1450","11232.51"
"1451","11243.7"
"1452","11233.61"
"1453","11206.83"
"1454","11168.4"
"1455","11126.63"
"1456","11091.42"
"1457","11071.2"
"1458","11062.55"
"1459","11056.43"
"1460","11044.8"
"1461","11027.69"
"1462","11008.82"
"1463","10991.28"
"1464","10973.22"
"1465","10950.66"
"1466","10920.67"
"1467","10887.52"
"1468","10858.47"
"1469","10839.27"
"1470","10825.98"
"1471","10810.82"
"1472","10786.35"
"1473","10747.09"
"1474","10688.25"
"1475","10610.12"
"1476","10540.15"
"1477","10514.97"
"1478","10558.91"
"1479","10636.04"
"1480","10691.96"
"1481","10685.52"
"1482","10634.41"
"1483","10572.55"
"1484","10527.39"
"1485","10500.81"
"1486","10488.35"
"1487","10485.22"
"1488","10485.51"
"1489","10483.06"
"1490","10473.05"
"1491","10454.89"
"1492","10428.75"
"1493","10398.05"
"1494","10374.71"
"1495","10372.05"
"1496","10393.35"
"1497","10418.47"
"1498","10424.02"
"1499","10400.21"
"1500","10364.55"
"1501","10337.74"
"1502","10329.19"
"1503","10328.85"
"1504","10324.95"
"1505","10314.45"
"1506","10307.28"
"1507","10314.04"
"1508","10330.66"
"1509","10334.86"
"1510","10304.35"
"1511","10247.33"
"1512","10204.23"
"1513","10214.44"
"1514","10269.36"
"1515","10317.91"
"1516","10311.58"
"1517","10258.34"
"1518","10207.59"
"1519","10204.59"
"1520","10239.96"
"1521","10271.4"
"1522","10261.93"
"1523","10221.81"
"1524","10184.43"
"1525","10176.94"
"1526","10186.14"
"1527","10183.13"
"1528","10147.17"
"1529","10097.96"
"1530","10067.57"
"1531","10076.75"
"1532","10103.36"
"1533","10115.11"
"1534","10092.68"
"1535","10054.4"
"1536","10025.36"
"1537","10018.84"
"1538","10021.82"
"1539","10017.86"
"1540","10002.88"
"1541","9994.111"
"1542","10010.39"
"1543","10050.84"
"1544","10088.49"
"1545","10095.64"
"1546","10069.83"
"1547","10034.26"
"1548","10012"
"1549","10006.46"
"1550","10005.9"
"1551","9999.628"
"1552","9991.742"
"1553","9994.947"
"1554","10018.86"
"1555","10050.61"
"1556","10067.65"
"1557","10053.17"
"1558","10018.91"
"1559","9985.474"
"1560","9966.689"
"1561","9952.682"
"1562","9928.395"
"1563","9888.358"
"1564","9850.829"
"1565","9837.502"
"1566","9854.729"
"1567","9881.796"
"1568","9895.601"
"1569","9887.806"
"1570","9868.749"
"1571","9849.595"
"1572","9834.093"
"1573","9819.273"
"1574","9803.185"
"1575","9798.325"
"1576","9826.491"
"1577","9901.987"
"1578","9982.914"
"1579","10002.32"
"1580","9915.495"
"1581","9785.36"
"1582","9707.219"
"1583","9741.08"
"1584","9835.015"
"1585","9915.112"
"1586","9936.448"
"1587","9915.187"
"1588","9875.196"
"1589","9837.78"
"1590","9820.588"
"1591","9839.725"
"1592","9883.461"
"1593","9913.263"
"1594","9893.652"
"1595","9837.992"
"1596","9791.268"
"1597","9791.964"
"1598","9829.382"
"1599","9871.965"
"1600","9894.397"
"1601","9898.61"
"1602","9893.838"
"1603","9886.49"
"1604","9875.42"
"1605","9858.236"
"1606","9833.286"
"1607","9800.186"
"1608","9759.138"
"1609","9723.317"
"1610","9720.109"
"1611","9774.141"
"1612","9863.843"
"1613","9935.073"
"1614","9941.646"
"1615","9900.766"
"1616","9857.67"
"1617","9847.538"
"1618","9862.015"
"1619","9881.152"
"1620","9891.227"
"1621","9894.231"
"1622","9894.614"
"1623","9896.619"
"1624","9904.168"
"1625","9920.719"
"1626","9940.146"
"1627","9947.215"
"1628","9928.666"
"1629","9895.133"
"1630","9871.166"
"1631","9876.184"
"1632","9900.138"
"1633","9922.863"
"1634","9931.414"
"1635","9935.353"
"1636","9948.475"
"1637","9972.69"
"1638","9988.539"
"1639","9975.449"
"1640","9941.969"
"1641","9927.643"
"1642","9968.822"
"1643","10048.54"
"1644","10116.26"
"1645","10130.07"
"1646","10101.21"
"1647","10059.95"
"1648","10028.31"
"1649","10002.52"
"1650","9973.927"
"1651","9943.574"
"1652","9929.246"
"1653","9949.375"
"1654","9998.662"
"1655","10048.33"
"1656","10071.41"
"1657","10068.79"
"1658","10057.01"
"1659","10047.64"
"1660","10027.31"
"1661","9975.122"
"1662","9888.676"
"1663","9812.67"
"1664","9798.152"
"1665","9848.102"
"1666","9899.1"
"1667","9887.161"
"1668","9813.396"
"1669","9728.758"
"1670","9679.381"
"1671","9670.065"
"1672","9688.584"
"1673","9719.286"
"1674","9735.296"
"1675","9707.666"
"1676","9632.094"
"1677","9546.692"
"1678","9492.294"
"1679","9479.04"
"1680","9488.744"
"1681","9503.256"
"1682","9513.617"
"1683","9515.338"
"1684","9505.161"
"1685","9484.479"
"1686","9455.82"
"1687","9422.55"
"1688","9389.634"
"1689","9361.967"
"1690","9338.692"
"1691","9313.266"
"1692","9279.181"
"1693","9232.483"
"1694","9170.526"
"1695","9095.738"
"1696","9030.426"
"1697","9001.622"
"1698","9018.514"
"1699","9056.727"
"1700","9089.046"
"1701","9107.225"
"1702","9120.984"
"1703","9138.882"
"1704","9154.768"
"1705","9155.527"
"1706","9135.319"
"1707","9113.838"
"1708","9116.076"
"1709","9146.471"
"1710","9175.71"
"1711","9173.018"
"1712","9135.436"
"1713","9082.497"
"1714","9032.281"
"1715","8989.579"
"1716","8954.069"
"1717","8924.179"
"1718","8894.954"
"1719","8861.175"
"1720","8829.711"
"1721","8822.906"
"1722","8860.403"
"1723","8921.046"
"1724","8958.631"
"1725","8940.616"
"1726","8896.428"
"1727","8872.369"
"1728","8890.923"
"1729","8928.734"
"1730","8958.143"
"1731","8969.484"
"1732","8969.22"
"1733","8964.149"
"1734","8959.395"
"1735","8959.396"
"1736","8964.293"
"1737","8962.383"
"1738","8940.489"
"1739","8904.594"
"1740","8884.153"
"1741","8905.848"
"1742","8955.52"
"1743","8996.233"
"1744","8999.791"
"1745","8971.667"
"1746","8925.257"
"1747","8876.098"
"1748","8843.104"
"1749","8843.335"
"1750","8865.32"
"1751","8877.473"
"1752","8856.775"
"1753","8823.011"
"1754","8808.476"
"1755","8823.327"
"1756","8835.355"
"1757","8810.226"
"1758","8759.452"
"1759","8732.71"
"1760","8767.119"
"1761","8822.372"
"1762","8831.283"
"1763","8764.971"
"1764","8678.347"
"1765","8634.801"
"1766","8643.93"
"1767","8665.652"
"1768","8664.822"
"1769","8648.932"
"1770","8641.738"
"1771","8656.263"
"1772","8680.332"
"1773","8698.597"
"1774","8705.2"
"1775","8703.428"
"1776","8696.633"
"1777","8686.141"
"1778","8672.486"
"1779","8658.077"
"1780","8649.668"
"1781","8654.366"
"1782","8673.364"
"1783","8702.241"
"1784","8734.832"
"1785","8755.786"
"1786","8746.331"
"1787","8701.937"
"1788","8649.302"
"1789","8617.912"
"1790","8611.337"
"1791","8610.543"
"1792","8599.536"
"1793","8582.995"
"1794","8572.482"
"1795","8572.578"
"1796","8574.361"
"1797","8568.236"
"1798","8557.423"
"1799","8554.873"
"1800","8568.77"
"1801","8584.854"
"1802","8582.834"
"1803","8560.411"
"1804","8544.071"
"1805","8559.659"
"1806","8597.06"
"1807","8623.965"
"1808","8618.427"
"1809","8595.777"
"1810","8579.009"
"1811","8574.604"
"1812","8568.38"
"1813","8546.902"
"1814","8513.065"
"1815","8477.434"
"1816","8451.967"
"1817","8451.97"
"1818","8491.63"
"1819","8551.5"
"1820","8580.974"
"1821","8542.675"
"1822","8476.139"
"1823","8445.963"
"1824","8478.561"
"1825","8532.936"
"1826","8564.21"
"1827","8563.17"
"1828","8543.555"
"1829","8518.65"
"1830","8498.822"
"1831","8493.285"
"1832","8494.141"
"1833","8473.42"
"1834","8409.026"
"1835","8326.597"
"1836","8271.464"
"1837","8268.303"
"1838","8298.008"
"1839","8336.331"
"1840","8365.476"
"1841","8372.391"
"1842","8354.411"
"1843","8348.542"
"1844","8399.964"
"1845","8499.444"
"1846","8569.111"
"1847","8540.424"
"1848","8443.386"
"1849","8350.469"
"1850","8306.216"
"1851","8295.287"
"1852","8295.737"
"1853","8300.479"
"1854","8313.141"
"1855","8332.108"
"1856","8336.012"
"1857","8300.221"
"1858","8238.173"
"1859","8207.174"
"1860","8251.901"
"1861","8324.148"
"1862","8341.08"
"1863","8275.2"
"1864","8199.106"
"1865","8188.4"
"1866","8237.976"
"1867","8294.598"
"1868","8321.509"
"1869","8330.521"
"1870","8340.967"
"1871","8352.891"
"1872","8349.037"
"1873","8318.019"
"1874","8277.06"
"1875","8250.884"
"1876","8248.411"
"1877","8257.849"
"1878","8268.276"
"1879","8284.259"
"1880","8316.622"
"1881","8361.94"
"1882","8390.029"
"1883","8371.143"
"1884","8311.501"
"1885","8238.614"
"1886","8181.215"
"1887","8170.351"
"1888","8233.708"
"1889","8336.741"
"1890","8394.234"
"1891","8347.768"
"1892","8245.254"
"1893","8158.111"
"1894","8118.214"
"1895","8114.473"
"1896","8132.515"
"1897","8152.335"
"1898","8152.475"
"1899","8130.501"
"1900","8110.93"
"1901","8116.055"
"1902","8138.294"
"1903","8157.509"
"1904","8162.933"
"1905","8160.859"
"1906","8158.065"
"1907","8149.134"
"1908","8122.162"
"1909","8080.67"
"1910","8063.25"
"1911","8107.346"
"1912","8177.296"
"1913","8189.055"
"1914","8103.129"
"1915","8006.725"
"1916","8002.254"
"1917","8083.927"
"1918","8160.332"
"1919","8162.937"
"1920","8108.259"
"1921","8030.498"
"1922","7961.029"
"1923","7928.637"
"1924","7949.27"
"1925","7988.608"
"1926","8001.517"
"1927","7983.048"
"1928","7970.273"
"1929","7990.753"
"1930","8020.21"
"1931","8020.818"
"1932","7985.97"
"1933","7945.255"
"1934","7923.814"
"1935","7914.228"
"1936","7899.628"
"1937","7886.713"
"1938","7911.725"
"1939","7997.114"
"1940","8080.892"
"1941","8074.754"
"1942","7974.453"
"1943","7887.021"
"1944","7903.733"
"1945","7982.346"
"1946","8034.834"
"1947","8020.976"
"1948","7965.834"
"1949","7897.788"
"1950","7836.862"
"1951","7799.923"
"1952","7793.25"
"1953","7808.604"
"1954","7835.881"
"1955","7860.536"
"1956","7866.834"
"1957","7857.289"
"1958","7858.968"
"1959","7892.831"
"1960","7936.277"
"1961","7952.394"
"1962","7930.128"
"1963","7891.807"
"1964","7858.878"
"1965","7836.461"
"1966","7824.295"
"1967","7817.53"
"1968","7805.796"
"1969","7780.652"
"1970","7744.466"
"1971","7703.104"
"1972","7670.359"
"1973","7668.78"
"1974","7711.394"
"1975","7769.171"
"1976","7803.208"
"1977","7802.95"
"1978","7785.749"
"1979","7766.156"
"1980","7744.065"
"1981","7715.869"
"1982","7674.944"
"1983","7612.071"
"1984","7532.161"
"1985","7483.694"
"1986","7518.007"
"1987","7608.287"
"1988","7670.724"
"1989","7655.531"
"1990","7602.959"
"1991","7562.57"
"1992","7531.79"
"1993","7476.768"
"1994","7402.484"
"1995","7394.632"
"1996","7528.424"
"1997","7710.867"
"1998","7768.539"
"1999","7650.972"
"2000","7510.08"
"2001","7488.315"
"2002","7551.967"
"2003","7601.84"
"2004","7595.861"
"2005","7565.309"
"2006","7538.92"
"2007","7511.588"
"2008","7469.626"
"2009","7423.885"
"2010","7409.305"
"2011","7441.341"
"2012","7467.021"
"2013","7424.967"
"2014","7337.666"
"2015","7289.188"
"2016","7318.85"
"2017","7355.375"
"2018","7323.213"
"2019","7257.186"
"2020","7250.396"
"2021","7333.892"
"2022","7432.173"
"2023","7465.72"
"2024","7394.976"
"2025","7197.935"
"2026","6941.994"
"2027","6801.518"
"2028","6898.793"
"2029","7121.155"
"2030","7303.061"
"2031","7382.675"
"2032","7384.141"
"2033","7336.698"
"2034","7275.906"
"2035","7235.563"
"2036","7221.425"
"2037","7223.575"
"2038","7227.897"
"2039","7213.456"
"2040","7165.834"
"2041","7112.347"
"2042","7093.936"
"2043","7112.963"
"2044","7129.044"
"2045","7113.267"
"2046","7084.82"
"2047","7071.771"
"2048","7079.939"
"2049","7099.416"
"2050","7121.028"
"2051","7137.916"
"2052","7143.888"
"2053","7135.679"
"2054","7111.365"
"2055","7072.085"
"2056","7022.917"
"2057","6971.442"
"2058","6934.128"
"2059","6927.808"
"2060","6940.063"
"2061","6935.75"
"2062","6897.42"
"2063","6849.173"
"2064","6819.396"
"2065","6825.085"
"2066","6877.206"
"2067","6951.113"
"2068","6975.847"
"2069","6907.386"
"2070","6820.928"
"2071","6814.031"
"2072","6879.873"
"2073","6933.987"
"2074","6933.712"
"2075","6928.43"
"2076","6965.301"
"2077","6998.48"
"2078","6947.163"
"2079","6825.02"
"2080","6754.495"
"2081","6810.107"
"2082","6886.582"
"2083","6854.978"
"2084","6740.89"
"2085","6665.289"
"2086","6679.974"
"2087","6716.76"
"2088","6713.364"
"2089","6697.207"
"2090","6721.041"
"2091","6780.25"
"2092","6819.326"
"2093","6802.997"
"2094","6749.426"
"2095","6685.138"
"2096","6639.371"
"2097","6641.396"
"2098","6678.36"
"2099","6686.777"
"2100","6628.085"
"2101","6556.987"
"2102","6540.979"
"2103","6576.713"
"2104","6618.77"
"2105","6634.655"
"2106","6612.966"
"2107","6553.597"
"2108","6497.947"
"2109","6494.099"
"2110","6521.268"
"2111","6507.458"
"2112","6431.964"
"2113","6375.539"
"2114","6410.154"
"2115","6495.238"
"2116","6554.405"
"2117","6560.399"
"2118","6529.94"
"2119","6476.208"
"2120","6400.675"
"2121","6309.854"
"2122","6253.166"
"2123","6293.575"
"2124","6405.293"
"2125","6472.164"
"2126","6424.522"
"2127","6324.326"
"2128","6246.15"
"2129","6201.254"
"2130","6173.47"
"2131","6164.377"
"2132","6195.33"
"2133","6268.794"
"2134","6331.635"
"2135","6326.164"
"2136","6236.183"
"2137","6066.872"
"2138","5880.751"
"2139","5805.992"
"2140","5903.183"
"2141","6028.625"
"2142","6028.403"
"2143","5957.786"
"2144","5966.532"
"2145","6069.449"
"2146","6126.973"
"2147","6054.069"
"2148","5941.788"
"2149","5897.31"
"2150","5918.292"
"2151","5953.447"
"2152","5970.732"
"2153","5959.18"
"2154","5922.857"
"2155","5901.93"
"2156","5931.283"
"2157","5970.417"
"2158","5951.254"
"2159","5888.511"
"2160","5877.598"
"2161","5954.792"
"2162","6013.734"
"2163","5955.797"
"2164","5843.564"
"2165","5792.196"
"2166","5821.859"
"2167","5872.583"
"2168","5901.755"
"2169","5905.23"
"2170","5884.025"
"2171","5843.097"
"2172","5788.694"
"2173","5728.507"
"2174","5671.342"
"2175","5630.709"
"2176","5627.378"
"2177","5666.02"
"2178","5689.78"
"2179","5639.29"
"2180","5566.341"
"2181","5580.553"
"2182","5679.298"
"2183","5723.197"
"2184","5635.71"
"2185","5535.151"
"2186","5545.942"
"2187","5610.714"
"2188","5604.073"
"2189","5525.224"
"2190","5485.798"
"2191","5527.978"
"2192","5549.357"
"2193","5464.028"
"2194","5339.667"
"2195","5280.079"
"2196","5296.734"
"2197","5341.748"
"2198","5374.875"
"2199","5367.78"
"2200","5310.62"
"2201","5246.881"
"2202","5224.221"
"2203","5247.48"
"2204","5301.66"
"2205","5346.176"
"2206","5317.335"
"2207","5209.482"
"2208","5131.158"
"2209","5168.987"
"2210","5256.671"
"2211","5294.798"
"2212","5272.908"
"2213","5232.786"
"2214","5197.63"
"2215","5167.021"
"2216","5135.16"
"2217","5086.191"
"2218","5013.125"
"2219","4969.041"
"2220","5021.59"
"2221","5138.528"
"2222","5213.952"
"2223","5197.247"
"2224","5123.786"
"2225","5040.318"
"2226","5006.567"
"2227","5064.783"
"2228","5115.553"
"2229","5009.441"
"2230","4793.262"
"2231","4682.571"
"2232","4760.942"
"2233","4875.1"
"2234","4893.61"
"2235","4848.292"
"2236","4798.769"
"2237","4735.639"
"2238","4620.764"
"2239","4495.399"
"2240","4474.264"
"2241","4584.312"
"2242","4687.209"
"2243","4669.786"
"2244","4580.133"
"2245","4497.239"
"2246","4443.997"
"2247","4416.316"
"2248","4410.807"
"2249","4424.787"
"2250","4446.864"
"2251","4450.042"
"2252","4411.526"
"2253","4329.781"
"2254","4212.386"
"2255","4099.468"
"2256","4043.685"
"2257","4052.715"
"2258","4094.779"
"2259","4126.119"
"2260","4085.762"
"2261","3953.771"
"2262","3846.094"
"2263","3876.609"
"2264","3968.269"
"2265","3977.344"
"2266","3901.14"
"2267","3842.099"
"2268","3833.397"
"2269","3808.466"
"2270","3720.145"
"2271","3591.401"
"2272","3461.878"
"2273","3398.202"
"2274","3464.526"
"2275","3603.201"
"2276","3685.467"
"2277","3666.182"
"2278","3593.189"
"2279","3493.388"
"2280","3342.218"
"2281","3135.546"
"2282","2969.522"
"2283","2943.755"
"2284","3004.382"
"2285","3032.553"
"2286","2981.163"
"2287","2862.647"
"2288","2736.349"
"2289","2726.219"
"2290","2867.419"
"2291","2951.504"
"2292","2796.62"
"2293","2544.842"
"2294","2415.605"
"2295","2416.774"
"2296","2440.549"
"2297","2427.702"
"2298","2367.695"
"2299","2265.716"
"2300","2150.135"
