,"Scan 01035"
"400","10686.57"
"401","10719.21"
"402","10741.1"
"403","10743.63"
"404","10718.24"
"405","10658.59"
"406","10576.95"
"407","10494.96"
"408","10434.15"
"409","10414.13"
"410","10430.79"
"411","10463.62"
"412","10491.9"
"413","10496.04"
"414","10476.71"
"415","10453.36"
"416","10446.08"
"417","10474.23"
"418","10537.88"
"419","10613.36"
"420","10675.68"
"421","10700.28"
"422","10678.68"
"423","10628.24"
"424","10568.53"
"425","10518.93"
"426","10491.43"
"427","10482.71"
"428","10487.55"
"429","10500.78"
"430","10517.73"
"431","10535.05"
"432","10549.62"
"433","10558.36"
"434","10558.97"
"435","10551.91"
"436","10538.2"
"437","10518.89"
"438","10495.36"
"439","10470.72"
"440","10448.51"
"441","10432.25"
"442","10424.74"
"443","10424.9"
"444","10430.37"
"445","10438.8"
"446","10447.81"
"447","10454.87"
"448","10457.39"
"449","10452.77"
"450","10438.71"
"451","10415.08"
"452","10382.8"
"453","10342.82"
"454","10296.48"
"455","10249.38"
"456","10209.58"
"457","10185.08"
"458","10182.99"
"459","10199.86"
"460","10225.33"
"461","10248.94"
"462","10260.74"
"463","10256.58"
"464","10236.64"
"465","10201.24"
"466","10151.02"
"467","10092.23"
"468","10035.85"
"469","9992.924"
"470","9973.83"
"471","9977.302"
"472","9991.409"
"473","10003.9"
"474","10003.1"
"475","9989.04"
"476","9973.327"
"477","9968"
"478","9984.491"
"479","10020.41"
"480","10058.71"
"481","10081.74"
"482","10072.54"
"483","10030.66"
"484","9974.085"
"485","9921.664"
"486","9891.695"
"487","9888.303"
"488","9899.18"
"489","9911.16"
"490","9911.406"
"491","9895.123"
"492","9867.1"
"493","9832.661"
"494","9797.023"
"495","9762.769"
"496","9729.316"
"497","9695.895"
"498","9661.74"
"499","9626.187"
"500","9588.681"
"501","9548.678"
"502","9505.686"
"503","9460.815"
"504","9417.086"
"505","9377.606"
"506","9345.35"
"507","9319.664"
"508","9295.721"
"509","9268.48"
"510","9233.148"
"511","9190.955"
"512","9149.791"
"513","9117.854"
"514","9102.955"
"515","9104.414"
"516","9112.673"
"517","9117.792"
"518","9110.187"
"519","9086.874"
"520","9051.316"
"521","9007.227"
"522","8958.385"
"523","8910.238"
"524","8869.724"
"525","8843.802"
"526","8838.745"
"527","8850.131"
"528","8864.774"
"529","8869.299"
"530","8851.373"
"531","8812.374"
"532","8763.754"
"533","8717.134"
"534","8683.409"
"535","8665.527"
"536","8661.269"
"537","8668.336"
"538","8684.06"
"539","8701.941"
"540","8713.351"
"541","8709.666"
"542","8683.918"
"543","8642.247"
"544","8597.135"
"545","8561.038"
"546","8544.533"
"547","8545.973"
"548","8558.728"
"549","8576.188"
"550","8592.384"
"551","8604.675"
"552","8611.547"
"553","8611.503"
"554","8603.837"
"555","8591.286"
"556","8577.531"
"557","8566.226"
"558","8559.613"
"559","8555.057"
"560","8548.859"
"561","8537.355"
"562","8518.33"
"563","8493.578"
"564","8465.559"
"565","8436.726"
"566","8409.597"
"567","8386.858"
"568","8371.208"
"569","8365.296"
"570","8369.29"
"571","8379.191"
"572","8390.623"
"573","8399.271"
"574","8402.492"
"575","8399.826"
"576","8390.951"
"577","8375.638"
"578","8355.637"
"579","8334.687"
"580","8316.584"
"581","8304.847"
"582","8298.867"
"583","8294.925"
"584","8289.239"
"585","8278.471"
"586","8263.49"
"587","8247.548"
"588","8233.909"
"589","8225.498"
"590","8223.024"
"591","8226.293"
"592","8235.101"
"593","8248.579"
"594","8262.757"
"595","8272.76"
"596","8273.739"
"597","8263.549"
"598","8248.662"
"599","8237.262"
"600","8237.467"
"601","8252.186"
"602","8272.791"
"603","8289.148"
"604","8291.271"
"605","8275.761"
"606","8249.319"
"607","8219.479"
"608","8193.583"
"609","8174.654"
"610","8161.126"
"611","8151.21"
"612","8143.178"
"613","8136.021"
"614","8129.256"
"615","8122.419"
"616","8115.37"
"617","8110.673"
"618","8112.225"
"619","8123.914"
"620","8147.478"
"621","8173.697"
"622","8189.88"
"623","8183.38"
"624","8147.719"
"625","8096.078"
"626","8045.521"
"627","8012.983"
"628","8006.379"
"629","8015.489"
"630","8027.945"
"631","8031.671"
"632","8024.159"
"633","8015.215"
"634","8015.439"
"635","8034.555"
"636","8068.302"
"637","8100.894"
"638","8116.25"
"639","8100.553"
"640","8059.407"
"641","8008.43"
"642","7963.271"
"643","7936.636"
"644","7926.743"
"645","7927.342"
"646","7932.202"
"647","7936.919"
"648","7942.291"
"649","7950.037"
"650","7961.848"
"651","7977.283"
"652","7992.321"
"653","8002.608"
"654","8003.993"
"655","7996.95"
"656","7986.644"
"657","7978.429"
"658","7977.277"
"659","7984.215"
"660","7997.897"
"661","8016.949"
"662","8039.334"
"663","8059.369"
"664","8070.129"
"665","8064.713"
"666","8039.901"
"667","8003.348"
"668","7964.704"
"669","7933.54"
"670","7916.308"
"671","7914.33"
"672","7928.458"
"673","7959.167"
"674","7999.416"
"675","8035.164"
"676","8052.137"
"677","8038.199"
"678","7999.758"
"679","7952.844"
"680","7913.523"
"681","7894.251"
"682","7891.835"
"683","7898.821"
"684","7907.79"
"685","7913.961"
"686","7918.465"
"687","7923.223"
"688","7930.101"
"689","7939.138"
"690","7948.199"
"691","7955.024"
"692","7957.447"
"693","7954.317"
"694","7945.127"
"695","7929.392"
"696","7907.415"
"697","7883.69"
"698","7864.073"
"699","7854.393"
"700","7857.476"
"701","7868.546"
"702","7881.648"
"703","7890.931"
"704","7893.722"
"705","7891.42"
"706","7885.696"
"707","7878.273"
"708","7871.644"
"709","7868.799"
"710","7872.73"
"711","7885.475"
"712","7904.176"
"713","7924.415"
"714","7941.788"
"715","7952.981"
"716","7957.251"
"717","7954.229"
"718","7943.653"
"719","7928.514"
"720","7915.559"
"721","7911.718"
"722","7922.917"
"723","7945.294"
"724","7969.486"
"725","7986.083"
"726","7988.276"
"727","7979.886"
"728","7967.449"
"729","7957.463"
"730","7954.05"
"731","7956.963"
"732","7965.495"
"733","7978.944"
"734","7996.75"
"735","8018.472"
"736","8043.675"
"737","8071.026"
"738","8093.358"
"739","8101.187"
"740","8085.042"
"741","8042.633"
"742","7991.065"
"743","7950.672"
"744","7941.206"
"745","7964.064"
"746","7998.461"
"747","8022.313"
"748","8016.417"
"749","7988.452"
"750","7960.844"
"751","7956.136"
"752","7988.218"
"753","8039.378"
"754","8084.698"
"755","8099.628"
"756","8078.744"
"757","8045.946"
"758","8027.597"
"759","8047.697"
"760","8101.317"
"761","8163.929"
"762","8210.672"
"763","8222.666"
"764","8207.643"
"765","8180.733"
"766","8156.979"
"767","8144.315"
"768","8138.087"
"769","8132.347"
"770","8121.607"
"771","8107.045"
"772","8094.88"
"773","8091.455"
"774","8101.74"
"775","8124.043"
"776","8154.635"
"777","8189.778"
"778","8224.972"
"779","8254.264"
"780","8271.558"
"781","8271.438"
"782","8258.815"
"783","8246.569"
"784","8247.778"
"785","8271.375"
"786","8306.32"
"787","8335.56"
"788","8342.187"
"789","8321.5"
"790","8290.649"
"791","8269.051"
"792","8274.638"
"793","8305.555"
"794","8345.73"
"795","8378.783"
"796","8392.157"
"797","8389.675"
"798","8379.558"
"799","8369.978"
"800","8366.268"
"801","8369.326"
"802","8379.667"
"803","8397.254"
"804","8416.154"
"805","8426.843"
"806","8419.748"
"807","8389.978"
"808","8348.829"
"809","8311.082"
"810","8291.255"
"811","8294.639"
"812","8314.981"
"813","8345.295"
"814","8379.105"
"815","8413.843"
"816","8448.778"
"817","8483.193"
"818","8514.888"
"819","8537.929"
"820","8545.799"
"821","8532.509"
"822","8502.556"
"823","8470.099"
"824","8449.655"
"825","8452.562"
"826","8473.578"
"827","8502.068"
"828","8527.441"
"829","8542.512"
"830","8545.962"
"831","8537.045"
"832","8515.629"
"833","8488.291"
"834","8465.756"
"835","8458.812"
"836","8473.861"
"837","8503.202"
"838","8536.292"
"839","8562.814"
"840","8578.351"
"841","8584.911"
"842","8584.832"
"843","8580.457"
"844","8574.193"
"845","8568.469"
"846","8565.703"
"847","8567.853"
"848","8575.999"
"849","8591.131"
"850","8614.039"
"851","8643.269"
"852","8675.935"
"853","8709.128"
"854","8739.391"
"855","8761.517"
"856","8769.964"
"857","8759.526"
"858","8733.034"
"859","8701.537"
"860","8676.452"
"861","8667.009"
"862","8670.814"
"863","8681.647"
"864","8693.322"
"865","8702.008"
"866","8707.602"
"867","8710.325"
"868","8710.547"
"869","8709.913"
"870","8710.722"
"871","8715.281"
"872","8725.658"
"873","8743.341"
"874","8769.736"
"875","8805.909"
"876","8847.908"
"877","8887.952"
"878","8918.164"
"879","8933.208"
"880","8936.877"
"881","8935.014"
"882","8933.316"
"883","8933.841"
"884","8934.708"
"885","8933.844"
"886","8929.958"
"887","8925.83"
"888","8925.569"
"889","8933.234"
"890","8950.359"
"891","8974.771"
"892","9003.997"
"893","9035.376"
"894","9064.789"
"895","9087.465"
"896","9098.664"
"897","9097.431"
"898","9090.183"
"899","9084.182"
"900","9085.944"
"901","9094.289"
"902","9103.519"
"903","9107.884"
"904","9104.353"
"905","9096.717"
"906","9089.834"
"907","9088.269"
"908","9092.669"
"909","9100.789"
"910","9110.315"
"911","9118.736"
"912","9122.917"
"913","9119.602"
"914","9105.914"
"915","9086.231"
"916","9071.368"
"917","9072.369"
"918","9095.656"
"919","9129.91"
"920","9159.555"
"921","9169.576"
"922","9158.909"
"923","9140.965"
"924","9129.822"
"925","9136.562"
"926","9158.729"
"927","9190.075"
"928","9224.373"
"929","9256.395"
"930","9282.077"
"931","9297.417"
"932","9299.005"
"933","9286.407"
"934","9260.137"
"935","9220.882"
"936","9175.855"
"937","9140.641"
"938","9131.374"
"939","9159.034"
"940","9206.108"
"941","9245.291"
"942","9249.784"
"943","9215.504"
"944","9169.166"
"945","9139.688"
"946","9149.811"
"947","9186.401"
"948","9223.444"
"949","9235.271"
"950","9213.624"
"951","9174.431"
"952","9135.415"
"953","9111.938"
"954","9105.517"
"955","9112.646"
"956","9129.751"
"957","9150.712"
"958","9165.89"
"959","9165.384"
"960","9142.021"
"961","9104.185"
"962","9065.762"
"963","9040.468"
"964","9034.504"
"965","9044.1"
"966","9064.79"
"967","9091.942"
"968","9120.038"
"969","9143.259"
"970","9155.884"
"971","9155.656"
"972","9144.617"
"973","9125.075"
"974","9099.438"
"975","9070.615"
"976","9041.672"
"977","9015.637"
"978","8994.535"
"979","8979.272"
"980","8970.696"
"981","8969.376"
"982","8974.703"
"983","8985.758"
"984","9001.521"
"985","9018.727"
"986","9031.9"
"987","9035.469"
"988","9026.623"
"989","9012.492"
"990","9002.447"
"991","9005.424"
"992","9022.823"
"993","9049.732"
"994","9081.039"
"995","9112.298"
"996","9141.044"
"997","9165.179"
"998","9182.803"
"999","9194.65"
"1000","9203.279"
"1001","9211.284"
"1002","9220.888"
"1003","9233.438"
"1004","9250.153"
"1005","9272.258"
"1006","9299.852"
"1007","9325.507"
"1008","9338.692"
"1009","9329.039"
"1010","9295.122"
"1011","9248.335"
"1012","9201.076"
"1013","9164.069"
"1014","9138.909"
"1015","9124.113"
"1016","9118.198"
"1017","9119.945"
"1018","9128.437"
"1019","9142.77"
"1020","9161.619"
"1021","9181.862"
"1022","9199.892"
"1023","9212.268"
"1024","9218.906"
"1025","9222.83"
"1026","9227.181"
"1027","9235.379"
"1028","9251.712"
"1029","9280.64"
"1030","9325.689"
"1031","9378.107"
"1032","9420.526"
"1033","9435.438"
"1034","9416.016"
"1035","9379.712"
"1036","9347.342"
"1037","9337.326"
"1038","9347.599"
"1039","9365.692"
"1040","9379.168"
"1041","9382.514"
"1042","9381.303"
"1043","9382.107"
"1044","9389.566"
"1045","9397.59"
"1046","9396.377"
"1047","9376.66"
"1048","9343.899"
"1049","9319.708"
"1050","9326.533"
"1051","9376.176"
"1052","9442.805"
"1053","9492.282"
"1054","9493.132"
"1055","9450.721"
"1056","9397.144"
"1057","9365.039"
"1058","9372.06"
"1059","9403.054"
"1060","9438.513"
"1061","9461.072"
"1062","9469.521"
"1063","9469.991"
"1064","9468.625"
"1065","9470.289"
"1066","9478.119"
"1067","9495.136"
"1068","9521.54"
"1069","9545.622"
"1070","9552.532"
"1071","9528.844"
"1072","9484.339"
"1073","9447.563"
"1074","9447.552"
"1075","9495.452"
"1076","9560.661"
"1077","9606.613"
"1078","9602.35"
"1079","9559.796"
"1080","9510.631"
"1081","9486.093"
"1082","9495.503"
"1083","9519.737"
"1084","9537.764"
"1085","9534.674"
"1086","9519.059"
"1087","9505.142"
"1088","9506.261"
"1089","9523.9"
"1090","9551.157"
"1091","9580.939"
"1092","9606.593"
"1093","9622.281"
"1094","9622.267"
"1095","9602.218"
"1096","9566.022"
"1097","9520.521"
"1098","9472.571"
"1099","9429.139"
"1100","9397.3"
"1101","9384.134"
"1102","9392.376"
"1103","9413.193"
"1104","9435.84"
"1105","9450.822"
"1106","9458.823"
"1107","9465.435"
"1108","9476.098"
"1109","9489.467"
"1110","9495.649"
"1111","9484.212"
"1112","9450.581"
"1113","9410.123"
"1114","9382.438"
"1115","9384.81"
"1116","9410.572"
"1117","9438.982"
"1118","9449.393"
"1119","9436.694"
"1120","9418.726"
"1121","9415.188"
"1122","9439.224"
"1123","9478.057"
"1124","9512.521"
"1125","9525.106"
"1126","9518.039"
"1127","9506.429"
"1128","9505.432"
"1129","9517.65"
"1130","9525.687"
"1131","9510.342"
"1132","9459.823"
"1133","9393.171"
"1134","9337.442"
"1135","9317.601"
"1136","9332.914"
"1137","9365.556"
"1138","9397.499"
"1139","9418.07"
"1140","9428.209"
"1141","9429.882"
"1142","9424.698"
"1143","9412.84"
"1144","9394.136"
"1145","9368.909"
"1146","9342.983"
"1147","9325.587"
"1148","9325.823"
"1149","9343.542"
"1150","9365.33"
"1151","9376.731"
"1152","9369.665"
"1153","9358.119"
"1154","9360.857"
"1155","9393.688"
"1156","9445.545"
"1157","9491.042"
"1158","9505.304"
"1159","9485.04"
"1160","9452.838"
"1161","9432.823"
"1162","9440.234"
"1163","9465.898"
"1164","9496.483"
"1165","9519.716"
"1166","9530.577"
"1167","9527.065"
"1168","9507.635"
"1169","9479.8"
"1170","9459.429"
"1171","9462.647"
"1172","9495.655"
"1173","9544.689"
"1174","9593.597"
"1175","9628.742"
"1176","9648.341"
"1177","9654.071"
"1178","9647.626"
"1179","9630.955"
"1180","9606.162"
"1181","9575.404"
"1182","9542.326"
"1183","9512.643"
"1184","9492.212"
"1185","9483.712"
"1186","9480.372"
"1187","9473.672"
"1188","9457.479"
"1189","9441.917"
"1190","9443.886"
"1191","9479.197"
"1192","9543.19"
"1193","9613.426"
"1194","9666.987"
"1195","9692.987"
"1196","9701.751"
"1197","9705.774"
"1198","9713.976"
"1199","9721.778"
"1200","9721.431"
"1201","9706.834"
"1202","9685.801"
"1203","9673.14"
"1204","9683.005"
"1205","9713.086"
"1206","9744.661"
"1207","9758.376"
"1208","9746.033"
"1209","9721.311"
"1210","9700.429"
"1211","9695.578"
"1212","9702.589"
"1213","9713.146"
"1214","9719.874"
"1215","9723.642"
"1216","9729.576"
"1217","9742.608"
"1218","9762.237"
"1219","9782.606"
"1220","9797.65"
"1221","9804.058"
"1222","9803.685"
"1223","9798.952"
"1224","9792.521"
"1225","9787.918"
"1226","9788.878"
"1227","9798.428"
"1228","9814.239"
"1229","9831.535"
"1230","9845.696"
"1231","9855.04"
"1232","9860.379"
"1233","9862.609"
"1234","9862.621"
"1235","9861.313"
"1236","9859.581"
"1237","9859.026"
"1238","9863.271"
"1239","9876.301"
"1240","9900.334"
"1241","9927.873"
"1242","9948.08"
"1243","9951.085"
"1244","9938.104"
"1245","9917.286"
"1246","9896.787"
"1247","9881.778"
"1248","9874.144"
"1249","9875.582"
"1250","9885.158"
"1251","9896.903"
"1252","9904.266"
"1253","9902.956"
"1254","9896.479"
"1255","9890.036"
"1256","9888.467"
"1257","9894.287"
"1258","9909.102"
"1259","9934.026"
"1260","9964.082"
"1261","9990.139"
"1262","10003.26"
"1263","10002.83"
"1264","9997.665"
"1265","9997.07"
"1266","10004.77"
"1267","10013.94"
"1268","10016.56"
"1269","10008.73"
"1270","10000.05"
"1271","10002.83"
"1272","10025.55"
"1273","10054.71"
"1274","10069.01"
"1275","10050.17"
"1276","10010.6"
"1277","9980.849"
"1278","9990.198"
"1279","10036.65"
"1280","10088.68"
"1281","10113.98"
"1282","10101.94"
"1283","10074.42"
"1284","10055.94"
"1285","10061.75"
"1286","10084.86"
"1287","10115.01"
"1288","10142.05"
"1289","10156.37"
"1290","10148.48"
"1291","10112.16"
"1292","10062.71"
"1293","10024.03"
"1294","10017.91"
"1295","10042.31"
"1296","10080.24"
"1297","10114.93"
"1298","10139.54"
"1299","10156.61"
"1300","10169.02"
"1301","10177.45"
"1302","10179.37"
"1303","10172.04"
"1304","10155.76"
"1305","10137.4"
"1306","10124.69"
"1307","10122.67"
"1308","10127.47"
"1309","10133.36"
"1310","10135.89"
"1311","10137.19"
"1312","10141.5"
"1313","10152.56"
"1314","10170.06"
"1315","10191.78"
"1316","10215"
"1317","10231.22"
"1318","10227.83"
"1319","10193.16"
"1320","10139.19"
"1321","10101.4"
"1322","10115.56"
"1323","10183.38"
"1324","10258.55"
"1325","10291.36"
"1326","10260.03"
"1327","10198.41"
"1328","10146.97"
"1329","10132.43"
"1330","10142.54"
"1331","10158.19"
"1332","10164.31"
"1333","10162.42"
"1334","10158.29"
"1335","10156.53"
"1336","10155.18"
"1337","10149.87"
"1338","10136.81"
"1339","10117.12"
"1340","10094.38"
"1341","10071.93"
"1342","10049.96"
"1343","10026.51"
"1344","9999.933"
"1345","9975.763"
"1346","9966.001"
"1347","9982.425"
"1348","10021.83"
"1349","10063.11"
"1350","10084.33"
"1351","10078.69"
"1352","10063"
"1353","10056.07"
"1354","10067.07"
"1355","10085.41"
"1356","10098.1"
"1357","10096.25"
"1358","10082.02"
"1359","10059.4"
"1360","10032.59"
"1361","10006.45"
"1362","9986.001"
"1363","9975.592"
"1364","9976.418"
"1365","9988.782"
"1366","10010.88"
"1367","10028.38"
"1368","10022.29"
"1369","9978.099"
"1370","9916.261"
"1371","9873.576"
"1372","9882.733"
"1373","9933.428"
"1374","9990.336"
"1375","10019.88"
"1376","10016.38"
"1377","9994.079"
"1378","9967.373"
"1379","9945.657"
"1380","9934.004"
"1381","9937.004"
"1382","9950.847"
"1383","9963.004"
"1384","9960.865"
"1385","9943.19"
"1386","9922.787"
"1387","9913.188"
"1388","9919.894"
"1389","9936.703"
"1390","9956.486"
"1391","9972.938"
"1392","9981.158"
"1393","9976.42"
"1394","9959.027"
"1395","9939.359"
"1396","9928.975"
"1397","9932.769"
"1398","9940.124"
"1399","9938.23"
"1400","9921.965"
"1401","9906.844"
"1402","9911.828"
"1403","9945.86"
"1404","9986.961"
"1405","10007.2"
"1406","9989.472"
"1407","9954.83"
"1408","9932.704"
"1409","9944.042"
"1410","9976.073"
"1411","10007.65"
"1412","10022"
"1413","10021.92"
"1414","10015.65"
"1415","10010.72"
"1416","10011.05"
"1417","10019.46"
"1418","10036"
"1419","10045.7"
"1420","10028.49"
"1421","9970.837"
"1422","9897.825"
"1423","9848.743"
"1424","9855.025"
"1425","9897.601"
"1426","9937.479"
"1427","9942.952"
"1428","9932.703"
"1429","9946.535"
"1430","10015.79"
"1431","10109.43"
"1432","10168.86"
"1433","10144.94"
"1434","10062.07"
"1435","9978.643"
"1436","9946.549"
"1437","9964.099"
"1438","10004.01"
"1439","10041.26"
"1440","10070.73"
"1441","10097.09"
"1442","10124.08"
"1443","10147.13"
"1444","10157.52"
"1445","10148.19"
"1446","10126.27"
"1447","10106.07"
"1448","10100.43"
"1449","10109.41"
"1450","10126.64"
"1451","10145.2"
"1452","10153.66"
"1453","10138.41"
"1454","10089.22"
"1455","10024.02"
"1456","9974.513"
"1457","9967.137"
"1458","9985.869"
"1459","9994.457"
"1460","9962.138"
"1461","9901.043"
"1462","9843.02"
"1463","9815.502"
"1464","9813.1"
"1465","9815.994"
"1466","9807.131"
"1467","9788.851"
"1468","9771.563"
"1469","9762.535"
"1470","9748.801"
"1471","9709.46"
"1472","9630.621"
"1473","9539.733"
"1474","9479.318"
"1475","9481.533"
"1476","9522.414"
"1477","9559.151"
"1478","9557.016"
"1479","9521.109"
"1480","9468.724"
"1481","9415.758"
"1482","9371.891"
"1483","9345.084"
"1484","9340.078"
"1485","9348.846"
"1486","9360.212"
"1487","9363.496"
"1488","9349.831"
"1489","9310.73"
"1490","9246.729"
"1491","9186.07"
"1492","9162.308"
"1493","9192.729"
"1494","9250.928"
"1495","9303.265"
"1496","9326.736"
"1497","9323.142"
"1498","9297.826"
"1499","9258.712"
"1500","9218.902"
"1501","9192.009"
"1502","9181.632"
"1503","9174.096"
"1504","9154.272"
"1505","9121.127"
"1506","9094.406"
"1507","9094.958"
"1508","9122.644"
"1509","9151.076"
"1510","9153.176"
"1511","9127.34"
"1512","9098.854"
"1513","9092.688"
"1514","9103.673"
"1515","9099.979"
"1516","9052.149"
"1517","8976.876"
"1518","8924.723"
"1519","8941.017"
"1520","9006.915"
"1521","9064.906"
"1522","9065.24"
"1523","9026.29"
"1524","8999.683"
"1525","9026.086"
"1526","9075.227"
"1527","9089.171"
"1528","9026.312"
"1529","8925.459"
"1530","8850.048"
"1531","8842.903"
"1532","8868.77"
"1533","8873.922"
"1534","8823.717"
"1535","8738.995"
"1536","8650.615"
"1537","8586.084"
"1538","8565.392"
"1539","8607.207"
"1540","8703.26"
"1541","8799.033"
"1542","8836.553"
"1543","8804.675"
"1544","8754.187"
"1545","8738.479"
"1546","8771.045"
"1547","8824.858"
"1548","8872.017"
"1549","8898.868"
"1550","8902.786"
"1551","8883.038"
"1552","8855.134"
"1553","8844.043"
"1554","8868.862"
"1555","8906.493"
"1556","8915.708"
"1557","8867.421"
"1558","8793.234"
"1559","8743.559"
"1560","8752.649"
"1561","8798.068"
"1562","8844.979"
"1563","8867.582"
"1564","8862.504"
"1565","8829.843"
"1566","8776.813"
"1567","8723.156"
"1568","8689.556"
"1569","8683.66"
"1570","8696.622"
"1571","8718.652"
"1572","8742.537"
"1573","8763.384"
"1574","8776.652"
"1575","8781.062"
"1576","8777.405"
"1577","8766.445"
"1578","8748.437"
"1579","8723.406"
"1580","8693.188"
"1581","8668.286"
"1582","8661.821"
"1583","8680.34"
"1584","8709.59"
"1585","8731.242"
"1586","8735.403"
"1587","8729.949"
"1588","8724.911"
"1589","8725.229"
"1590","8728.599"
"1591","8732.021"
"1592","8729.383"
"1593","8711.576"
"1594","8671.496"
"1595","8626.885"
"1596","8611.584"
"1597","8652.286"
"1598","8723.978"
"1599","8779.695"
"1600","8784.13"
"1601","8752.509"
"1602","8713.619"
"1603","8689.76"
"1604","8685.842"
"1605","8703.793"
"1606","8736.6"
"1607","8762.07"
"1608","8757.522"
"1609","8727.835"
"1610","8708.089"
"1611","8731.468"
"1612","8785.383"
"1613","8824.964"
"1614","8811.866"
"1615","8760.545"
"1616","8708.809"
"1617","8687.691"
"1618","8698.765"
"1619","8735.757"
"1620","8788.952"
"1621","8839.979"
"1622","8869.305"
"1623","8869.891"
"1624","8853.925"
"1625","8835.089"
"1626","8823.738"
"1627","8827.048"
"1628","8851.185"
"1629","8893.183"
"1630","8944.757"
"1631","8995.76"
"1632","9026.193"
"1633","9012.669"
"1634","8947.539"
"1635","8872.113"
"1636","8836.929"
"1637","8864.681"
"1638","8928.045"
"1639","8994.874"
"1640","9043.788"
"1641","9064.885"
"1642","9051.164"
"1643","9022.362"
"1644","9015.023"
"1645","9057.354"
"1646","9127.652"
"1647","9186.335"
"1648","9205.43"
"1649","9193.229"
"1650","9165.03"
"1651","9132.836"
"1652","9102.914"
"1653","9080.82"
"1654","9068.423"
"1655","9063.951"
"1656","9065.149"
"1657","9066.625"
"1658","9061.212"
"1659","9043.627"
"1660","9017.86"
"1661","8990.714"
"1662","8966.046"
"1663","8940.201"
"1664","8908.511"
"1665","8873.167"
"1666","8845.84"
"1667","8837.873"
"1668","8845.119"
"1669","8851.573"
"1670","8843.541"
"1671","8825.039"
"1672","8807.379"
"1673","8797.103"
"1674","8784.736"
"1675","8757.557"
"1676","8710.728"
"1677","8653.016"
"1678","8594.496"
"1679","8544.359"
"1680","8510.977"
"1681","8500.708"
"1682","8503.636"
"1683","8501.908"
"1684","8482.691"
"1685","8452.848"
"1686","8423.949"
"1687","8401.139"
"1688","8377.278"
"1689","8344.202"
"1690","8301.995"
"1691","8258.91"
"1692","8222.945"
"1693","8196.726"
"1694","8180.151"
"1695","8170.806"
"1696","8157.29"
"1697","8126.099"
"1698","8075.491"
"1699","8025.807"
"1700","7999.15"
"1701","8002.717"
"1702","8029.577"
"1703","8070.434"
"1704","8102.009"
"1705","8094.38"
"1706","8032.553"
"1707","7953.819"
"1708","7906.564"
"1709","7913.87"
"1710","7957.242"
"1711","8013.926"
"1712","8055.35"
"1713","8048.215"
"1714","7970.028"
"1715","7866.847"
"1716","7811.164"
"1717","7841.316"
"1718","7901.765"
"1719","7922.364"
"1720","7886.331"
"1721","7845.255"
"1722","7849.916"
"1723","7892.675"
"1724","7930.047"
"1725","7927.833"
"1726","7895.247"
"1727","7853.426"
"1728","7819.956"
"1729","7805.561"
"1730","7818.935"
"1731","7844.557"
"1732","7845.189"
"1733","7792.726"
"1734","7725.314"
"1735","7708.196"
"1736","7773.38"
"1737","7861.05"
"1738","7897.219"
"1739","7862.896"
"1740","7806.471"
"1741","7776.103"
"1742","7777.434"
"1743","7792.428"
"1744","7806.604"
"1745","7819.772"
"1746","7834.956"
"1747","7847.141"
"1748","7838.646"
"1749","7793.385"
"1750","7731.211"
"1751","7697.295"
"1752","7724.628"
"1753","7785.628"
"1754","7834.86"
"1755","7841.502"
"1756","7802.783"
"1757","7720.633"
"1758","7623.075"
"1759","7559.853"
"1760","7569.677"
"1761","7625.099"
"1762","7675.659"
"1763","7691.855"
"1764","7690.107"
"1765","7691.85"
"1766","7697.072"
"1767","7685.963"
"1768","7644.393"
"1769","7598.243"
"1770","7588.652"
"1771","7631.579"
"1772","7684.058"
"1773","7696.924"
"1774","7670.243"
"1775","7651.523"
"1776","7679.035"
"1777","7719.501"
"1778","7711.697"
"1779","7631.155"
"1780","7539.635"
"1781","7508.23"
"1782","7543.261"
"1783","7589.785"
"1784","7599.523"
"1785","7579.81"
"1786","7558.788"
"1787","7554.229"
"1788","7560.992"
"1789","7570.914"
"1790","7576.465"
"1791","7570.651"
"1792","7550.782"
"1793","7537.289"
"1794","7558.182"
"1795","7615.567"
"1796","7661.545"
"1797","7646.764"
"1798","7585.444"
"1799","7539.985"
"1800","7554.982"
"1801","7589.601"
"1802","7579.776"
"1803","7509.81"
"1804","7441.398"
"1805","7436.677"
"1806","7484.919"
"1807","7530.41"
"1808","7531.864"
"1809","7500.677"
"1810","7459.66"
"1811","7430.341"
"1812","7432.624"
"1813","7479.983"
"1814","7536.313"
"1815","7542.23"
"1816","7474.111"
"1817","7399.37"
"1818","7396.042"
"1819","7466.772"
"1820","7544.383"
"1821","7570.076"
"1822","7544.308"
"1823","7487.137"
"1824","7420.464"
"1825","7369.383"
"1826","7356.466"
"1827","7370.628"
"1828","7379.104"
"1829","7359.824"
"1830","7328.744"
"1831","7309.489"
"1832","7310.03"
"1833","7319.958"
"1834","7328.911"
"1835","7334.081"
"1836","7335.792"
"1837","7335.443"
"1838","7336.691"
"1839","7343.164"
"1840","7353.917"
"1841","7364.615"
"1842","7372.641"
"1843","7382.34"
"1844","7399.424"
"1845","7417.928"
"1846","7417.162"
"1847","7380.299"
"1848","7324.93"
"1849","7283.474"
"1850","7276.352"
"1851","7298.272"
"1852","7339.9"
"1853","7381.83"
"1854","7397.365"
"1855","7371.099"
"1856","7329.157"
"1857","7306.05"
"1858","7304.319"
"1859","7289.632"
"1860","7235.932"
"1861","7180.64"
"1862","7184.747"
"1863","7261.507"
"1864","7337.854"
"1865","7339.856"
"1866","7281.352"
"1867","7228.534"
"1868","7224.446"
"1869","7244.551"
"1870","7253.742"
"1871","7242.363"
"1872","7223.566"
"1873","7210.49"
"1874","7212.467"
"1875","7237.365"
"1876","7275.634"
"1877","7294.946"
"1878","7269.307"
"1879","7226.286"
"1880","7215.319"
"1881","7251.764"
"1882","7286.858"
"1883","7270.631"
"1884","7214.991"
"1885","7168.459"
"1886","7163.99"
"1887","7191.612"
"1888","7233.795"
"1889","7265.485"
"1890","7255.478"
"1891","7187.641"
"1892","7103.008"
"1893","7054.819"
"1894","7061.878"
"1895","7105.593"
"1896","7163.814"
"1897","7206.119"
"1898","7200.037"
"1899","7145.964"
"1900","7090.824"
"1901","7078.268"
"1902","7104.091"
"1903","7143.886"
"1904","7176.746"
"1905","7188.296"
"1906","7167.656"
"1907","7130.012"
"1908","7104.538"
"1909","7107.233"
"1910","7123.834"
"1911","7137.06"
"1912","7143.909"
"1913","7150.817"
"1914","7160.896"
"1915","7167.517"
"1916","7162.93"
"1917","7148.438"
"1918","7132.5"
"1919","7120.618"
"1920","7107.697"
"1921","7086.794"
"1922","7058.693"
"1923","7031.284"
"1924","7013.308"
"1925","7015.666"
"1926","7048.511"
"1927","7089.417"
"1928","7081.89"
"1929","6992.562"
"1930","6899.281"
"1931","6907.973"
"1932","7024.384"
"1933","7138.184"
"1934","7156.726"
"1935","7108.995"
"1936","7060.8"
"1937","7042.566"
"1938","7040.31"
"1939","7038.77"
"1940","7031.095"
"1941","7013.437"
"1942","6990.443"
"1943","6977.998"
"1944","6987.896"
"1945","7004.312"
"1946","7002.079"
"1947","6972.533"
"1948","6929.533"
"1949","6889.056"
"1950","6869.663"
"1951","6890.266"
"1952","6942.162"
"1953","6978.809"
"1954","6961.125"
"1955","6909.074"
"1956","6863.13"
"1957","6843.798"
"1958","6844.621"
"1959","6857.589"
"1960","6876.653"
"1961","6896.287"
"1962","6905.994"
"1963","6888.883"
"1964","6836.456"
"1965","6785.936"
"1966","6787.776"
"1967","6838.968"
"1968","6871.99"
"1969","6833.418"
"1970","6755.425"
"1971","6694.438"
"1972","6676.112"
"1973","6692.18"
"1974","6729.855"
"1975","6764.883"
"1976","6771.281"
"1977","6753.648"
"1978","6746.69"
"1979","6771.381"
"1980","6793.874"
"1981","6770.63"
"1982","6709.254"
"1983","6661.232"
"1984","6659.966"
"1985","6678.615"
"1986","6681.381"
"1987","6669.377"
"1988","6670.607"
"1989","6696.076"
"1990","6712.009"
"1991","6682.29"
"1992","6621.601"
"1993","6575.271"
"1994","6570.208"
"1995","6594.408"
"1996","6630.48"
"1997","6656.515"
"1998","6648.718"
"1999","6609.406"
"2000","6583.656"
"2001","6608.332"
"2002","6644.706"
"2003","6626.929"
"2004","6553.125"
"2005","6503.381"
"2006","6538.4"
"2007","6604.817"
"2008","6619.493"
"2009","6565.949"
"2010","6493.156"
"2011","6441.97"
"2012","6416.625"
"2013","6413.868"
"2014","6431.958"
"2015","6470.222"
"2016","6517.067"
"2017","6534.842"
"2018","6488.259"
"2019","6399.424"
"2020","6320.917"
"2021","6285.4"
"2022","6291.046"
"2023","6328.16"
"2024","6359.927"
"2025","6340.726"
"2026","6271.992"
"2027","6211.542"
"2028","6206.684"
"2029","6248.824"
"2030","6315.085"
"2031","6377.663"
"2032","6404.676"
"2033","6382.731"
"2034","6347.043"
"2035","6335.974"
"2036","6341.887"
"2037","6331.822"
"2038","6297.519"
"2039","6273.21"
"2040","6289.586"
"2041","6332.497"
"2042","6371.986"
"2043","6386.313"
"2044","6362.865"
"2045","6301.219"
"2046","6241.842"
"2047","6229.984"
"2048","6254.378"
"2049","6263.829"
"2050","6225.832"
"2051","6149.281"
"2052","6053.441"
"2053","5993.697"
"2054","6039.008"
"2055","6171.462"
"2056","6261.3"
"2057","6215.131"
"2058","6116.494"
"2059","6086.064"
"2060","6129.176"
"2061","6161.478"
"2062","6131.708"
"2063","6069.23"
"2064","6012.74"
"2065","5986.95"
"2066","6009.407"
"2067","6062.743"
"2068","6084.179"
"2069","6031.352"
"2070","5955.14"
"2071","5925.36"
"2072","5951.22"
"2073","5996.747"
"2074","6031.651"
"2075","6040.049"
"2076","6012.43"
"2077","5969.94"
"2078","5945.552"
"2079","5949.198"
"2080","5964.259"
"2081","5977.157"
"2082","5989.417"
"2083","6003.883"
"2084","6003.48"
"2085","5959.207"
"2086","5881.513"
"2087","5848.034"
"2088","5916.33"
"2089","6008.355"
"2090","6008.703"
"2091","5908.898"
"2092","5795.343"
"2093","5728.15"
"2094","5695.5"
"2095","5679.33"
"2096","5694.286"
"2097","5768.152"
"2098","5877.332"
"2099","5936.41"
"2100","5892.979"
"2101","5817.153"
"2102","5796.123"
"2103","5826.748"
"2104","5852.416"
"2105","5841.475"
"2106","5802.335"
"2107","5749.22"
"2108","5706.451"
"2109","5698.99"
"2110","5720.149"
"2111","5739.626"
"2112","5741.917"
"2113","5741.252"
"2114","5749.921"
"2115","5750.922"
"2116","5718.83"
"2117","5658.482"
"2118","5601.778"
"2119","5573.255"
"2120","5578.223"
"2121","5614.211"
"2122","5645.598"
"2123","5625.453"
"2124","5555.083"
"2125","5484.964"
"2126","5453.362"
"2127","5460.853"
"2128","5499.084"
"2129","5538.518"
"2130","5541.463"
"2131","5507.999"
"2132","5480.052"
"2133","5482.644"
"2134","5487.268"
"2135","5461.308"
"2136","5413.247"
"2137","5370.444"
"2138","5346.679"
"2139","5339.975"
"2140","5343.361"
"2141","5338.141"
"2142","5308.767"
"2143","5281.274"
"2144","5299.797"
"2145","5360.326"
"2146","5403.877"
"2147","5395.168"
"2148","5373.59"
"2149","5383.216"
"2150","5405.513"
"2151","5394.879"
"2152","5342.015"
"2153","5276.917"
"2154","5227.829"
"2155","5213.181"
"2156","5242.85"
"2157","5279.137"
"2158","5267.409"
"2159","5216.786"
"2160","5198.548"
"2161","5249.2"
"2162","5319.832"
"2163","5355.62"
"2164","5337.152"
"2165","5259.702"
"2166","5153.639"
"2167","5078.743"
"2168","5063.337"
"2169","5073.268"
"2170","5076.461"
"2171","5084.744"
"2172","5119.788"
"2173","5162.838"
"2174","5167.459"
"2175","5122.847"
"2176","5074.651"
"2177","5057.054"
"2178","5043.721"
"2179","5000.862"
"2180","4956.272"
"2181","4969.597"
"2182","5032.754"
"2183","5055.188"
"2184","4987.276"
"2185","4905.241"
"2186","4891.375"
"2187","4924.637"
"2188","4943.568"
"2189","4923.185"
"2190","4871.713"
"2191","4809.047"
"2192","4775.542"
"2193","4799.061"
"2194","4838.971"
"2195","4840.319"
"2196","4810.572"
"2197","4796.675"
"2198","4811.253"
"2199","4818.998"
"2200","4796.735"
"2201","4768.542"
"2202","4761.15"
"2203","4756.579"
"2204","4719.376"
"2205","4653.303"
"2206","4598.305"
"2207","4578.54"
"2208","4584.794"
"2209","4606.24"
"2210","4641.716"
"2211","4689.527"
"2212","4715.492"
"2213","4668.295"
"2214","4572.304"
"2215","4544.563"
"2216","4637.76"
"2217","4724.756"
"2218","4678.677"
"2219","4539.743"
"2220","4405.015"
"2221","4331.582"
"2222","4346.092"
"2223","4439.758"
"2224","4551.577"
"2225","4622.881"
"2226","4616.703"
"2227","4511.948"
"2228","4369.762"
"2229","4282.731"
"2230","4271.893"
"2231","4296.201"
"2232","4318.329"
"2233","4311.03"
"2234","4265.316"
"2235","4234.143"
"2236","4270.377"
"2237","4315.951"
"2238","4266.661"
"2239","4150.623"
"2240","4118.869"
"2241","4224.966"
"2242","4335.945"
"2243","4336.944"
"2244","4256.391"
"2245","4153.713"
"2246","4067.424"
"2247","4024.398"
"2248","4017.474"
"2249","4007.895"
"2250","3976.512"
"2251","3941.584"
"2252","3917.957"
"2253","3894.116"
"2254","3855.126"
"2255","3805.185"
"2256","3756.842"
"2257","3715.416"
"2258","3680.114"
"2259","3665.288"
"2260","3710.32"
"2261","3820.268"
"2262","3883.654"
"2263","3793.92"
"2264","3628.85"
"2265","3530.748"
"2266","3507.504"
"2267","3466.846"
"2268","3384.28"
"2269","3332.759"
"2270","3353.831"
"2271","3388.109"
"2272","3371.545"
"2273","3300.893"
"2274","3195.2"
"2275","3103.365"
"2276","3090.061"
"2277","3151.94"
"2278","3210.723"
"2279","3210.408"
"2280","3147.497"
"2281","3038.022"
"2282","2948.197"
"2283","2938.689"
"2284","2938.878"
"2285","2828.685"
"2286","2649.702"
"2287","2572.455"
"2288","2628.094"
"2289","2642.175"
"2290","2514.752"
"2291","2381.181"
"2292","2371.597"
"2293","2404.486"
"2294","2349.593"
"2295","2231.453"
"2296","2156.886"
"2297","2144.345"
"2298","2125.767"
"2299","2062.33"
"2300","1970.762"
