,"Scan 01020"
"400","7378.816"
"401","7388.29"
"402","7414.964"
"403","7439.929"
"404","7444.399"
"405","7412.33"
"406","7350.1"
"407","7275.417"
"408","7205.952"
"409","7158.282"
"410","7136.376"
"411","7135.438"
"412","7150.535"
"413","7176.771"
"414","7209.503"
"415","7244.319"
"416","7276.846"
"417","7302.818"
"418","7320.651"
"419","7332.05"
"420","7338.913"
"421","7343.106"
"422","7345.498"
"423","7345.348"
"424","7341.773"
"425","7333.91"
"426","7322.06"
"427","7308.985"
"428","7297.73"
"429","7291.321"
"430","7291.861"
"431","7299.016"
"432","7312.048"
"433","7330.224"
"434","7352.249"
"435","7374.888"
"436","7394.5"
"437","7407.475"
"438","7410.901"
"439","7404.874"
"440","7390.303"
"441","7368.096"
"442","7339.865"
"443","7311.144"
"444","7288.764"
"445","7279.512"
"446","7288.324"
"447","7307.848"
"448","7325.708"
"449","7329.595"
"450","7309.362"
"451","7272.173"
"452","7233.665"
"453","7209.428"
"454","7213.115"
"455","7239.796"
"456","7273.89"
"457","7299.789"
"458","7303.205"
"459","7284.683"
"460","7254.559"
"461","7223.276"
"462","7200.749"
"463","7190.161"
"464","7189.671"
"465","7197.321"
"466","7211.086"
"467","7227.481"
"468","7241.816"
"469","7249.392"
"470","7245.76"
"471","7230.898"
"472","7208.83"
"473","7183.706"
"474","7159.513"
"475","7137.167"
"476","7114.528"
"477","7089.341"
"478","7059.549"
"479","7027.771"
"480","7001.597"
"481","6988.806"
"482","6996.802"
"483","7023.514"
"484","7056.29"
"485","7081.991"
"486","7087.888"
"487","7071.432"
"488","7041.901"
"489","7009.187"
"490","6982.93"
"491","6966.475"
"492","6955.671"
"493","6945.952"
"494","6932.856"
"495","6914.499"
"496","6892.119"
"497","6867.127"
"498","6840.897"
"499","6813.694"
"500","6784.456"
"501","6752.045"
"502","6715.417"
"503","6676.417"
"504","6640.296"
"505","6612.487"
"506","6598.19"
"507","6596.614"
"508","6600.063"
"509","6600.492"
"510","6590.125"
"511","6567.344"
"512","6537.339"
"513","6505.625"
"514","6477.594"
"515","6456.305"
"516","6442.375"
"517","6436.301"
"518","6438.407"
"519","6445.272"
"520","6449.807"
"521","6444.806"
"522","6423.555"
"523","6388.108"
"524","6348.415"
"525","6314.652"
"526","6296.455"
"527","6295.215"
"528","6305.582"
"529","6322.03"
"530","6339.099"
"531","6351.785"
"532","6355.434"
"533","6345.424"
"534","6317.932"
"535","6278.311"
"536","6237.873"
"537","6207.97"
"538","6198.557"
"539","6206.327"
"540","6220.488"
"541","6230.214"
"542","6226.233"
"543","6211.537"
"544","6195.051"
"545","6185.698"
"546","6190.498"
"547","6204.016"
"548","6215.751"
"549","6215.239"
"550","6194.539"
"551","6159.187"
"552","6119.251"
"553","6084.755"
"554","6063.459"
"555","6053.383"
"556","6049.891"
"557","6048.371"
"558","6045.099"
"559","6039.376"
"560","6031.173"
"561","6020.459"
"562","6007.916"
"563","5996.196"
"564","5988.274"
"565","5987.098"
"566","5992.973"
"567","6000.536"
"568","6003.715"
"569","5996.527"
"570","5978.145"
"571","5956.351"
"572","5939.728"
"573","5936.631"
"574","5948.409"
"575","5967.305"
"576","5984.98"
"577","5993.459"
"578","5992.247"
"579","5988.315"
"580","5988.935"
"581","6000.799"
"582","6022.616"
"583","6047.037"
"584","6066.59"
"585","6074.55"
"586","6071.167"
"587","6060.639"
"588","6047.192"
"589","6034.689"
"590","6024.645"
"591","6017.612"
"592","6014.133"
"593","6013.936"
"594","6012.957"
"595","6006.041"
"596","5988.056"
"597","5957.278"
"598","5922.905"
"599","5896.281"
"600","5888.67"
"601","5903.447"
"602","5926.557"
"603","5941.667"
"604","5932.717"
"605","5896.302"
"606","5848.43"
"607","5806.694"
"608","5788.009"
"609","5793.273"
"610","5806.299"
"611","5810.133"
"612","5789.295"
"613","5748.137"
"614","5705.541"
"615","5680.656"
"616","5689.675"
"617","5724.816"
"618","5766.506"
"619","5795.166"
"620","5795.945"
"621","5777.999"
"622","5758.103"
"623","5752.977"
"624","5771.781"
"625","5799.6"
"626","5816.764"
"627","5803.762"
"628","5753.65"
"629","5684.765"
"630","5618.414"
"631","5575.508"
"632","5564.299"
"633","5576.73"
"634","5603.702"
"635","5636.266"
"636","5667.622"
"637","5692.742"
"638","5706.666"
"639","5705.402"
"640","5693.292"
"641","5678.967"
"642","5671.074"
"643","5676.153"
"644","5690.42"
"645","5706.897"
"646","5718.637"
"647","5721.007"
"648","5715.983"
"649","5706.707"
"650","5696.303"
"651","5687.023"
"652","5679.646"
"653","5674.811"
"654","5673.063"
"655","5672.885"
"656","5670.665"
"657","5662.706"
"658","5645.985"
"659","5624.528"
"660","5606.604"
"661","5600.511"
"662","5612.542"
"663","5638.037"
"664","5668.599"
"665","5695.853"
"666","5713.697"
"667","5722.722"
"668","5724.752"
"669","5721.614"
"670","5715.663"
"671","5710.127"
"672","5708.311"
"673","5713.214"
"674","5721.847"
"675","5725.639"
"676","5715.833"
"677","5685.384"
"678","5642.195"
"679","5601.92"
"680","5580.234"
"681","5587.454"
"682","5610.601"
"683","5630.357"
"684","5627.514"
"685","5593.511"
"686","5543.587"
"687","5496.169"
"688","5469.302"
"689","5469.753"
"690","5490.832"
"691","5525.08"
"692","5565.059"
"693","5603.433"
"694","5632.93"
"695","5646.303"
"696","5638.844"
"697","5619.148"
"698","5600.138"
"699","5594.699"
"700","5609.594"
"701","5636.151"
"702","5663.3"
"703","5680.182"
"704","5682.786"
"705","5675.87"
"706","5664.757"
"707","5654.478"
"708","5646.693"
"709","5640.852"
"710","5636.357"
"711","5632.52"
"712","5628.133"
"713","5621.824"
"714","5612.236"
"715","5599.659"
"716","5588.303"
"717","5582.93"
"718","5588.086"
"719","5601.969"
"720","5615.479"
"721","5619.128"
"722","5604.792"
"723","5577.438"
"724","5549.411"
"725","5533.111"
"726","5537.517"
"727","5557.621"
"728","5584.838"
"729","5610.631"
"730","5629.523"
"731","5641.631"
"732","5647.677"
"733","5648.408"
"734","5645.085"
"735","5639.418"
"736","5633.13"
"737","5627.955"
"738","5625.746"
"739","5628.404"
"740","5637.817"
"741","5653.615"
"742","5669.297"
"743","5677.345"
"744","5670.498"
"745","5649.585"
"746","5625.228"
"747","5608.612"
"748","5609.441"
"749","5623.573"
"750","5639.266"
"751","5644.717"
"752","5632.127"
"753","5608.293"
"754","5583.341"
"755","5567.284"
"756","5564.173"
"757","5568.933"
"758","5575.712"
"759","5579.126"
"760","5579.432"
"761","5580.702"
"762","5587.077"
"763","5601.235"
"764","5619.311"
"765","5635.625"
"766","5644.535"
"767","5643.149"
"768","5633.46"
"769","5617.96"
"770","5599.195"
"771","5580.577"
"772","5566.168"
"773","5560.046"
"774","5565.548"
"775","5582.412"
"776","5609.276"
"777","5644.757"
"778","5685.01"
"779","5721.584"
"780","5745.532"
"781","5748.635"
"782","5733.554"
"783","5711.35"
"784","5693.293"
"785","5688.41"
"786","5694.909"
"787","5707.744"
"788","5721.879"
"789","5733.109"
"790","5738.702"
"791","5736.083"
"792","5723.187"
"793","5704.819"
"794","5690.722"
"795","5690.74"
"796","5710.961"
"797","5741.337"
"798","5767.491"
"799","5775.238"
"800","5761.351"
"801","5739.757"
"802","5725.868"
"803","5733.387"
"804","5757.689"
"805","5782.971"
"806","5793.277"
"807","5778.792"
"808","5750.905"
"809","5725.577"
"810","5718.392"
"811","5731.797"
"812","5751.781"
"813","5763.301"
"814","5753.705"
"815","5728.985"
"816","5703.902"
"817","5693.241"
"818","5704.691"
"819","5727.979"
"820","5750.03"
"821","5758.377"
"822","5752.457"
"823","5742.678"
"824","5739.856"
"825","5752.014"
"826","5772.629"
"827","5790.438"
"828","5794.265"
"829","5779.813"
"830","5754.621"
"831","5727.389"
"832","5706.357"
"833","5694.699"
"834","5692.451"
"835","5699.602"
"836","5714.581"
"837","5730.791"
"838","5740.621"
"839","5736.795"
"840","5720.846"
"841","5703.921"
"842","5697.649"
"843","5710.854"
"844","5735.449"
"845","5757.038"
"846","5761.317"
"847","5743.937"
"848","5719.05"
"849","5702.822"
"850","5709.873"
"851","5737.202"
"852","5770.573"
"853","5795.577"
"854","5802.746"
"855","5798.221"
"856","5791.208"
"857","5790.667"
"858","5799.541"
"859","5814.626"
"860","5832.444"
"861","5849.474"
"862","5861.965"
"863","5866.097"
"864","5858.127"
"865","5839.414"
"866","5819.385"
"867","5808.178"
"868","5814.311"
"869","5832.114"
"870","5848.587"
"871","5850.69"
"872","5833.458"
"873","5811.315"
"874","5801.528"
"875","5820.022"
"876","5862.904"
"877","5911.143"
"878","5945.334"
"879","5951.989"
"880","5938.869"
"881","5918.51"
"882","5903.153"
"883","5897.37"
"884","5897.484"
"885","5899.405"
"886","5899.865"
"887","5899.878"
"888","5901.849"
"889","5908.181"
"890","5921"
"891","5942.037"
"892","5972.984"
"893","6014.289"
"894","6057.172"
"895","6088.715"
"896","6096.054"
"897","6075.225"
"898","6039.584"
"899","6004.482"
"900","5983.951"
"901","5978.498"
"902","5980.69"
"903","5983.002"
"904","5981.198"
"905","5979.308"
"906","5982.648"
"907","5996.13"
"908","6019.097"
"909","6046.79"
"910","6074.351"
"911","6097.287"
"912","6112.251"
"913","6116.125"
"914","6106.051"
"915","6084.217"
"916","6057.289"
"917","6032.09"
"918","6013.912"
"919","6002.165"
"920","5994.846"
"921","5990.105"
"922","5989.737"
"923","5999.328"
"924","6024.639"
"925","6068.042"
"926","6116.644"
"927","6153.268"
"928","6161.22"
"929","6139.127"
"930","6103.568"
"931","6072.147"
"932","6058.846"
"933","6059.219"
"934","6062.989"
"935","6060.088"
"936","6048.509"
"937","6036.578"
"938","6033.295"
"939","6044.784"
"940","6061.239"
"941","6067.378"
"942","6048.253"
"943","6003.666"
"944","5953.422"
"945","5918.756"
"946","5916.564"
"947","5938.543"
"948","5967.333"
"949","5985.761"
"950","5985.946"
"951","5972.933"
"952","5952.724"
"953","5931.836"
"954","5919.847"
"955","5927.436"
"956","5964.941"
"957","6027.113"
"958","6087.184"
"959","6116.804"
"960","6094.678"
"961","6039.769"
"962","5985.288"
"963","5963.894"
"964","5984.654"
"965","6025.296"
"966","6061.381"
"967","6072.866"
"968","6063.305"
"969","6044.109"
"970","6026.483"
"971","6013.969"
"972","6000.624"
"973","5979.91"
"974","5947.512"
"975","5909.909"
"976","5876.848"
"977","5857.785"
"978","5853.71"
"979","5856.125"
"980","5856.031"
"981","5847.537"
"982","5837.995"
"983","5838.276"
"984","5858.688"
"985","5896.781"
"986","5937.552"
"987","5965.462"
"988","5969.23"
"989","5952.921"
"990","5924.051"
"991","5890.178"
"992","5859.473"
"993","5840.62"
"994","5842.322"
"995","5868.017"
"996","5905.591"
"997","5940.068"
"998","5957.557"
"999","5958.238"
"1000","5952.042"
"1001","5949.092"
"1002","5955.233"
"1003","5966.234"
"1004","5976.402"
"1005","5980.044"
"1006","5973.359"
"1007","5965.283"
"1008","5970.003"
"1009","6001.376"
"1010","6055.962"
"1011","6105.488"
"1012","6119.748"
"1013","6077.062"
"1014","6002.16"
"1015","5935.475"
"1016","5916.44"
"1017","5952.034"
"1018","6011.098"
"1019","6060.277"
"1020","6075.317"
"1021","6070.457"
"1022","6070.094"
"1023","6097.394"
"1024","6150.256"
"1025","6203.182"
"1026","6229.774"
"1027","6214.219"
"1028","6174.059"
"1029","6133.389"
"1030","6114.919"
"1031","6123.017"
"1032","6149.183"
"1033","6184.646"
"1034","6220.824"
"1035","6249.558"
"1036","6262.749"
"1037","6253.426"
"1038","6224.333"
"1039","6183.125"
"1040","6137.514"
"1041","6095.723"
"1042","6066.788"
"1043","6059.822"
"1044","6080.984"
"1045","6120.007"
"1046","6160.951"
"1047","6188.272"
"1048","6197.625"
"1049","6196.953"
"1050","6194.824"
"1051","6197.547"
"1052","6203.417"
"1053","6208.965"
"1054","6210.938"
"1055","6209.138"
"1056","6205.575"
"1057","6202.317"
"1058","6201.692"
"1059","6206.604"
"1060","6220.036"
"1061","6243.111"
"1062","6263.001"
"1063","6260.527"
"1064","6217.036"
"1065","6138.006"
"1066","6061.375"
"1067","6027.389"
"1068","6062.886"
"1069","6138.033"
"1070","6208.046"
"1071","6230.717"
"1072","6205.997"
"1073","6167.919"
"1074","6151.456"
"1075","6174.983"
"1076","6218.139"
"1077","6255.028"
"1078","6263.276"
"1079","6247.41"
"1080","6224.345"
"1081","6210.789"
"1082","6212.291"
"1083","6219.927"
"1084","6223.797"
"1085","6217.414"
"1086","6207.377"
"1087","6203.423"
"1088","6214.36"
"1089","6236.623"
"1090","6257.885"
"1091","6265.678"
"1092","6254.164"
"1093","6230.281"
"1094","6202.428"
"1095","6177.846"
"1096","6157.048"
"1097","6138.121"
"1098","6119.275"
"1099","6101.484"
"1100","6088.453"
"1101","6083.998"
"1102","6089.836"
"1103","6102.09"
"1104","6115.956"
"1105","6126.936"
"1106","6133.022"
"1107","6133.399"
"1108","6127.348"
"1109","6117.173"
"1110","6108.981"
"1111","6109.131"
"1112","6119.896"
"1113","6129.708"
"1114","6124.062"
"1115","6090.565"
"1116","6038.688"
"1117","5990.754"
"1118","5968.997"
"1119","5981.416"
"1120","6014.977"
"1121","6054.937"
"1122","6088.721"
"1123","6112.305"
"1124","6123.774"
"1125","6121.588"
"1126","6108.683"
"1127","6090.919"
"1128","6074.162"
"1129","6060.943"
"1130","6048.478"
"1131","6033.509"
"1132","6014.84"
"1133","5999.858"
"1134","5998.186"
"1135","6018.026"
"1136","6050.288"
"1137","6074.373"
"1138","6069.742"
"1139","6033.616"
"1140","5991.246"
"1141","5970.37"
"1142","5989.87"
"1143","6033.331"
"1144","6075.558"
"1145","6093.671"
"1146","6090.653"
"1147","6085.57"
"1148","6097.379"
"1149","6127.055"
"1150","6149.793"
"1151","6138.776"
"1152","6080.39"
"1153","6006.729"
"1154","5959.787"
"1155","5975.741"
"1156","6037.819"
"1157","6101.039"
"1158","6121.19"
"1159","6088.829"
"1160","6036.196"
"1161","5997.996"
"1162","5995.557"
"1163","6013.437"
"1164","6029.926"
"1165","6027.39"
"1166","6015.916"
"1167","6017.117"
"1168","6051.309"
"1169","6111.927"
"1170","6167.563"
"1171","6186.003"
"1172","6155.158"
"1173","6103.383"
"1174","6063.901"
"1175","6062.255"
"1176","6088.032"
"1177","6120.316"
"1178","6139.579"
"1179","6142.823"
"1180","6137.848"
"1181","6132.563"
"1182","6131.271"
"1183","6133.329"
"1184","6137.735"
"1185","6143.502"
"1186","6149.682"
"1187","6155.331"
"1188","6160.057"
"1189","6167.207"
"1190","6181.691"
"1191","6207.99"
"1192","6242.646"
"1193","6275.305"
"1194","6295.429"
"1195","6296.974"
"1196","6281.838"
"1197","6252.729"
"1198","6214.29"
"1199","6178.452"
"1200","6158.862"
"1201","6166.795"
"1202","6193.394"
"1203","6219.696"
"1204","6227.254"
"1205","6211.619"
"1206","6182.281"
"1207","6149.326"
"1208","6120.77"
"1209","6100.567"
"1210","6092.204"
"1211","6096.731"
"1212","6105.339"
"1213","6106.715"
"1214","6091.888"
"1215","6072.418"
"1216","6070.487"
"1217","6107.197"
"1218","6176.989"
"1219","6247.949"
"1220","6287.202"
"1221","6281.39"
"1222","6253.646"
"1223","6231.124"
"1224","6232.736"
"1225","6246.936"
"1226","6255.148"
"1227","6241.805"
"1228","6214.112"
"1229","6189.671"
"1230","6185.196"
"1231","6200.664"
"1232","6221.874"
"1233","6234.292"
"1234","6230.878"
"1235","6216.113"
"1236","6195.46"
"1237","6173.29"
"1238","6150.826"
"1239","6128.737"
"1240","6108.39"
"1241","6094.975"
"1242","6095.004"
"1243","6114.098"
"1244","6147.922"
"1245","6185.891"
"1246","6217.53"
"1247","6238.387"
"1248","6250.622"
"1249","6256.738"
"1250","6259.98"
"1251","6265.01"
"1252","6276.65"
"1253","6295.835"
"1254","6310.021"
"1255","6303.75"
"1256","6265.768"
"1257","6211.77"
"1258","6168.072"
"1259","6158.926"
"1260","6182.143"
"1261","6217.544"
"1262","6244.874"
"1263","6252.455"
"1264","6238.371"
"1265","6201.311"
"1266","6148.432"
"1267","6102.98"
"1268","6090.013"
"1269","6123.149"
"1270","6178.732"
"1271","6225.519"
"1272","6238.014"
"1273","6223.554"
"1274","6201.079"
"1275","6188.414"
"1276","6191.585"
"1277","6209.681"
"1278","6241.355"
"1279","6278.12"
"1280","6304.743"
"1281","6305.934"
"1282","6278.147"
"1283","6235.429"
"1284","6193.256"
"1285","6162.188"
"1286","6140.96"
"1287","6126.572"
"1288","6117.684"
"1289","6119.48"
"1290","6138.752"
"1291","6179.695"
"1292","6229.575"
"1293","6268.873"
"1294","6280.1"
"1295","6268.737"
"1296","6254.647"
"1297","6256.994"
"1298","6275.104"
"1299","6289.457"
"1300","6280.158"
"1301","6246.542"
"1302","6215.412"
"1303","6215.61"
"1304","6257.575"
"1305","6312.036"
"1306","6344.527"
"1307","6332.718"
"1308","6294.49"
"1309","6256.052"
"1310","6238.981"
"1311","6241.049"
"1312","6252.429"
"1313","6263.556"
"1314","6267.073"
"1315","6256.677"
"1316","6227.314"
"1317","6190.053"
"1318","6167.222"
"1319","6180.263"
"1320","6224.857"
"1321","6271.042"
"1322","6288.186"
"1323","6267.225"
"1324","6229.437"
"1325","6198.309"
"1326","6185.757"
"1327","6180.654"
"1328","6169.147"
"1329","6144.701"
"1330","6121.565"
"1331","6117.667"
"1332","6143.896"
"1333","6182.442"
"1334","6208.169"
"1335","6200.702"
"1336","6167.588"
"1337","6126.496"
"1338","6092.971"
"1339","6064.422"
"1340","6029.157"
"1341","5977.019"
"1342","5918.038"
"1343","5875.963"
"1344","5873.489"
"1345","5907.5"
"1346","5951.509"
"1347","5978.772"
"1348","5982.204"
"1349","5978.162"
"1350","5984.186"
"1351","6005.032"
"1352","6025.473"
"1353","6028.624"
"1354","6010.352"
"1355","5992.646"
"1356","6000.684"
"1357","6045.857"
"1358","6102.575"
"1359","6139.086"
"1360","6133.805"
"1361","6100.947"
"1362","6062.614"
"1363","6037.071"
"1364","6024.879"
"1365","6021.507"
"1366","6022.698"
"1367","6025.836"
"1368","6028.909"
"1369","6030.694"
"1370","6036.083"
"1371","6052.831"
"1372","6087.222"
"1373","6130.433"
"1374","6164.837"
"1375","6173.739"
"1376","6154.502"
"1377","6114.524"
"1378","6061.853"
"1379","6012.182"
"1380","5987.816"
"1381","6010.068"
"1382","6070.035"
"1383","6127.471"
"1384","6141.592"
"1385","6104.823"
"1386","6050.577"
"1387","6014.388"
"1388","6008.929"
"1389","6013.524"
"1390","6005.042"
"1391","5976.649"
"1392","5949.452"
"1393","5947.212"
"1394","5978.96"
"1395","6024.229"
"1396","6059.056"
"1397","6069.745"
"1398","6066.48"
"1399","6062.834"
"1400","6066.932"
"1401","6072.248"
"1402","6069.824"
"1403","6053.459"
"1404","6025.473"
"1405","5989.825"
"1406","5951.58"
"1407","5919.677"
"1408","5903.92"
"1409","5910.487"
"1410","5931.169"
"1411","5954.176"
"1412","5969.049"
"1413","5971.271"
"1414","5957.97"
"1415","5929.933"
"1416","5905.978"
"1417","5910.497"
"1418","5960.022"
"1419","6028.378"
"1420","6074.942"
"1421","6067.142"
"1422","6020.299"
"1423","5967.301"
"1424","5936.903"
"1425","5931.074"
"1426","5941.23"
"1427","5959.174"
"1428","5979.533"
"1429","5998.116"
"1430","6012.185"
"1431","6029.525"
"1432","6062.579"
"1433","6120.498"
"1434","6187.081"
"1435","6234.409"
"1436","6238.734"
"1437","6210.127"
"1438","6174.823"
"1439","6156.891"
"1440","6161.631"
"1441","6185.151"
"1442","6221.795"
"1443","6251.767"
"1444","6248.212"
"1445","6189.568"
"1446","6099.607"
"1447","6024.886"
"1448","6007.282"
"1449","6047.366"
"1450","6124.963"
"1451","6218.801"
"1452","6299.877"
"1453","6335.326"
"1454","6298.698"
"1455","6216.369"
"1456","6140.565"
"1457","6116.067"
"1458","6126.969"
"1459","6128.468"
"1460","6082.68"
"1461","6005.899"
"1462","5939.329"
"1463","5918.622"
"1464","5938.138"
"1465","5974.088"
"1466","6004.517"
"1467","6020.653"
"1468","6019.212"
"1469","5998.323"
"1470","5965.019"
"1471","5929.814"
"1472","5901.491"
"1473","5878.561"
"1474","5855.792"
"1475","5829.017"
"1476","5799.861"
"1477","5771.896"
"1478","5748.038"
"1479","5727.958"
"1480","5710.339"
"1481","5694.281"
"1482","5680.745"
"1483","5671.203"
"1484","5665.807"
"1485","5659.488"
"1486","5645.885"
"1487","5624.444"
"1488","5614.929"
"1489","5641.551"
"1490","5713.518"
"1491","5793.894"
"1492","5836.898"
"1493","5816.811"
"1494","5761.771"
"1495","5708.839"
"1496","5683.725"
"1497","5685.654"
"1498","5710.04"
"1499","5745.174"
"1500","5765.059"
"1501","5742.274"
"1502","5675.348"
"1503","5607.583"
"1504","5586.105"
"1505","5623.33"
"1506","5680.531"
"1507","5715.585"
"1508","5712.908"
"1509","5690.142"
"1510","5666.785"
"1511","5655.892"
"1512","5663.712"
"1513","5695.186"
"1514","5736.885"
"1515","5759.146"
"1516","5734.502"
"1517","5674.238"
"1518","5618.073"
"1519","5602.163"
"1520","5617.53"
"1521","5628.005"
"1522","5602.753"
"1523","5557.762"
"1524","5531.875"
"1525","5555.785"
"1526","5607.452"
"1527","5644.279"
"1528","5633.297"
"1529","5589.064"
"1530","5540.684"
"1531","5510.261"
"1532","5493.346"
"1533","5479.219"
"1534","5459.656"
"1535","5433.716"
"1536","5401.803"
"1537","5371.7"
"1538","5367.633"
"1539","5415.717"
"1540","5512.422"
"1541","5603.316"
"1542","5630.101"
"1543","5582.985"
"1544","5516.335"
"1545","5487.054"
"1546","5506.584"
"1547","5540.231"
"1548","5553.141"
"1549","5539.553"
"1550","5516.192"
"1551","5499.263"
"1552","5493.589"
"1553","5497.388"
"1554","5508.687"
"1555","5524.833"
"1556","5542.871"
"1557","5559.898"
"1558","5573.289"
"1559","5580.498"
"1560","5580.345"
"1561","5576.442"
"1562","5573.443"
"1563","5574.251"
"1564","5577.436"
"1565","5580.897"
"1566","5582.661"
"1567","5580.955"
"1568","5574.077"
"1569","5562.196"
"1570","5547.853"
"1571","5533.679"
"1572","5521.137"
"1573","5510.625"
"1574","5502.745"
"1575","5500.803"
"1576","5509.853"
"1577","5533.338"
"1578","5562.671"
"1579","5583.899"
"1580","5586.592"
"1581","5577.426"
"1582","5568.221"
"1583","5567.78"
"1584","5575.317"
"1585","5588.141"
"1586","5600.854"
"1587","5602.369"
"1588","5581.202"
"1589","5541.767"
"1590","5511.065"
"1591","5516.479"
"1592","5555.832"
"1593","5598.469"
"1594","5614.991"
"1595","5604.509"
"1596","5584.59"
"1597","5571.086"
"1598","5565.616"
"1599","5563.773"
"1600","5561.767"
"1601","5558.561"
"1602","5553.861"
"1603","5548.945"
"1604","5549.283"
"1605","5560.976"
"1606","5584.788"
"1607","5612.406"
"1608","5634.895"
"1609","5650.729"
"1610","5666.496"
"1611","5687.988"
"1612","5705.041"
"1613","5696.228"
"1614","5645.564"
"1615","5578.5"
"1616","5538.826"
"1617","5556.626"
"1618","5603.085"
"1619","5633.72"
"1620","5622.567"
"1621","5590.521"
"1622","5565.555"
"1623","5562.143"
"1624","5573.986"
"1625","5593.121"
"1626","5614.03"
"1627","5633.52"
"1628","5648.331"
"1629","5653.676"
"1630","5643.873"
"1631","5616.469"
"1632","5586.917"
"1633","5576.828"
"1634","5598.977"
"1635","5638.632"
"1636","5675.78"
"1637","5696.943"
"1638","5700.378"
"1639","5685.907"
"1640","5662.225"
"1641","5647.484"
"1642","5657.985"
"1643","5683.935"
"1644","5699.104"
"1645","5682.679"
"1646","5646.717"
"1647","5615.05"
"1648","5604.31"
"1649","5608.6"
"1650","5617.723"
"1651","5627.809"
"1652","5645.919"
"1653","5679.37"
"1654","5716.416"
"1655","5726.45"
"1656","5683.251"
"1657","5611.374"
"1658","5563.919"
"1659","5579.661"
"1660","5625.848"
"1661","5648.02"
"1662","5616.882"
"1663","5567.11"
"1664","5542.775"
"1665","5558.506"
"1666","5588.24"
"1667","5604.035"
"1668","5594.691"
"1669","5561.834"
"1670","5509.442"
"1671","5455.114"
"1672","5422.072"
"1673","5423.683"
"1674","5440.317"
"1675","5445.666"
"1676","5430.832"
"1677","5416.912"
"1678","5426.559"
"1679","5453.606"
"1680","5465.281"
"1681","5433.858"
"1682","5381.219"
"1683","5353.457"
"1684","5378.987"
"1685","5417.157"
"1686","5410.919"
"1687","5342.396"
"1688","5268.516"
"1689","5252.148"
"1690","5297.888"
"1691","5352.612"
"1692","5365.896"
"1693","5332.485"
"1694","5270.129"
"1695","5199.239"
"1696","5149.807"
"1697","5153.964"
"1698","5216.497"
"1699","5290.818"
"1700","5326.576"
"1701","5314.813"
"1702","5285.809"
"1703","5268.485"
"1704","5268.66"
"1705","5281.25"
"1706","5301.446"
"1707","5325.61"
"1708","5350.315"
"1709","5369.453"
"1710","5372.521"
"1711","5349.502"
"1712","5305.15"
"1713","5256.159"
"1714","5218.173"
"1715","5197.954"
"1716","5198.843"
"1717","5219.005"
"1718","5242.461"
"1719","5251.217"
"1720","5243.036"
"1721","5235.86"
"1722","5246.821"
"1723","5269.538"
"1724","5283.195"
"1725","5272.086"
"1726","5244.033"
"1727","5213.341"
"1728","5194.294"
"1729","5201.109"
"1730","5246.426"
"1731","5312.494"
"1732","5354.315"
"1733","5334.964"
"1734","5278.188"
"1735","5232.538"
"1736","5230.053"
"1737","5256.958"
"1738","5291.745"
"1739","5316.402"
"1740","5317.223"
"1741","5284.149"
"1742","5239.895"
"1743","5225.441"
"1744","5264.891"
"1745","5318.391"
"1746","5331.66"
"1747","5286.312"
"1748","5220.582"
"1749","5175.386"
"1750","5160.396"
"1751","5163.3"
"1752","5174.087"
"1753","5195.935"
"1754","5235.805"
"1755","5286.583"
"1756","5314.252"
"1757","5284.71"
"1758","5214.729"
"1759","5163.426"
"1760","5176.824"
"1761","5219.675"
"1762","5228.521"
"1763","5177.936"
"1764","5125.673"
"1765","5136.914"
"1766","5203.42"
"1767","5249.152"
"1768","5210.421"
"1769","5116.699"
"1770","5033.048"
"1771","5001.702"
"1772","5011.237"
"1773","5042.841"
"1774","5083.64"
"1775","5126.479"
"1776","5164.402"
"1777","5190.328"
"1778","5197.15"
"1779","5186.144"
"1780","5178.181"
"1781","5195.662"
"1782","5233.563"
"1783","5260.928"
"1784","5252.125"
"1785","5220.353"
"1786","5193.354"
"1787","5189.854"
"1788","5208.671"
"1789","5245.065"
"1790","5277.751"
"1791","5270.99"
"1792","5201.615"
"1793","5117.127"
"1794","5088.441"
"1795","5139.706"
"1796","5204.729"
"1797","5211.852"
"1798","5162.259"
"1799","5112.307"
"1800","5105.679"
"1801","5122.783"
"1802","5126.636"
"1803","5102.591"
"1804","5071.751"
"1805","5057.347"
"1806","5070.182"
"1807","5113.401"
"1808","5181.356"
"1809","5238.314"
"1810","5243.121"
"1811","5196.945"
"1812","5153.952"
"1813","5162.996"
"1814","5204.533"
"1815","5226.91"
"1816","5202.606"
"1817","5165.842"
"1818","5158.537"
"1819","5182.061"
"1820","5200.227"
"1821","5183.786"
"1822","5148.187"
"1823","5123.475"
"1824","5121.764"
"1825","5123.514"
"1826","5107.649"
"1827","5073.252"
"1828","5032.374"
"1829","4998.756"
"1830","4991.066"
"1831","5028.002"
"1832","5094.77"
"1833","5137.284"
"1834","5111.413"
"1835","5056.143"
"1836","5044.676"
"1837","5107.072"
"1838","5182.073"
"1839","5201.237"
"1840","5160.375"
"1841","5102.865"
"1842","5063.061"
"1843","5035.81"
"1844","5006.878"
"1845","4978.972"
"1846","4976.168"
"1847","5017.175"
"1848","5072.697"
"1849","5092.809"
"1850","5058.738"
"1851","5018.154"
"1852","5023.226"
"1853","5070.028"
"1854","5114.153"
"1855","5122.434"
"1856","5105.892"
"1857","5085.292"
"1858","5073.46"
"1859","5074.059"
"1860","5086.3"
"1861","5085.317"
"1862","5037.478"
"1863","4946.607"
"1864","4884.16"
"1865","4918.602"
"1866","5010.877"
"1867","5057.764"
"1868","5000.542"
"1869","4908.878"
"1870","4871.529"
"1871","4909.061"
"1872","4980.884"
"1873","5050.414"
"1874","5108.634"
"1875","5154.007"
"1876","5182.56"
"1877","5187.132"
"1878","5163.212"
"1879","5125.67"
"1880","5097.285"
"1881","5086.517"
"1882","5074.897"
"1883","5044.008"
"1884","5007.129"
"1885","4996.292"
"1886","5025.165"
"1887","5057.812"
"1888","5052.638"
"1889","5010.588"
"1890","4967.212"
"1891","4948.733"
"1892","4942.445"
"1893","4927.347"
"1894","4904.704"
"1895","4899.968"
"1896","4931.471"
"1897","4974.501"
"1898","4991.173"
"1899","4976.201"
"1900","4970.447"
"1901","5009.769"
"1902","5070.53"
"1903","5104.175"
"1904","5089.813"
"1905","5056.792"
"1906","5037.723"
"1907","5045.793"
"1908","5083.726"
"1909","5141.118"
"1910","5178.121"
"1911","5155.88"
"1912","5097.718"
"1913","5068.099"
"1914","5100.656"
"1915","5140.914"
"1916","5123.638"
"1917","5055.57"
"1918","5000.409"
"1919","4996.754"
"1920","4993.656"
"1921","4925.755"
"1922","4816.344"
"1923","4770.365"
"1924","4856.577"
"1925","4988.916"
"1926","5047.022"
"1927","5008.949"
"1928","4955.664"
"1929","4952.851"
"1930","4975.203"
"1931","4973.286"
"1932","4940.681"
"1933","4920.825"
"1934","4949.864"
"1935","5013.305"
"1936","5080.753"
"1937","5116.719"
"1938","5079.359"
"1939","4947.486"
"1940","4813.289"
"1941","4804.206"
"1942","4929.658"
"1943","5042.852"
"1944","5018.569"
"1945","4915.945"
"1946","4856.797"
"1947","4874.472"
"1948","4881.561"
"1949","4805.113"
"1950","4706.474"
"1951","4693.215"
"1952","4788.836"
"1953","4901.442"
"1954","4947.702"
"1955","4942.433"
"1956","4934.628"
"1957","4945.744"
"1958","4960.081"
"1959","4961.289"
"1960","4944.103"
"1961","4907.474"
"1962","4866.767"
"1963","4858.479"
"1964","4907.757"
"1965","4973.321"
"1966","4993.858"
"1967","4957.711"
"1968","4913.146"
"1969","4901.758"
"1970","4916.102"
"1971","4934.454"
"1972","4941.09"
"1973","4926.913"
"1974","4887.484"
"1975","4836.585"
"1976","4792.842"
"1977","4774.999"
"1978","4801.926"
"1979","4878.744"
"1980","4960.456"
"1981","4993.339"
"1982","4973.698"
"1983","4940.756"
"1984","4924.34"
"1985","4920.854"
"1986","4920.84"
"1987","4922.458"
"1988","4929.388"
"1989","4937.158"
"1990","4920.305"
"1991","4855.78"
"1992","4781.949"
"1993","4774.075"
"1994","4855.185"
"1995","4939.696"
"1996","4941.198"
"1997","4877.616"
"1998","4817.374"
"1999","4802.599"
"2000","4831.671"
"2001","4893.629"
"2002","4945.143"
"2003","4931.931"
"2004","4855.44"
"2005","4788.481"
"2006","4790.188"
"2007","4834.919"
"2008","4873.97"
"2009","4886.448"
"2010","4878.77"
"2011","4859.351"
"2012","4839.377"
"2013","4829.707"
"2014","4827.983"
"2015","4822.145"
"2016","4807.071"
"2017","4794.79"
"2018","4798.583"
"2019","4819.925"
"2020","4853.839"
"2021","4883.915"
"2022","4874.475"
"2023","4800.633"
"2024","4714.477"
"2025","4694.849"
"2026","4749.945"
"2027","4803.288"
"2028","4796.928"
"2029","4767.624"
"2030","4772.595"
"2031","4813.705"
"2032","4846.922"
"2033","4840.393"
"2034","4797.831"
"2035","4730.096"
"2036","4661.46"
"2037","4623.412"
"2038","4622.331"
"2039","4621.756"
"2040","4591.527"
"2041","4562.418"
"2042","4585.256"
"2043","4659.572"
"2044","4728.06"
"2045","4747.605"
"2046","4735.43"
"2047","4719.902"
"2048","4702.135"
"2049","4664.056"
"2050","4605.666"
"2051","4565.907"
"2052","4580.653"
"2053","4627.753"
"2054","4660.321"
"2055","4652.177"
"2056","4603.955"
"2057","4526.679"
"2058","4465.837"
"2059","4471.795"
"2060","4534.879"
"2061","4598.715"
"2062","4625.454"
"2063","4622.24"
"2064","4601.965"
"2065","4574.058"
"2066","4546.304"
"2067","4522.449"
"2068","4500.974"
"2069","4484.248"
"2070","4491.314"
"2071","4542.21"
"2072","4611.593"
"2073","4640.388"
"2074","4597.523"
"2075","4512.69"
"2076","4421.592"
"2077","4348.091"
"2078","4310.801"
"2079","4313.421"
"2080","4342.508"
"2081","4379.048"
"2082","4388.947"
"2083","4340.364"
"2084","4262.34"
"2085","4221.356"
"2086","4242.337"
"2087","4278.653"
"2088","4285.622"
"2089","4264.272"
"2090","4230.099"
"2091","4199.148"
"2092","4187.942"
"2093","4204.647"
"2094","4237.129"
"2095","4271.88"
"2096","4307.843"
"2097","4348.832"
"2098","4375.89"
"2099","4342.688"
"2100","4231.316"
"2101","4123.923"
"2102","4113.033"
"2103","4179.171"
"2104","4236.762"
"2105","4246.754"
"2106","4244.016"
"2107","4259.847"
"2108","4281.648"
"2109","4285.762"
"2110","4262.686"
"2111","4213.643"
"2112","4156.357"
"2113","4139.787"
"2114","4196.78"
"2115","4252.029"
"2116","4199.742"
"2117","4058.071"
"2118","3955.909"
"2119","3965.571"
"2120","4020.418"
"2121","4046.46"
"2122","4049.077"
"2123","4063.676"
"2124","4086.856"
"2125","4075.646"
"2126","4011.724"
"2127","3945.378"
"2128","3929.071"
"2129","3949.583"
"2130","3965.483"
"2131","3963.117"
"2132","3959.737"
"2133","3967.335"
"2134","3978.646"
"2135","3982.405"
"2136","3962.509"
"2137","3901.861"
"2138","3822.854"
"2139","3793.241"
"2140","3848.226"
"2141","3922.422"
"2142","3943.389"
"2143","3925.709"
"2144","3923.524"
"2145","3943.1"
"2146","3935.911"
"2147","3877.926"
"2148","3821.855"
"2149","3822.781"
"2150","3852.877"
"2151","3848.583"
"2152","3798.016"
"2153","3745.191"
"2154","3717.706"
"2155","3693.411"
"2156","3650.832"
"2157","3626.892"
"2158","3679.075"
"2159","3782.933"
"2160","3834.17"
"2161","3785.176"
"2162","3725.439"
"2163","3740.613"
"2164","3782.559"
"2165","3760.714"
"2166","3683.942"
"2167","3644.716"
"2168","3684.768"
"2169","3742.908"
"2170","3759.026"
"2171","3734.346"
"2172","3688.141"
"2173","3639.041"
"2174","3605.132"
"2175","3595.881"
"2176","3607.308"
"2177","3630.069"
"2178","3639.512"
"2179","3612.92"
"2180","3579.666"
"2181","3596.116"
"2182","3661.976"
"2183","3707.933"
"2184","3688.391"
"2185","3634.338"
"2186","3584.965"
"2187","3546.987"
"2188","3514.514"
"2189","3493.798"
"2190","3501.904"
"2191","3528.293"
"2192","3507.533"
"2193","3396.278"
"2194","3281.992"
"2195","3277.372"
"2196","3350.942"
"2197","3380.127"
"2198","3326.267"
"2199","3267.849"
"2200","3258.655"
"2201","3251.998"
"2202","3196.881"
"2203","3146.636"
"2204","3194.586"
"2205","3325.873"
"2206","3425.959"
"2207","3434.864"
"2208","3405.916"
"2209","3388.183"
"2210","3355.453"
"2211","3268.628"
"2212","3167.158"
"2213","3135.152"
"2214","3185.366"
"2215","3242.587"
"2216","3252.786"
"2217","3230.417"
"2218","3195.07"
"2219","3133.648"
"2220","3026.311"
"2221","2923.136"
"2222","2924.788"
"2223","3037.49"
"2224","3123.567"
"2225","3087.946"
"2226","3008.307"
"2227","2981.725"
"2228","3001.221"
"2229","3016.638"
"2230","3002.487"
"2231","2955.082"
"2232","2893.587"
"2233","2875.14"
"2234","2937.593"
"2235","3035.864"
"2236","3108.703"
"2237","3115.183"
"2238","3027.27"
"2239","2886.127"
"2240","2796.881"
"2241","2801.344"
"2242","2821.199"
"2243","2786.83"
"2244","2709.757"
"2245","2622.072"
"2246","2568.359"
"2247","2596.289"
"2248","2690.273"
"2249","2775.727"
"2250","2801.794"
"2251","2764.475"
"2252","2677.066"
"2253","2597.384"
"2254","2582.159"
"2255","2602.843"
"2256","2594.512"
"2257","2540.436"
"2258","2465.991"
"2259","2391.343"
"2260","2325.769"
"2261","2275.061"
"2262","2236.99"
"2263","2208.158"
"2264","2187.949"
"2265","2177.184"
"2266","2181.437"
"2267","2209.348"
"2268","2245.988"
"2269","2243.693"
"2270","2177.416"
"2271","2087.633"
"2272","2022.441"
"2273","2013.915"
"2274","2081.479"
"2275","2162.988"
"2276","2150.216"
"2277","2034.537"
"2278","1917.337"
"2279","1859.041"
"2280","1826.656"
"2281","1784.706"
"2282","1730.623"
"2283","1670.204"
"2284","1613.645"
"2285","1572.571"
"2286","1549.049"
"2287","1537.24"
"2288","1525.513"
"2289","1494.294"
"2290","1432.328"
"2291","1351.668"
"2292","1268.569"
"2293","1201.31"
"2294","1166.87"
"2295","1163.095"
"2296","1176.776"
"2297","1186.389"
"2298","1162.816"
"2299","1106.502"
"2300","1068.317"
