,"Scan 01062"
"400","7381.771"
"401","7366.344"
"402","7336.449"
"403","7304.746"
"404","7283.806"
"405","7284.188"
"406","7299.809"
"407","7316.195"
"408","7318.911"
"409","7295.034"
"410","7250.09"
"411","7202.396"
"412","7170.4"
"413","7171.524"
"414","7204.794"
"415","7252.101"
"416","7294.803"
"417","7314.797"
"418","7308.181"
"419","7288.502"
"420","7270.296"
"421","7267.836"
"422","7284.888"
"423","7308.362"
"424","7323.728"
"425","7316.617"
"426","7282.625"
"427","7238.057"
"428","7201.712"
"429","7192.243"
"430","7219.318"
"431","7268.601"
"432","7321.848"
"433","7360.947"
"434","7373.159"
"435","7364.008"
"436","7342.917"
"437","7319.246"
"438","7300.363"
"439","7285.143"
"440","7270.149"
"441","7251.972"
"442","7228.435"
"443","7203.993"
"444","7185.331"
"445","7179.09"
"446","7190.131"
"447","7211.502"
"448","7231.428"
"449","7238.188"
"450","7221.744"
"451","7185.354"
"452","7138.799"
"453","7091.841"
"454","7053.603"
"455","7027.44"
"456","7013.382"
"457","7011.419"
"458","7021.137"
"459","7037.241"
"460","7051.227"
"461","7054.589"
"462","7039.536"
"463","7007.841"
"464","6968.423"
"465","6930.317"
"466","6902.167"
"467","6886.927"
"468","6882.801"
"469","6887.865"
"470","6900.133"
"471","6916.232"
"472","6931.524"
"473","6941.346"
"474","6941.33"
"475","6933.068"
"476","6924.069"
"477","6922.045"
"478","6934.271"
"479","6957.77"
"480","6978.71"
"481","6982.814"
"482","6956.495"
"483","6903.474"
"484","6846.796"
"485","6810.396"
"486","6817.296"
"487","6866.667"
"488","6929.97"
"489","6977.276"
"490","6979.551"
"491","6931.429"
"492","6855.736"
"493","6776.817"
"494","6718.375"
"495","6687.116"
"496","6669.267"
"497","6649.901"
"498","6614.522"
"499","6559.859"
"500","6496.159"
"501","6434.422"
"502","6385.368"
"503","6352.813"
"504","6332.382"
"505","6319.251"
"506","6308.617"
"507","6295.605"
"508","6275.262"
"509","6242.646"
"510","6193.151"
"511","6130.605"
"512","6068.172"
"513","6019.427"
"514","5997.333"
"515","6001.212"
"516","6016.118"
"517","6026.505"
"518","6017.501"
"519","5987.377"
"520","5947.235"
"521","5908.662"
"522","5882.688"
"523","5870.81"
"524","5865.929"
"525","5860.68"
"526","5848.11"
"527","5827.517"
"528","5803.325"
"529","5780.077"
"530","5762.087"
"531","5750.641"
"532","5744.804"
"533","5743.591"
"534","5745.959"
"535","5750.071"
"536","5753.585"
"537","5754.156"
"538","5749.714"
"539","5740.707"
"540","5729.008"
"541","5716.503"
"542","5704.868"
"543","5694.192"
"544","5683.792"
"545","5672.981"
"546","5661.064"
"547","5647.229"
"548","5630.628"
"549","5610.413"
"550","5586.438"
"551","5562.352"
"552","5543.071"
"553","5533.489"
"554","5536.519"
"555","5546.46"
"556","5555.279"
"557","5554.985"
"558","5540.71"
"559","5518.404"
"560","5496.346"
"561","5482.773"
"562","5482.97"
"563","5494.196"
"564","5512.348"
"565","5533.351"
"566","5552.934"
"567","5566.395"
"568","5569"
"569","5556.103"
"570","5528.482"
"571","5495.991"
"572","5469.313"
"573","5458.864"
"574","5466.539"
"575","5483.174"
"576","5498.904"
"577","5504.232"
"578","5497.22"
"579","5483.481"
"580","5468.931"
"581","5459.139"
"582","5454.907"
"583","5453.428"
"584","5451.815"
"585","5447.493"
"586","5440.837"
"587","5433.896"
"588","5428.722"
"589","5427.065"
"590","5428.641"
"591","5432.333"
"592","5437.029"
"593","5441.526"
"594","5444.222"
"595","5443.392"
"596","5437.321"
"597","5425.577"
"598","5411.818"
"599","5400.512"
"600","5396.094"
"601","5399.865"
"602","5406.208"
"603","5408.598"
"604","5400.624"
"605","5381.115"
"606","5356.931"
"607","5335.592"
"608","5324.376"
"609","5325.02"
"610","5333.354"
"611","5344.935"
"612","5355.512"
"613","5363.292"
"614","5368.294"
"615","5370.574"
"616","5370.285"
"617","5368.409"
"618","5366.325"
"619","5365.413"
"620","5366.317"
"621","5365.942"
"622","5360.003"
"623","5344.23"
"624","5316.494"
"625","5281.469"
"626","5245.177"
"627","5213.603"
"628","5191.13"
"629","5178.919"
"630","5177.743"
"631","5188.295"
"632","5208.24"
"633","5231.344"
"634","5251.137"
"635","5261.479"
"636","5261.473"
"637","5254.524"
"638","5244.166"
"639","5233.714"
"640","5224.677"
"641","5217.628"
"642","5213.13"
"643","5211.507"
"644","5211.885"
"645","5213.018"
"646","5213.674"
"647","5213.287"
"648","5213.22"
"649","5215.173"
"650","5220.809"
"651","5229.242"
"652","5235.272"
"653","5233.309"
"654","5218.063"
"655","5191.148"
"656","5161.172"
"657","5137.031"
"658","5127.077"
"659","5134.176"
"660","5157.888"
"661","5197.724"
"662","5251.455"
"663","5307.226"
"664","5349.913"
"665","5364.439"
"666","5343.232"
"667","5300.9"
"668","5256.114"
"669","5227.333"
"670","5222.428"
"671","5231.894"
"672","5244.64"
"673","5249.985"
"674","5245.086"
"675","5234.389"
"676","5222.61"
"677","5214.071"
"678","5209.748"
"679","5208.874"
"680","5210.672"
"681","5213.901"
"682","5215.273"
"683","5210.955"
"684","5197.142"
"685","5174.029"
"686","5150.779"
"687","5137.738"
"688","5144.921"
"689","5172.083"
"690","5206.735"
"691","5235.702"
"692","5246.877"
"693","5240.23"
"694","5223.467"
"695","5204.405"
"696","5189.73"
"697","5180.248"
"698","5174.845"
"699","5172.407"
"700","5171.779"
"701","5171.693"
"702","5170.866"
"703","5168.06"
"704","5163.756"
"705","5160.626"
"706","5161.483"
"707","5168.958"
"708","5183.614"
"709","5204.649"
"710","5231.24"
"711","5261.808"
"712","5290.906"
"713","5311.853"
"714","5317.998"
"715","5306.403"
"716","5282.909"
"717","5254.607"
"718","5228.583"
"719","5212.103"
"720","5212.637"
"721","5237.655"
"722","5292.58"
"723","5362.946"
"724","5423.109"
"725","5447.341"
"726","5418.505"
"727","5354.571"
"728","5282.474"
"729","5228.978"
"730","5208.689"
"731","5213.925"
"732","5234.632"
"733","5260.932"
"734","5285.794"
"735","5304.661"
"736","5313.074"
"737","5307.528"
"738","5290.751"
"739","5267.95"
"740","5244.325"
"741","5224.614"
"742","5212.306"
"743","5210.671"
"744","5222.822"
"745","5246.656"
"746","5273.759"
"747","5295.351"
"748","5303.638"
"749","5299.964"
"750","5290.692"
"751","5282.221"
"752","5280.054"
"753","5286.429"
"754","5302.832"
"755","5330.68"
"756","5367.316"
"757","5403.834"
"758","5430.808"
"759","5439.629"
"760","5431.73"
"761","5415.333"
"762","5398.777"
"763","5389.196"
"764","5388.348"
"765","5396.497"
"766","5413.87"
"767","5437.489"
"768","5458.688"
"769","5468.221"
"770","5457.787"
"771","5432.691"
"772","5408.549"
"773","5401.217"
"774","5422.255"
"775","5462.273"
"776","5505.491"
"777","5536.219"
"778","5547.225"
"779","5547.076"
"780","5546.072"
"781","5553.988"
"782","5572.986"
"783","5599.339"
"784","5629.172"
"785","5658.065"
"786","5678.96"
"787","5684.004"
"788","5665.455"
"789","5624.72"
"790","5579.607"
"791","5549.613"
"792","5552.592"
"793","5584.375"
"794","5624.957"
"795","5654.001"
"796","5656.307"
"797","5638.695"
"798","5613.905"
"799","5594.586"
"800","5588.549"
"801","5596.04"
"802","5616.642"
"803","5649.237"
"804","5685.056"
"805","5710.671"
"806","5712.598"
"807","5683.731"
"808","5638.995"
"809","5598.066"
"810","5580.229"
"811","5591.133"
"812","5619.343"
"813","5652.356"
"814","5678.805"
"815","5696.186"
"816","5706.16"
"817","5710.414"
"818","5710.994"
"819","5710.855"
"820","5713.094"
"821","5720.639"
"822","5733.142"
"823","5747.228"
"824","5759.419"
"825","5766.666"
"826","5768.194"
"827","5763.966"
"828","5753.971"
"829","5739.948"
"830","5726.654"
"831","5719.146"
"832","5722.061"
"833","5735.495"
"834","5756.728"
"835","5783.004"
"836","5811.335"
"837","5838.007"
"838","5859.157"
"839","5871.049"
"840","5873.194"
"841","5868.656"
"842","5860.674"
"843","5851.958"
"844","5842.024"
"845","5829.196"
"846","5811.828"
"847","5791.956"
"848","5778.45"
"849","5780.922"
"850","5807.643"
"851","5851.552"
"852","5895.815"
"853","5923.445"
"854","5923.766"
"855","5905.992"
"856","5883.258"
"857","5868.314"
"858","5864.889"
"859","5867.482"
"860","5870.179"
"861","5868.428"
"862","5864.907"
"863","5864.681"
"864","5872.755"
"865","5890.602"
"866","5914.101"
"867","5938.636"
"868","5959.973"
"869","5977.189"
"870","5991.07"
"871","6002.421"
"872","6011.762"
"873","6018.942"
"874","6023.708"
"875","6025.909"
"876","6026.857"
"877","6028.986"
"878","6034.756"
"879","6045.309"
"880","6057.042"
"881","6065.287"
"882","6065.513"
"883","6056.804"
"884","6042.129"
"885","6024.65"
"886","6008.232"
"887","6000.426"
"888","6009.98"
"889","6045.437"
"890","6104.541"
"891","6169.194"
"892","6220.033"
"893","6240.48"
"894","6234.552"
"895","6215.489"
"896","6196.538"
"897","6185.886"
"898","6181.876"
"899","6181.718"
"900","6182.899"
"901","6185.763"
"902","6192.325"
"903","6204.618"
"904","6223.001"
"905","6243.625"
"906","6261.986"
"907","6273.886"
"908","6279.379"
"909","6281.646"
"910","6283.943"
"911","6288.509"
"912","6294.388"
"913","6299.991"
"914","6303.905"
"915","6308.104"
"916","6317.564"
"917","6337.37"
"918","6368.126"
"919","6393.256"
"920","6392.057"
"921","6344.952"
"922","6260.113"
"923","6174.516"
"924","6126.479"
"925","6143.743"
"926","6206.441"
"927","6281.331"
"928","6335.79"
"929","6356.985"
"930","6355.272"
"931","6342.325"
"932","6328.699"
"933","6319.234"
"934","6316.968"
"935","6324.816"
"936","6341.337"
"937","6359.498"
"938","6371.898"
"939","6372.557"
"940","6363.359"
"941","6348.888"
"942","6333.7"
"943","6321.105"
"944","6312.717"
"945","6310.026"
"946","6313.686"
"947","6319.491"
"948","6321.485"
"949","6313.842"
"950","6296.812"
"951","6279.091"
"952","6270.003"
"953","6276.795"
"954","6294.567"
"955","6314.004"
"956","6325.879"
"957","6325.18"
"958","6312.712"
"959","6289.71"
"960","6258.852"
"961","6231.029"
"962","6220.047"
"963","6239.337"
"964","6286.872"
"965","6340.093"
"966","6375.015"
"967","6373.265"
"968","6346.532"
"969","6316.525"
"970","6304.517"
"971","6315.975"
"972","6336.784"
"973","6351.612"
"974","6348.2"
"975","6329.266"
"976","6302.059"
"977","6273.756"
"978","6249.367"
"979","6231.471"
"980","6222.522"
"981","6224.363"
"982","6236.241"
"983","6256.713"
"984","6284.228"
"985","6314.816"
"986","6342.127"
"987","6359.705"
"988","6362.851"
"989","6353.199"
"990","6333.808"
"991","6307.951"
"992","6282.583"
"993","6267.746"
"994","6273.576"
"995","6304.938"
"996","6351.093"
"997","6398.431"
"998","6434.172"
"999","6456.263"
"1000","6470.086"
"1001","6481.168"
"1002","6492.486"
"1003","6501.001"
"1004","6502.804"
"1005","6493.982"
"1006","6472.182"
"1007","6445.527"
"1008","6426.458"
"1009","6427.182"
"1010","6447.664"
"1011","6470.281"
"1012","6476.043"
"1013","6451.113"
"1014","6409.708"
"1015","6375.533"
"1016","6371.68"
"1017","6401.124"
"1018","6443.218"
"1019","6475.947"
"1020","6483.541"
"1021","6476.624"
"1022","6472.795"
"1023","6488.913"
"1024","6526.774"
"1025","6574.217"
"1026","6618.549"
"1027","6648.989"
"1028","6660.803"
"1029","6650.437"
"1030","6615.536"
"1031","6569.345"
"1032","6536.063"
"1033","6540.066"
"1034","6589.694"
"1035","6656.865"
"1036","6708.452"
"1037","6715.826"
"1038","6688.912"
"1039","6657.182"
"1040","6649.974"
"1041","6677.054"
"1042","6716.886"
"1043","6745.114"
"1044","6742.226"
"1045","6715.694"
"1046","6682.299"
"1047","6658.426"
"1048","6648.99"
"1049","6646.336"
"1050","6642.165"
"1051","6631.738"
"1052","6622.914"
"1053","6626.326"
"1054","6651.389"
"1055","6690.629"
"1056","6724.325"
"1057","6732.538"
"1058","6709.169"
"1059","6678.422"
"1060","6668.521"
"1061","6702.861"
"1062","6768.446"
"1063","6835.725"
"1064","6875.508"
"1065","6878.132"
"1066","6860.207"
"1067","6840.198"
"1068","6832.498"
"1069","6834.247"
"1070","6838.041"
"1071","6836.893"
"1072","6830.74"
"1073","6825.104"
"1074","6825.665"
"1075","6833.341"
"1076","6837.974"
"1077","6827.821"
"1078","6794.081"
"1079","6750.421"
"1080","6720.862"
"1081","6728.929"
"1082","6776.172"
"1083","6835.643"
"1084","6878.463"
"1085","6883.77"
"1086","6861.444"
"1087","6828.736"
"1088","6802.202"
"1089","6789.086"
"1090","6790.038"
"1091","6805.529"
"1092","6831.608"
"1093","6855.782"
"1094","6864.586"
"1095","6847.862"
"1096","6814.712"
"1097","6781.167"
"1098","6762.71"
"1099","6762.176"
"1100","6769.933"
"1101","6775.821"
"1102","6773.11"
"1103","6764.233"
"1104","6753.132"
"1105","6743.188"
"1106","6733.25"
"1107","6719.973"
"1108","6700.173"
"1109","6677.08"
"1110","6661.984"
"1111","6666.706"
"1112","6697.384"
"1113","6740.889"
"1114","6779.998"
"1115","6798.667"
"1116","6793.085"
"1117","6766.627"
"1118","6722.886"
"1119","6671.773"
"1120","6632.542"
"1121","6625.21"
"1122","6661.877"
"1123","6723.379"
"1124","6782.841"
"1125","6815.391"
"1126","6820.053"
"1127","6811.461"
"1128","6804.379"
"1129","6803.682"
"1130","6798.491"
"1131","6776.507"
"1132","6730.505"
"1133","6674.352"
"1134","6627.403"
"1135","6607.443"
"1136","6613.036"
"1137","6629.955"
"1138","6643.871"
"1139","6649.118"
"1140","6653.711"
"1141","6666.875"
"1142","6694.037"
"1143","6725.502"
"1144","6747.805"
"1145","6748.819"
"1146","6731.283"
"1147","6707.188"
"1148","6688.604"
"1149","6684.563"
"1150","6699.718"
"1151","6738.39"
"1152","6799.533"
"1153","6863.549"
"1154","6906.813"
"1155","6908.828"
"1156","6877.584"
"1157","6836.249"
"1158","6807.694"
"1159","6800.021"
"1160","6803.627"
"1161","6807.862"
"1162","6806.657"
"1163","6806.541"
"1164","6816.192"
"1165","6841.997"
"1166","6874.805"
"1167","6899.003"
"1168","6899.649"
"1169","6875.901"
"1170","6839.937"
"1171","6804.405"
"1172","6778.119"
"1173","6762.177"
"1174","6756.757"
"1175","6761.555"
"1176","6774.042"
"1177","6791.032"
"1178","6809.061"
"1179","6821.364"
"1180","6819.024"
"1181","6793.383"
"1182","6748.836"
"1183","6707.679"
"1184","6693.511"
"1185","6719.816"
"1186","6770.108"
"1187","6822.36"
"1188","6856.737"
"1189","6868.422"
"1190","6858.854"
"1191","6830.004"
"1192","6793.005"
"1193","6766.964"
"1194","6771.071"
"1195","6807.817"
"1196","6850.247"
"1197","6868.38"
"1198","6842.847"
"1199","6794.225"
"1200","6752.485"
"1201","6744.468"
"1202","6770.347"
"1203","6816.903"
"1204","6870.944"
"1205","6922.249"
"1206","6963.563"
"1207","6987.779"
"1208","6990.692"
"1209","6973.796"
"1210","6939.241"
"1211","6891.248"
"1212","6842.396"
"1213","6807.387"
"1214","6799.222"
"1215","6815.89"
"1216","6847.628"
"1217","6884.551"
"1218","6915.714"
"1219","6929.126"
"1220","6912.868"
"1221","6868.171"
"1222","6820.85"
"1223","6799.434"
"1224","6823.041"
"1225","6876.004"
"1226","6934.63"
"1227","6977.574"
"1228","7001.352"
"1229","7010.628"
"1230","7009.935"
"1231","7000.675"
"1232","6981.607"
"1233","6951.476"
"1234","6913.508"
"1235","6877.822"
"1236","6855.118"
"1237","6853.442"
"1238","6873.223"
"1239","6913.537"
"1240","6972.243"
"1241","7040.47"
"1242","7107.036"
"1243","7160.981"
"1244","7194.018"
"1245","7199.515"
"1246","7171.442"
"1247","7119.45"
"1248","7070.409"
"1249","7051.948"
"1250","7074.451"
"1251","7115.224"
"1252","7147.81"
"1253","7153.787"
"1254","7142.554"
"1255","7129.539"
"1256","7127.965"
"1257","7136.96"
"1258","7150.088"
"1259","7161.357"
"1260","7170.43"
"1261","7180.833"
"1262","7195.925"
"1263","7211.886"
"1264","7216.737"
"1265","7198.135"
"1266","7153.852"
"1267","7100.875"
"1268","7058.357"
"1269","7040.615"
"1270","7046.221"
"1271","7070.543"
"1272","7108.262"
"1273","7150.135"
"1274","7185.532"
"1275","7204.844"
"1276","7209.049"
"1277","7205.356"
"1278","7200.67"
"1279","7193.808"
"1280","7175.946"
"1281","7138.16"
"1282","7082.549"
"1283","7027.709"
"1284","6993.576"
"1285","6992.157"
"1286","7016.412"
"1287","7056.505"
"1288","7102.097"
"1289","7140.917"
"1290","7160.203"
"1291","7150.993"
"1292","7129.068"
"1293","7120.115"
"1294","7147.09"
"1295","7201.876"
"1296","7256.908"
"1297","7285.289"
"1298","7280.913"
"1299","7257.449"
"1300","7229.264"
"1301","7206.354"
"1302","7192.462"
"1303","7190.83"
"1304","7201.393"
"1305","7216.939"
"1306","7229.32"
"1307","7232.994"
"1308","7231.03"
"1309","7228.285"
"1310","7227.541"
"1311","7220.942"
"1312","7197.233"
"1313","7148.613"
"1314","7094.955"
"1315","7069.411"
"1316","7101.639"
"1317","7174.55"
"1318","7238.442"
"1319","7244.868"
"1320","7190.214"
"1321","7115.481"
"1322","7063.127"
"1323","7051.984"
"1324","7067.65"
"1325","7093.23"
"1326","7114.105"
"1327","7120.182"
"1328","7101.907"
"1329","7057.012"
"1330","7003.908"
"1331","6964.665"
"1332","6955.724"
"1333","6970.538"
"1334","6996.701"
"1335","7022.459"
"1336","7039.953"
"1337","7042.72"
"1338","7025.634"
"1339","6994.785"
"1340","6961.902"
"1341","6938.272"
"1342","6929.024"
"1343","6935.103"
"1344","6957.015"
"1345","6988.347"
"1346","7016.418"
"1347","7028.612"
"1348","7022.203"
"1349","7006.243"
"1350","6990.431"
"1351","6980.775"
"1352","6977.518"
"1353","6980.399"
"1354","6988.475"
"1355","6999.423"
"1356","7010.745"
"1357","7019.901"
"1358","7024.245"
"1359","7021.109"
"1360","7008.952"
"1361","6990.194"
"1362","6968.124"
"1363","6946.124"
"1364","6927.971"
"1365","6917.562"
"1366","6917.932"
"1367","6926.978"
"1368","6940.695"
"1369","6954.803"
"1370","6962.964"
"1371","6957.879"
"1372","6933.727"
"1373","6899.855"
"1374","6874.44"
"1375","6874.188"
"1376","6894.534"
"1377","6915.725"
"1378","6918.738"
"1379","6903.741"
"1380","6887.501"
"1381","6886.698"
"1382","6902.197"
"1383","6918.455"
"1384","6919.584"
"1385","6904.556"
"1386","6890.692"
"1387","6896.132"
"1388","6921.773"
"1389","6943.369"
"1390","6934.911"
"1391","6890.472"
"1392","6838.547"
"1393","6810.923"
"1394","6823.435"
"1395","6859.983"
"1396","6900.665"
"1397","6930.307"
"1398","6944.75"
"1399","6941.403"
"1400","6919.967"
"1401","6886.31"
"1402","6847.334"
"1403","6811.809"
"1404","6794.233"
"1405","6810.217"
"1406","6863.749"
"1407","6917.959"
"1408","6926.979"
"1409","6863.818"
"1410","6776.498"
"1411","6731.706"
"1412","6776.281"
"1413","6868.64"
"1414","6942.608"
"1415","6947.063"
"1416","6905.404"
"1417","6864.004"
"1418","6860.187"
"1419","6881.975"
"1420","6900.723"
"1421","6893.529"
"1422","6871.644"
"1423","6858.846"
"1424","6874.984"
"1425","6914.529"
"1426","6961.949"
"1427","7003.686"
"1428","7039.964"
"1429","7076.772"
"1430","7118.784"
"1431","7160.906"
"1432","7193.717"
"1433","7209.416"
"1434","7212.749"
"1435","7214.26"
"1436","7223.398"
"1437","7240.534"
"1438","7261.71"
"1439","7283.197"
"1440","7303.358"
"1441","7321.583"
"1442","7337.014"
"1443","7346.658"
"1444","7346.458"
"1445","7333.16"
"1446","7310.476"
"1447","7285.613"
"1448","7265.37"
"1449","7252.84"
"1450","7249.249"
"1451","7254.621"
"1452","7258.986"
"1453","7247.4"
"1454","7208.272"
"1455","7157.786"
"1456","7125.717"
"1457","7136.627"
"1458","7172.852"
"1459","7196.616"
"1460","7176.012"
"1461","7124.884"
"1462","7078.107"
"1463","7064.594"
"1464","7069.17"
"1465","7057.283"
"1466","7001.086"
"1467","6919.212"
"1468","6849.671"
"1469","6823.211"
"1470","6823.848"
"1471","6817.297"
"1472","6775.876"
"1473","6711.116"
"1474","6648.833"
"1475","6611.129"
"1476","6599.898"
"1477","6610.253"
"1478","6634.763"
"1479","6653.59"
"1480","6643.082"
"1481","6588.926"
"1482","6518.126"
"1483","6469.123"
"1484","6469.597"
"1485","6504.672"
"1486","6548.957"
"1487","6583.609"
"1488","6612.752"
"1489","6645.527"
"1490","6682.144"
"1491","6695.342"
"1492","6652.615"
"1493","6545.187"
"1494","6427.949"
"1495","6366.289"
"1496","6392.516"
"1497","6461.851"
"1498","6518.695"
"1499","6531.513"
"1500","6517.159"
"1501","6498.142"
"1502","6485"
"1503","6467.594"
"1504","6434.031"
"1505","6388.318"
"1506","6357.887"
"1507","6371.188"
"1508","6424.918"
"1509","6476.047"
"1510","6480.801"
"1511","6441.38"
"1512","6408.535"
"1513","6432.503"
"1514","6510.068"
"1515","6590.746"
"1516","6625.468"
"1517","6608.131"
"1518","6564.153"
"1519","6518.509"
"1520","6483.524"
"1521","6463.908"
"1522","6463.185"
"1523","6475.981"
"1524","6492.583"
"1525","6503.855"
"1526","6504.527"
"1527","6490.833"
"1528","6460.716"
"1529","6420.459"
"1530","6378.908"
"1531","6344.266"
"1532","6322.316"
"1533","6318.264"
"1534","6331.713"
"1535","6346.027"
"1536","6341.672"
"1537","6311.113"
"1538","6273.588"
"1539","6251.858"
"1540","6259.425"
"1541","6293.866"
"1542","6350.85"
"1543","6412.543"
"1544","6443.26"
"1545","6408.071"
"1546","6319.752"
"1547","6239.482"
"1548","6226.525"
"1549","6277.654"
"1550","6341.348"
"1551","6369.228"
"1552","6357.941"
"1553","6330.302"
"1554","6307.66"
"1555","6298.611"
"1556","6306.289"
"1557","6329.805"
"1558","6348.433"
"1559","6335.286"
"1560","6276.908"
"1561","6206.904"
"1562","6169.154"
"1563","6189.083"
"1564","6246.425"
"1565","6314.019"
"1566","6371.407"
"1567","6409.973"
"1568","6422.462"
"1569","6407.992"
"1570","6373.727"
"1571","6327.741"
"1572","6285.501"
"1573","6269.171"
"1574","6297.556"
"1575","6347.657"
"1576","6369.629"
"1577","6322.745"
"1578","6236.722"
"1579","6172.686"
"1580","6177.248"
"1581","6226.292"
"1582","6274.458"
"1583","6289.049"
"1584","6277.557"
"1585","6255.395"
"1586","6233.64"
"1587","6214.222"
"1588","6197.917"
"1589","6185.317"
"1590","6176.754"
"1591","6172.625"
"1592","6175.24"
"1593","6188.739"
"1594","6216.321"
"1595","6249.289"
"1596","6271.232"
"1597","6268.572"
"1598","6248.398"
"1599","6226.572"
"1600","6213.866"
"1601","6199.062"
"1602","6165.058"
"1603","6108.165"
"1604","6060.577"
"1605","6060.131"
"1606","6119.187"
"1607","6206.834"
"1608","6288.422"
"1609","6343.259"
"1610","6365.947"
"1611","6353.093"
"1612","6317.414"
"1613","6282.998"
"1614","6271.257"
"1615","6282.146"
"1616","6306.137"
"1617","6333.146"
"1618","6350.955"
"1619","6346.779"
"1620","6314.372"
"1621","6264"
"1622","6208.566"
"1623","6163.417"
"1624","6147.663"
"1625","6179.422"
"1626","6248.701"
"1627","6318.747"
"1628","6354.706"
"1629","6352.298"
"1630","6325.042"
"1631","6286.698"
"1632","6251.052"
"1633","6231.907"
"1634","6238.409"
"1635","6265.181"
"1636","6303.998"
"1637","6343.585"
"1638","6367.223"
"1639","6358.599"
"1640","6327.129"
"1641","6309.623"
"1642","6339.72"
"1643","6400.101"
"1644","6441.365"
"1645","6425.759"
"1646","6385.934"
"1647","6379.766"
"1648","6440.311"
"1649","6523.191"
"1650","6569.372"
"1651","6554.251"
"1652","6512.797"
"1653","6484.677"
"1654","6480.988"
"1655","6484.547"
"1656","6479.007"
"1657","6468.056"
"1658","6466.645"
"1659","6484.464"
"1660","6504.958"
"1661","6503.603"
"1662","6469.66"
"1663","6427.395"
"1664","6406.098"
"1665","6413.186"
"1666","6425.849"
"1667","6420.229"
"1668","6390.18"
"1669","6343.114"
"1670","6288.681"
"1671","6249.179"
"1672","6252.118"
"1673","6307.728"
"1674","6368.465"
"1675","6375.167"
"1676","6307.566"
"1677","6212.374"
"1678","6141.271"
"1679","6111.578"
"1680","6108.896"
"1681","6119.155"
"1682","6140.794"
"1683","6178.353"
"1684","6229.715"
"1685","6266.913"
"1686","6255.924"
"1687","6189.008"
"1688","6108.632"
"1689","6061.276"
"1690","6054.89"
"1691","6059.265"
"1692","6045.657"
"1693","6012.41"
"1694","5971.659"
"1695","5933.979"
"1696","5903.331"
"1697","5882.046"
"1698","5871.307"
"1699","5870.125"
"1700","5877.376"
"1701","5893.994"
"1702","5922.869"
"1703","5964.926"
"1704","6005.072"
"1705","6020.636"
"1706","5998.044"
"1707","5955.678"
"1708","5918.74"
"1709","5899.596"
"1710","5889.541"
"1711","5878.496"
"1712","5866.083"
"1713","5859.772"
"1714","5864.916"
"1715","5872.21"
"1716","5866.699"
"1717","5841.6"
"1718","5812.572"
"1719","5798.803"
"1720","5807.82"
"1721","5832.216"
"1722","5863.365"
"1723","5890.257"
"1724","5900.402"
"1725","5885.411"
"1726","5855.104"
"1727","5824.292"
"1728","5804.576"
"1729","5801.351"
"1730","5818.667"
"1731","5848.244"
"1732","5870.743"
"1733","5870.227"
"1734","5856.236"
"1735","5848.724"
"1736","5860.768"
"1737","5886.354"
"1738","5916.192"
"1739","5940.586"
"1740","5949.355"
"1741","5933.844"
"1742","5900.528"
"1743","5864.309"
"1744","5837.973"
"1745","5825.96"
"1746","5830.624"
"1747","5845.294"
"1748","5849.073"
"1749","5822.093"
"1750","5774.985"
"1751","5739.853"
"1752","5742.259"
"1753","5774.396"
"1754","5818.544"
"1755","5855.22"
"1756","5861.609"
"1757","5817.048"
"1758","5744.299"
"1759","5702.265"
"1760","5735.933"
"1761","5805.442"
"1762","5841.453"
"1763","5810.364"
"1764","5756.771"
"1765","5733.24"
"1766","5743.516"
"1767","5746.254"
"1768","5707.681"
"1769","5651.793"
"1770","5624.654"
"1771","5649.562"
"1772","5696.469"
"1773","5728.881"
"1774","5736.382"
"1775","5733.698"
"1776","5734.494"
"1777","5739.029"
"1778","5742.315"
"1779","5740.429"
"1780","5731.991"
"1781","5716.457"
"1782","5703.131"
"1783","5710.635"
"1784","5750.873"
"1785","5792.64"
"1786","5788.652"
"1787","5723.345"
"1788","5650.831"
"1789","5631.351"
"1790","5666.21"
"1791","5705.293"
"1792","5707.244"
"1793","5687.72"
"1794","5681.365"
"1795","5701.089"
"1796","5717.825"
"1797","5700.667"
"1798","5662.641"
"1799","5650.073"
"1800","5691.449"
"1801","5731.482"
"1802","5692.479"
"1803","5570.747"
"1804","5480.978"
"1805","5535.036"
"1806","5694.658"
"1807","5828.852"
"1808","5842.998"
"1809","5774.163"
"1810","5687.459"
"1811","5626.777"
"1812","5609.418"
"1813","5644.659"
"1814","5692.067"
"1815","5687.894"
"1816","5610.962"
"1817","5548.39"
"1818","5598.827"
"1819","5748.83"
"1820","5881.116"
"1821","5897.361"
"1822","5821.917"
"1823","5719.49"
"1824","5635.534"
"1825","5581.38"
"1826","5564.108"
"1827","5581.369"
"1828","5624.74"
"1829","5681.028"
"1830","5721.204"
"1831","5713.897"
"1832","5662.869"
"1833","5613.103"
"1834","5604.931"
"1835","5630.718"
"1836","5663.016"
"1837","5683.229"
"1838","5691.63"
"1839","5691.119"
"1840","5687.963"
"1841","5690.92"
"1842","5703.5"
"1843","5708.68"
"1844","5684.989"
"1845","5631.138"
"1846","5571.302"
"1847","5530.351"
"1848","5526.063"
"1849","5573.052"
"1850","5663.097"
"1851","5739.506"
"1852","5744.042"
"1853","5683.677"
"1854","5612.471"
"1855","5573.517"
"1856","5566.071"
"1857","5579.485"
"1858","5602.851"
"1859","5624.968"
"1860","5637.022"
"1861","5645.073"
"1862","5660.664"
"1863","5681.351"
"1864","5679.428"
"1865","5629.639"
"1866","5560.836"
"1867","5534.173"
"1868","5582.321"
"1869","5656.176"
"1870","5694.846"
"1871","5688.482"
"1872","5673"
"1873","5677.029"
"1874","5689.67"
"1875","5689.417"
"1876","5665.808"
"1877","5622.851"
"1878","5567.577"
"1879","5520.67"
"1880","5508.306"
"1881","5534.688"
"1882","5562.774"
"1883","5555.386"
"1884","5522.041"
"1885","5499.876"
"1886","5513.34"
"1887","5551.979"
"1888","5599.681"
"1889","5642.224"
"1890","5666.91"
"1891","5664.088"
"1892","5635.434"
"1893","5585.731"
"1894","5531.917"
"1895","5504.125"
"1896","5525.355"
"1897","5578.236"
"1898","5632.588"
"1899","5666.678"
"1900","5670.776"
"1901","5638.731"
"1902","5583.058"
"1903","5524.187"
"1904","5481.782"
"1905","5473.994"
"1906","5514.575"
"1907","5577.951"
"1908","5617.458"
"1909","5609.223"
"1910","5581.605"
"1911","5567.69"
"1912","5569.979"
"1913","5570.738"
"1914","5561.336"
"1915","5559.515"
"1916","5585.711"
"1917","5630.561"
"1918","5661.107"
"1919","5655.89"
"1920","5634.276"
"1921","5623.017"
"1922","5624.841"
"1923","5620.355"
"1924","5597.116"
"1925","5573.35"
"1926","5573.655"
"1927","5592.669"
"1928","5593.69"
"1929","5552.226"
"1930","5505.354"
"1931","5505.766"
"1932","5553.078"
"1933","5585.414"
"1934","5554.943"
"1935","5501.492"
"1936","5490.632"
"1937","5532.133"
"1938","5565.806"
"1939","5542.744"
"1940","5499.149"
"1941","5498.51"
"1942","5552.987"
"1943","5606.789"
"1944","5611.999"
"1945","5592.231"
"1946","5595.261"
"1947","5627.366"
"1948","5638.213"
"1949","5586.885"
"1950","5510.774"
"1951","5474.294"
"1952","5495.45"
"1953","5528.559"
"1954","5531.677"
"1955","5511.364"
"1956","5491.034"
"1957","5479.288"
"1958","5464.75"
"1959","5438.668"
"1960","5414.606"
"1961","5413.189"
"1962","5430.897"
"1963","5433.086"
"1964","5392.821"
"1965","5334.124"
"1966","5296.992"
"1967","5303.786"
"1968","5355.553"
"1969","5441.726"
"1970","5503.032"
"1971","5468.928"
"1972","5359.607"
"1973","5295.297"
"1974","5360.653"
"1975","5468.025"
"1976","5489.382"
"1977","5411.882"
"1978","5336.062"
"1979","5336.256"
"1980","5373.176"
"1981","5384.326"
"1982","5356.22"
"1983","5317.411"
"1984","5292.413"
"1985","5288.924"
"1986","5310.137"
"1987","5341.196"
"1988","5354.082"
"1989","5336.827"
"1990","5319.054"
"1991","5332.511"
"1992","5361.235"
"1993","5360.569"
"1994","5314.693"
"1995","5268"
"1996","5265.662"
"1997","5297.691"
"1998","5327.351"
"1999","5328.092"
"2000","5290.438"
"2001","5214.817"
"2002","5152.87"
"2003","5173.725"
"2004","5267.01"
"2005","5320.56"
"2006","5250.529"
"2007","5134.333"
"2008","5091.087"
"2009","5137.139"
"2010","5187.907"
"2011","5181.142"
"2012","5143.762"
"2013","5119.388"
"2014","5124.626"
"2015","5156.207"
"2016","5203.061"
"2017","5236.669"
"2018","5229.084"
"2019","5181.78"
"2020","5112.137"
"2021","5051.196"
"2022","5052.838"
"2023","5151.976"
"2024","5254.823"
"2025","5223.539"
"2026","5060.396"
"2027","4935.601"
"2028","4975.068"
"2029","5086.616"
"2030","5130.552"
"2031","5088.768"
"2032","5043.92"
"2033","5050.104"
"2034","5078.665"
"2035","5090.241"
"2036","5071.355"
"2037","5023.133"
"2038","4963.327"
"2039","4937.629"
"2040","4983.012"
"2041","5069.678"
"2042","5144.475"
"2043","5171.914"
"2044","5136.117"
"2045","5039.614"
"2046","4945.596"
"2047","4924.327"
"2048","4961.663"
"2049","4983.917"
"2050","4956.656"
"2051","4931.064"
"2052","4958.734"
"2053","5015.612"
"2054","5045.647"
"2055","5028.42"
"2056","4989.573"
"2057","4951.88"
"2058","4914.148"
"2059","4870.236"
"2060","4830.152"
"2061","4816.436"
"2062","4838.015"
"2063","4872.189"
"2064","4895.383"
"2065","4910.66"
"2066","4932.458"
"2067","4947.632"
"2068","4907.058"
"2069","4786.888"
"2070","4672.875"
"2071","4669.36"
"2072","4755.758"
"2073","4818.558"
"2074","4798.38"
"2075","4754.688"
"2076","4751.541"
"2077","4782.416"
"2078","4812.604"
"2079","4826.936"
"2080","4832.811"
"2081","4838.199"
"2082","4848.731"
"2083","4867.854"
"2084","4880.021"
"2085","4858.171"
"2086","4802.11"
"2087","4757.506"
"2088","4760.362"
"2089","4774.587"
"2090","4744.393"
"2091","4673.377"
"2092","4617.817"
"2093","4613.759"
"2094","4643.668"
"2095","4681.747"
"2096","4700.313"
"2097","4671.991"
"2098","4610.076"
"2099","4576.739"
"2100","4613.912"
"2101","4686.133"
"2102","4744.877"
"2103","4774.517"
"2104","4778.937"
"2105","4757.397"
"2106","4701.576"
"2107","4611.013"
"2108","4522.476"
"2109","4478.861"
"2110","4463.225"
"2111","4414.227"
"2112","4326.612"
"2113","4305.444"
"2114","4433.962"
"2115","4605.86"
"2116","4658.326"
"2117","4585.821"
"2118","4523.387"
"2119","4552.015"
"2120","4617.072"
"2121","4654.258"
"2122","4660.305"
"2123","4655.395"
"2124","4638.892"
"2125","4588.935"
"2126","4504"
"2127","4437.725"
"2128","4440.697"
"2129","4475.354"
"2130","4467.687"
"2131","4421.877"
"2132","4428.834"
"2133","4533.201"
"2134","4637.403"
"2135","4636.143"
"2136","4559.017"
"2137","4496.738"
"2138","4470.445"
"2139","4420.898"
"2140","4316.147"
"2141","4215.211"
"2142","4184.863"
"2143","4223.922"
"2144","4298.604"
"2145","4362.124"
"2146","4353.187"
"2147","4252.899"
"2148","4162.899"
"2149","4187.653"
"2150","4293.984"
"2151","4387.817"
"2152","4418.125"
"2153","4380.702"
"2154","4287.343"
"2155","4185.121"
"2156","4122.207"
"2157","4114.893"
"2158","4164.965"
"2159","4244.538"
"2160","4296.914"
"2161","4295.756"
"2162","4286.862"
"2163","4313.274"
"2164","4343.4"
"2165","4322.398"
"2166","4258.253"
"2167","4211.805"
"2168","4213.612"
"2169","4232.615"
"2170","4236.065"
"2171","4216.84"
"2172","4175.689"
"2173","4117.766"
"2174","4051.475"
"2175","3994.433"
"2176","3978.434"
"2177","4020.168"
"2178","4076.046"
"2179","4092.915"
"2180","4059.654"
"2181","3988.861"
"2182","3914.762"
"2183","3897.42"
"2184","3956.627"
"2185","3997.72"
"2186","3927.887"
"2187","3797.989"
"2188","3714.297"
"2189","3715.497"
"2190","3778.818"
"2191","3864.27"
"2192","3902.604"
"2193","3849.351"
"2194","3789.667"
"2195","3832.863"
"2196","3935.742"
"2197","3959.163"
"2198","3872.259"
"2199","3794.766"
"2200","3811.732"
"2201","3869.991"
"2202","3899.775"
"2203","3899.13"
"2204","3894.134"
"2205","3883.769"
"2206","3842.107"
"2207","3769.261"
"2208","3717.608"
"2209","3726.533"
"2210","3752.63"
"2211","3737.131"
"2212","3696.251"
"2213","3689.016"
"2214","3714.655"
"2215","3698.671"
"2216","3610.84"
"2217","3546.114"
"2218","3593.866"
"2219","3696.234"
"2220","3748.787"
"2221","3733.57"
"2222","3696.983"
"2223","3673.005"
"2224","3674.504"
"2225","3701.622"
"2226","3719.814"
"2227","3695.063"
"2228","3645.723"
"2229","3610.658"
"2230","3593.462"
"2231","3567.352"
"2232","3527.175"
"2233","3506.697"
"2234","3526.885"
"2235","3548.934"
"2236","3528.731"
"2237","3486.556"
"2238","3470.724"
"2239","3478.937"
"2240","3461.709"
"2241","3394.041"
"2242","3299.009"
"2243","3210.002"
"2244","3179.418"
"2245","3250.059"
"2246","3350.271"
"2247","3358.591"
"2248","3270.116"
"2249","3188.929"
"2250","3177.24"
"2251","3214.403"
"2252","3266.675"
"2253","3284.543"
"2254","3225.971"
"2255","3133.469"
"2256","3084.869"
"2257","3095.959"
"2258","3128.051"
"2259","3128.249"
"2260","3023.65"
"2261","2796.683"
"2262","2611.938"
"2263","2630.818"
"2264","2755.837"
"2265","2798.111"
"2266","2745.44"
"2267","2717.218"
"2268","2740.448"
"2269","2709.507"
"2270","2577.498"
"2271","2476.459"
"2272","2523.517"
"2273","2608.798"
"2274","2566.682"
"2275","2418.823"
"2276","2297.914"
"2277","2259.043"
"2278","2270.151"
"2279","2299.323"
"2280","2323.969"
"2281","2325.006"
"2282","2292.808"
"2283","2223.907"
"2284","2144.133"
"2285","2090.164"
"2286","2058.82"
"2287","2015.22"
"2288","1962.416"
"2289","1959.188"
"2290","2027.347"
"2291","2081.453"
"2292","2036.276"
"2293","1893.127"
"2294","1686.4"
"2295","1513.818"
"2296","1500.385"
"2297","1590.497"
"2298","1554.706"
"2299","1338.248"
"2300","1193.59"
