,"Scan 01050"
"400","10917.69"
"401","10901.77"
"402","10901.56"
"403","10907.02"
"404","10908.15"
"405","10896.47"
"406","10875.59"
"407","10855.27"
"408","10845.25"
"409","10854.2"
"410","10878.03"
"411","10903.78"
"412","10918.4"
"413","10909.62"
"414","10879.27"
"415","10842.28"
"416","10814"
"417","10809.36"
"418","10831.86"
"419","10871.08"
"420","10915.76"
"421","10954.79"
"422","10980.05"
"423","10988.24"
"424","10976.47"
"425","10941.95"
"426","10888"
"427","10830.74"
"428","10787.81"
"429","10776.69"
"430","10805.14"
"431","10854.85"
"432","10903.29"
"433","10928.1"
"434","10914.04"
"435","10870.17"
"436","10810.7"
"437","10749.78"
"438","10699.99"
"439","10667.66"
"440","10657.33"
"441","10673.52"
"442","10717.81"
"443","10775.78"
"444","10827.64"
"445","10853.74"
"446","10838.13"
"447","10789.19"
"448","10725.28"
"449","10664.67"
"450","10623.79"
"451","10604.8"
"452","10602.87"
"453","10613.11"
"454","10630.62"
"455","10649.62"
"456","10663.88"
"457","10667.2"
"458","10654.2"
"459","10629.14"
"460","10602.62"
"461","10585.27"
"462","10586.81"
"463","10604.43"
"464","10625.95"
"465","10639.07"
"466","10632.26"
"467","10606.22"
"468","10571.81"
"469","10540.13"
"470","10521.71"
"471","10517"
"472","10517.18"
"473","10513.17"
"474","10496.35"
"475","10467.63"
"476","10437.36"
"477","10416.23"
"478","10414.46"
"479","10431.94"
"480","10457.57"
"481","10479.81"
"482","10487.41"
"483","10476.7"
"484","10452.36"
"485","10419.52"
"486","10383.24"
"487","10347.87"
"488","10316.94"
"489","10293.93"
"490","10282.15"
"491","10280.46"
"492","10282.42"
"493","10281.34"
"494","10270.63"
"495","10246.5"
"496","10208.57"
"497","10156.66"
"498","10090.68"
"499","10014.34"
"500","9935.877"
"501","9863.745"
"502","9806.183"
"503","9765.648"
"504","9737.742"
"505","9717.692"
"506","9700.79"
"507","9683.471"
"508","9663.484"
"509","9638.67"
"510","9606.934"
"511","9568.03"
"512","9523.737"
"513","9475.931"
"514","9426.531"
"515","9378.913"
"516","9337.975"
"517","9308.657"
"518","9295.581"
"519","9296.914"
"520","9304.505"
"521","9309.981"
"522","9305.46"
"523","9291.718"
"524","9277.325"
"525","9271.09"
"526","9280.934"
"527","9300.901"
"528","9313.678"
"529","9301.697"
"530","9249.153"
"531","9163.644"
"532","9069.956"
"533","8993.142"
"534","8956.016"
"535","8956.268"
"536","8975.286"
"537","8994.276"
"538","8996.293"
"539","8981.713"
"540","8960.718"
"541","8943.55"
"542","8939.128"
"543","8945.985"
"544","8957.625"
"545","8967.547"
"546","8970.005"
"547","8964.052"
"548","8950.711"
"549","8931.004"
"550","8905.802"
"551","8875.186"
"552","8838.962"
"553","8796.943"
"554","8751.151"
"555","8713.313"
"556","8697.762"
"557","8718.765"
"558","8782.607"
"559","8867.896"
"560","8947.312"
"561","8993.672"
"562","8991.379"
"563","8956.436"
"564","8910.154"
"565","8873.697"
"566","8859.05"
"567","8858.58"
"568","8862.142"
"569","8859.703"
"570","8846.479"
"571","8826.452"
"572","8804.431"
"573","8785.104"
"574","8769.515"
"575","8753.975"
"576","8734.488"
"577","8707.363"
"578","8675.457"
"579","8648.162"
"580","8635.117"
"581","8645.101"
"582","8674.841"
"583","8711.945"
"584","8743.836"
"585","8759.252"
"586","8759.291"
"587","8752.041"
"588","8745.638"
"589","8746.926"
"590","8754.284"
"591","8762.605"
"592","8766.796"
"593","8762.523"
"594","8748.917"
"595","8726.115"
"596","8694.253"
"597","8654.643"
"598","8612.36"
"599","8573.223"
"600","8543.005"
"601","8525.557"
"602","8520.446"
"603","8526.68"
"604","8543.221"
"605","8566.418"
"606","8588.591"
"607","8601.753"
"608","8598.269"
"609","8579.104"
"610","8554.376"
"611","8534.623"
"612","8529.742"
"613","8541.345"
"614","8564.962"
"615","8595.997"
"616","8629.681"
"617","8659.621"
"618","8678.645"
"619","8679.605"
"620","8658.172"
"621","8624.399"
"622","8592.902"
"623","8578.237"
"624","8587.974"
"625","8607.367"
"626","8617.284"
"627","8598.743"
"628","8545.459"
"629","8476.677"
"630","8414.65"
"631","8381.134"
"632","8381.762"
"633","8401.388"
"634","8423.546"
"635","8432.654"
"636","8427.044"
"637","8416.517"
"638","8411.187"
"639","8419.778"
"640","8439.065"
"641","8459.667"
"642","8472.171"
"643","8469.858"
"644","8459.227"
"645","8450.845"
"646","8455.252"
"647","8477.413"
"648","8506.401"
"649","8528.485"
"650","8530.118"
"651","8508.155"
"652","8477.015"
"653","8452.77"
"654","8450.834"
"655","8472.308"
"656","8503.784"
"657","8531.242"
"658","8542.024"
"659","8537.488"
"660","8527.432"
"661","8521.741"
"662","8527.618"
"663","8537.612"
"664","8539.278"
"665","8520.208"
"666","8475.603"
"667","8423.165"
"668","8384.712"
"669","8381.762"
"670","8419.44"
"671","8475.955"
"672","8527.081"
"673","8549.591"
"674","8539.352"
"675","8510.002"
"676","8475.831"
"677","8450.094"
"678","8437.278"
"679","8437.315"
"680","8450.099"
"681","8474.599"
"682","8505.764"
"683","8537.455"
"684","8563.559"
"685","8580.05"
"686","8587.583"
"687","8587.439"
"688","8580.904"
"689","8569.594"
"690","8555.502"
"691","8540.653"
"692","8527.053"
"693","8516.69"
"694","8511.528"
"695","8513.53"
"696","8523.569"
"697","8536.835"
"698","8546.663"
"699","8546.413"
"700","8533.61"
"701","8516.313"
"702","8504.203"
"703","8506.694"
"704","8523.832"
"705","8543.673"
"706","8553.513"
"707","8541.92"
"708","8512.387"
"709","8478.221"
"710","8452.876"
"711","8447.04"
"712","8457.36"
"713","8475.989"
"714","8495.107"
"715","8508.955"
"716","8516.636"
"717","8517.959"
"718","8512.82"
"719","8503.75"
"720","8496.312"
"721","8496.226"
"722","8508.386"
"723","8529.698"
"724","8552.58"
"725","8569.41"
"726","8574.533"
"727","8570.346"
"728","8561.295"
"729","8551.815"
"730","8545.612"
"731","8545.049"
"732","8552.353"
"733","8569.538"
"734","8595.023"
"735","8624.087"
"736","8651.918"
"737","8673.902"
"738","8686.69"
"739","8687.443"
"740","8673.326"
"741","8644.693"
"742","8610.508"
"743","8581.154"
"744","8566.742"
"745","8568.309"
"746","8575.938"
"747","8579.068"
"748","8568.702"
"749","8550.414"
"750","8537.759"
"751","8544.362"
"752","8578.323"
"753","8627.587"
"754","8675.495"
"755","8705.62"
"756","8713.071"
"757","8710.654"
"758","8712.662"
"759","8732.008"
"760","8764.683"
"761","8795.222"
"762","8807.955"
"763","8792.146"
"764","8758.938"
"765","8725.574"
"766","8709.154"
"767","8716.222"
"768","8734.596"
"769","8750.174"
"770","8749.981"
"771","8737.215"
"772","8727.317"
"773","8736.03"
"774","8774.569"
"775","8832.096"
"776","8891.043"
"777","8933.945"
"778","8952.521"
"779","8955.64"
"780","8954.051"
"781","8958.006"
"782","8970.479"
"783","8988.82"
"784","9010.24"
"785","9031.614"
"786","9048.194"
"787","9054.75"
"788","9046.118"
"789","9022.97"
"790","8996.424"
"791","8978.678"
"792","8980.977"
"793","9001.721"
"794","9030.085"
"795","9055.054"
"796","9068.662"
"797","9076.053"
"798","9085.892"
"799","9106.704"
"800","9138.947"
"801","9170.441"
"802","9187.922"
"803","9179.627"
"804","9149.992"
"805","9113.353"
"806","9084.16"
"807","9073.093"
"808","9077.781"
"809","9093.041"
"810","9113.72"
"811","9135.752"
"812","9156.427"
"813","9173.126"
"814","9183.652"
"815","9189.116"
"816","9192.188"
"817","9195.538"
"818","9200.44"
"819","9204.619"
"820","9205.245"
"821","9199.701"
"822","9189.538"
"823","9180.149"
"824","9177.071"
"825","9184.611"
"826","9200.69"
"827","9221.146"
"828","9241.825"
"829","9259.17"
"830","9270.647"
"831","9273.818"
"832","9266.925"
"833","9255.598"
"834","9250.045"
"835","9260.541"
"836","9292.168"
"837","9333.279"
"838","9368.873"
"839","9384.378"
"840","9376.699"
"841","9355.265"
"842","9330.125"
"843","9309.971"
"844","9295.252"
"845","9283.346"
"846","9271.659"
"847","9261.173"
"848","9259.505"
"849","9274.99"
"850","9314.532"
"851","9368.575"
"852","9417.064"
"853","9439.796"
"854","9425.628"
"855","9392.043"
"856","9362.161"
"857","9358.237"
"858","9382.209"
"859","9415.24"
"860","9437.543"
"861","9434.141"
"862","9415.426"
"863","9400.17"
"864","9406.921"
"865","9440.009"
"866","9481.289"
"867","9510.631"
"868","9510.89"
"869","9490.996"
"870","9473.374"
"871","9480.524"
"872","9523.257"
"873","9584.326"
"874","9642.366"
"875","9677.172"
"876","9685.656"
"877","9677.802"
"878","9663.914"
"879","9652.611"
"880","9646.412"
"881","9646.47"
"882","9653.867"
"883","9667.815"
"884","9685.518"
"885","9704.065"
"886","9720.879"
"887","9735.038"
"888","9746.17"
"889","9753.927"
"890","9759.618"
"891","9766.977"
"892","9779.931"
"893","9801.453"
"894","9827.459"
"895","9850.699"
"896","9863.941"
"897","9863.768"
"898","9854.176"
"899","9840.02"
"900","9826.064"
"901","9816.144"
"902","9813.546"
"903","9821.543"
"904","9840.165"
"905","9861.273"
"906","9875.473"
"907","9874.178"
"908","9860.217"
"909","9844.828"
"910","9839.437"
"911","9851.486"
"912","9875.821"
"913","9904.813"
"914","9931.074"
"915","9951.905"
"916","9968.764"
"917","9983.261"
"918","9996.014"
"919","10003.87"
"920","10002.75"
"921","9988.855"
"922","9964.753"
"923","9939.634"
"924","9922.99"
"925","9922.448"
"926","9937.201"
"927","9964.071"
"928","9999.755"
"929","10036.96"
"930","10063.75"
"931","10067.89"
"932","10042"
"933","10003.27"
"934","9976.665"
"935","9986.58"
"936","10035.19"
"937","10096.21"
"938","10141.48"
"939","10148.63"
"940","10127.21"
"941","10097.79"
"942","10080.62"
"943","10082.82"
"944","10093.65"
"945","10101.14"
"946","10095.72"
"947","10082.06"
"948","10069.9"
"949","10068.79"
"950","10078.22"
"951","10083.71"
"952","10069.74"
"953","10025.72"
"954","9969.976"
"955","9931.312"
"956","9938.011"
"957","9993.579"
"958","10067.33"
"959","10126.06"
"960","10142.59"
"961","10124.1"
"962","10089.9"
"963","10059.14"
"964","10041.99"
"965","10036.78"
"966","10041.01"
"967","10052.32"
"968","10069.04"
"969","10089.73"
"970","10112.89"
"971","10134.57"
"972","10147.78"
"973","10145.36"
"974","10122.88"
"975","10089.42"
"976","10058.12"
"977","10041.69"
"978","10041.06"
"979","10043.92"
"980","10037.25"
"981","10012.26"
"982","9978.098"
"983","9948.706"
"984","9937.514"
"985","9946.533"
"986","9966.552"
"987","9987.865"
"988","10003.2"
"989","10014"
"990","10023.66"
"991","10035.36"
"992","10048.63"
"993","10059.9"
"994","10065.51"
"995","10063.45"
"996","10056.67"
"997","10049.02"
"998","10044.3"
"999","10045.51"
"1000","10055.13"
"1001","10075.63"
"1002","10106.8"
"1003","10142.21"
"1004","10174.51"
"1005","10196.34"
"1006","10202.05"
"1007","10197.39"
"1008","10192.8"
"1009","10198.59"
"1010","10216.99"
"1011","10238.67"
"1012","10253.42"
"1013","10253.37"
"1014","10243.63"
"1015","10233.67"
"1016","10232.75"
"1017","10242.72"
"1018","10256.81"
"1019","10267.7"
"1020","10269.72"
"1021","10264"
"1022","10253.49"
"1023","10241.17"
"1024","10230.92"
"1025","10227.46"
"1026","10235.57"
"1027","10257.66"
"1028","10288.77"
"1029","10322.53"
"1030","10352.89"
"1031","10378.68"
"1032","10402.13"
"1033","10425.53"
"1034","10449.46"
"1035","10470.69"
"1036","10485.43"
"1037","10490.65"
"1038","10489.54"
"1039","10488.51"
"1040","10493.88"
"1041","10506.75"
"1042","10519.84"
"1043","10525.1"
"1044","10516.73"
"1045","10501.32"
"1046","10489.74"
"1047","10492.58"
"1048","10512.43"
"1049","10543.13"
"1050","10578.05"
"1051","10611.08"
"1052","10637.95"
"1053","10654.77"
"1054","10658.01"
"1055","10648.78"
"1056","10631.54"
"1057","10610.86"
"1058","10593.1"
"1059","10588.51"
"1060","10607.87"
"1061","10658.68"
"1062","10723.62"
"1063","10774.08"
"1064","10781.97"
"1065","10743.48"
"1066","10687.47"
"1067","10645.14"
"1068","10639.62"
"1069","10660.1"
"1070","10686.77"
"1071","10700.95"
"1072","10701.91"
"1073","10703.47"
"1074","10719.84"
"1075","10756.86"
"1076","10800.8"
"1077","10835.15"
"1078","10845.6"
"1079","10834.78"
"1080","10813.14"
"1081","10791"
"1082","10773.11"
"1083","10756.94"
"1084","10739.5"
"1085","10720.16"
"1086","10707.48"
"1087","10712.2"
"1088","10743.47"
"1089","10789"
"1090","10821.38"
"1091","10812.98"
"1092","10757.1"
"1093","10687.32"
"1094","10641.83"
"1095","10650.91"
"1096","10698.82"
"1097","10753.31"
"1098","10783.07"
"1099","10779.2"
"1100","10754.9"
"1101","10724.3"
"1102","10698.18"
"1103","10678.38"
"1104","10665.27"
"1105","10658.97"
"1106","10657.82"
"1107","10659.26"
"1108","10660.76"
"1109","10661.75"
"1110","10664.04"
"1111","10669.63"
"1112","10679.62"
"1113","10692.08"
"1114","10704.47"
"1115","10714.09"
"1116","10716.75"
"1117","10707.43"
"1118","10681.24"
"1119","10642.4"
"1120","10608.63"
"1121","10598.71"
"1122","10624.49"
"1123","10670.32"
"1124","10713.77"
"1125","10734.2"
"1126","10731.96"
"1127","10721.18"
"1128","10716.06"
"1129","10721.27"
"1130","10726.26"
"1131","10719.11"
"1132","10692.12"
"1133","10655.17"
"1134","10622.7"
"1135","10608.1"
"1136","10611.51"
"1137","10624.31"
"1138","10637.75"
"1139","10647.13"
"1140","10654.05"
"1141","10660.67"
"1142","10669.08"
"1143","10680.97"
"1144","10697.94"
"1145","10720.75"
"1146","10740.85"
"1147","10743.88"
"1148","10715.75"
"1149","10661.33"
"1150","10612.56"
"1151","10603.52"
"1152","10652.64"
"1153","10724.16"
"1154","10770.55"
"1155","10750.49"
"1156","10678.82"
"1157","10600.31"
"1158","10559.17"
"1159","10570.69"
"1160","10615.55"
"1161","10672.35"
"1162","10724.57"
"1163","10769.07"
"1164","10804.97"
"1165","10831.52"
"1166","10848.67"
"1167","10856.67"
"1168","10855.84"
"1169","10847.83"
"1170","10835.46"
"1171","10821.65"
"1172","10809.42"
"1173","10802.03"
"1174","10802.8"
"1175","10813.69"
"1176","10830.31"
"1177","10846.43"
"1178","10856.21"
"1179","10858.38"
"1180","10854.69"
"1181","10846.96"
"1182","10838.16"
"1183","10832.87"
"1184","10835.77"
"1185","10848.55"
"1186","10863.93"
"1187","10873"
"1188","10869.25"
"1189","10862.64"
"1190","10869.99"
"1191","10906.87"
"1192","10965.66"
"1193","11018.55"
"1194","11037.27"
"1195","11012.27"
"1196","10966.99"
"1197","10928.25"
"1198","10916.62"
"1199","10929.02"
"1200","10956.81"
"1201","10991.22"
"1202","11022.37"
"1203","11039.79"
"1204","11033.64"
"1205","11008.11"
"1206","10981.44"
"1207","10972.36"
"1208","10988.65"
"1209","11016.6"
"1210","11040"
"1211","11045.98"
"1212","11035.37"
"1213","11012.43"
"1214","10981.9"
"1215","10952.59"
"1216","10935.45"
"1217","10940.8"
"1218","10965.04"
"1219","10990.78"
"1220","11000.14"
"1221","10988.42"
"1222","10975.52"
"1223","10984.06"
"1224","11027.3"
"1225","11083.91"
"1226","11124.61"
"1227","11124.53"
"1228","11092.57"
"1229","11053.03"
"1230","11029.43"
"1231","11029.86"
"1232","11049.39"
"1233","11082.65"
"1234","11124.89"
"1235","11172.28"
"1236","11221.05"
"1237","11265.16"
"1238","11292.04"
"1239","11287.97"
"1240","11244.79"
"1241","11185.13"
"1242","11142.2"
"1243","11145.82"
"1244","11187.54"
"1245","11234.9"
"1246","11255.89"
"1247","11241.5"
"1248","11207.97"
"1249","11172.84"
"1250","11150.56"
"1251","11149.7"
"1252","11178.16"
"1253","11236.26"
"1254","11298.09"
"1255","11332.05"
"1256","11313.54"
"1257","11262.83"
"1258","11217.86"
"1259","11213.6"
"1260","11246.66"
"1261","11287.54"
"1262","11307.01"
"1263","11298.77"
"1264","11282.64"
"1265","11279.75"
"1266","11300.38"
"1267","11334.09"
"1268","11368.13"
"1269","11392.38"
"1270","11405.28"
"1271","11407"
"1272","11398.41"
"1273","11384.32"
"1274","11370.93"
"1275","11363.94"
"1276","11363.78"
"1277","11367.78"
"1278","11373.21"
"1279","11376.86"
"1280","11375.07"
"1281","11364.24"
"1282","11344.87"
"1283","11323.62"
"1284","11307.63"
"1285","11301.35"
"1286","11302.73"
"1287","11308.79"
"1288","11315.95"
"1289","11318.31"
"1290","11309.44"
"1291","11285.26"
"1292","11257.12"
"1293","11242.58"
"1294","11257.42"
"1295","11297.33"
"1296","11345.42"
"1297","11385.29"
"1298","11414.76"
"1299","11445.2"
"1300","11488.22"
"1301","11541.45"
"1302","11582.52"
"1303","11587.63"
"1304","11548.61"
"1305","11491.21"
"1306","11445.57"
"1307","11432.61"
"1308","11442.58"
"1309","11459.37"
"1310","11469.34"
"1311","11471.35"
"1312","11468.27"
"1313","11462.32"
"1314","11450.45"
"1315","11427.1"
"1316","11387.99"
"1317","11345.28"
"1318","11322.62"
"1319","11342.63"
"1320","11398.2"
"1321","11452.64"
"1322","11468.58"
"1323","11438.21"
"1324","11395.33"
"1325","11376.68"
"1326","11396.41"
"1327","11423.56"
"1328","11421.86"
"1329","11373.19"
"1330","11310.98"
"1331","11277.76"
"1332","11303.04"
"1333","11363.17"
"1334","11420.91"
"1335","11444.43"
"1336","11433.39"
"1337","11398.91"
"1338","11352.27"
"1339","11306.14"
"1340","11273.85"
"1341","11267.4"
"1342","11281.62"
"1343","11299.63"
"1344","11305.19"
"1345","11298.25"
"1346","11293.44"
"1347","11305.48"
"1348","11335.25"
"1349","11367"
"1350","11384.22"
"1351","11382.08"
"1352","11374.04"
"1353","11375.11"
"1354","11389.22"
"1355","11397.78"
"1356","11379.4"
"1357","11326.39"
"1358","11267.77"
"1359","11238.67"
"1360","11259.92"
"1361","11302"
"1362","11324.27"
"1363","11298.02"
"1364","11249.49"
"1365","11220.72"
"1366","11244.7"
"1367","11300.31"
"1368","11346.39"
"1369","11347.34"
"1370","11311.38"
"1371","11267.2"
"1372","11241.15"
"1373","11234.54"
"1374","11234.08"
"1375","11227.29"
"1376","11215.03"
"1377","11207.65"
"1378","11215.11"
"1379","11236.05"
"1380","11259.3"
"1381","11273.59"
"1382","11272.82"
"1383","11256.29"
"1384","11223.78"
"1385","11183.94"
"1386","11156.32"
"1387","11160.78"
"1388","11196.75"
"1389","11233.83"
"1390","11239.54"
"1391","11205.27"
"1392","11163.28"
"1393","11149.72"
"1394","11179.47"
"1395","11224.83"
"1396","11253.02"
"1397","11246.66"
"1398","11224.05"
"1399","11208.59"
"1400","11212.63"
"1401","11218.82"
"1402","11204.9"
"1403","11160.89"
"1404","11114.79"
"1405","11101.91"
"1406","11141.72"
"1407","11197.98"
"1408","11222.17"
"1409","11182.48"
"1410","11113.33"
"1411","11065.63"
"1412","11077"
"1413","11125.79"
"1414","11173.91"
"1415","11190.72"
"1416","11182.66"
"1417","11167.59"
"1418","11160.15"
"1419","11157.26"
"1420","11149.89"
"1421","11132.23"
"1422","11117.74"
"1423","11126.9"
"1424","11175.1"
"1425","11244.71"
"1426","11305.14"
"1427","11330.5"
"1428","11327.44"
"1429","11316.29"
"1430","11315.97"
"1431","11334.79"
"1432","11376.34"
"1433","11441.91"
"1434","11515.22"
"1435","11571.83"
"1436","11591.04"
"1437","11582.18"
"1438","11568.92"
"1439","11572.55"
"1440","11594"
"1441","11624.23"
"1442","11653.67"
"1443","11669.24"
"1444","11656.11"
"1445","11603.54"
"1446","11535.86"
"1447","11494.99"
"1448","11516.2"
"1449","11577.06"
"1450","11626.15"
"1451","11618.36"
"1452","11563.25"
"1453","11497.56"
"1454","11454.33"
"1455","11433.87"
"1456","11420.6"
"1457","11400.91"
"1458","11378.29"
"1459","11364.34"
"1460","11367.98"
"1461","11377.41"
"1462","11371.27"
"1463","11331.69"
"1464","11266.29"
"1465","11193.93"
"1466","11131.59"
"1467","11083.05"
"1468","11046.61"
"1469","11020.45"
"1470","11002.36"
"1471","10989.94"
"1472","10980.32"
"1473","10967.7"
"1474","10945.27"
"1475","10908.43"
"1476","10864.66"
"1477","10825.51"
"1478","10800.59"
"1479","10790.13"
"1480","10791.45"
"1481","10801"
"1482","10811.29"
"1483","10813.74"
"1484","10802.49"
"1485","10782.46"
"1486","10761.23"
"1487","10744.14"
"1488","10728.74"
"1489","10710.85"
"1490","10688.63"
"1491","10667.4"
"1492","10653.84"
"1493","10650.61"
"1494","10649.57"
"1495","10640.77"
"1496","10619.35"
"1497","10592.23"
"1498","10568.02"
"1499","10554.61"
"1500","10558.44"
"1501","10585.67"
"1502","10630.5"
"1503","10666.63"
"1504","10666.13"
"1505","10625.25"
"1506","10575.85"
"1507","10552.02"
"1508","10563.07"
"1509","10587.39"
"1510","10602.13"
"1511","10603.32"
"1512","10606.9"
"1513","10628.72"
"1514","10664.6"
"1515","10692.66"
"1516","10691.82"
"1517","10660.66"
"1518","10612.23"
"1519","10559.75"
"1520","10514.47"
"1521","10486.5"
"1522","10483.91"
"1523","10498.29"
"1524","10513.21"
"1525","10514.7"
"1526","10505.05"
"1527","10492.83"
"1528","10483.9"
"1529","10470.62"
"1530","10441.2"
"1531","10391.46"
"1532","10345.9"
"1533","10335.79"
"1534","10375.51"
"1535","10430.25"
"1536","10456.4"
"1537","10430.85"
"1538","10376.25"
"1539","10321.36"
"1540","10286.75"
"1541","10278.85"
"1542","10302.42"
"1543","10349.85"
"1544","10397.28"
"1545","10420.55"
"1546","10416.84"
"1547","10404.88"
"1548","10403.24"
"1549","10412.42"
"1550","10419.04"
"1551","10411.06"
"1552","10394.29"
"1553","10384.85"
"1554","10396.32"
"1555","10423.05"
"1556","10451.23"
"1557","10467.87"
"1558","10464.6"
"1559","10434.45"
"1560","10377.42"
"1561","10317.88"
"1562","10285.53"
"1563","10293.67"
"1564","10315.1"
"1565","10316.64"
"1566","10284.92"
"1567","10241.5"
"1568","10211.13"
"1569","10203.74"
"1570","10210.52"
"1571","10221.58"
"1572","10229.8"
"1573","10230.56"
"1574","10219.92"
"1575","10200.58"
"1576","10179.57"
"1577","10164.33"
"1578","10164.97"
"1579","10192.83"
"1580","10252.49"
"1581","10316.23"
"1582","10346.58"
"1583","10321.7"
"1584","10269.37"
"1585","10227.06"
"1586","10217.17"
"1587","10230.26"
"1588","10252.9"
"1589","10274.07"
"1590","10286.17"
"1591","10282.37"
"1592","10267.05"
"1593","10255.45"
"1594","10261.02"
"1595","10271.42"
"1596","10257.59"
"1597","10197.88"
"1598","10124.16"
"1599","10091"
"1600","10134.04"
"1601","10207"
"1602","10241.68"
"1603","10203.4"
"1604","10147.17"
"1605","10142.29"
"1606","10210.68"
"1607","10293.68"
"1608","10326.69"
"1609","10299.14"
"1610","10259.6"
"1611","10256.01"
"1612","10287.45"
"1613","10318.54"
"1614","10318.57"
"1615","10296.2"
"1616","10277.53"
"1617","10281.46"
"1618","10295.72"
"1619","10299.78"
"1620","10282.83"
"1621","10258.65"
"1622","10244.66"
"1623","10245.85"
"1624","10248.14"
"1625","10236.78"
"1626","10218.2"
"1627","10218.93"
"1628","10261.78"
"1629","10323.15"
"1630","10352.43"
"1631","10312.48"
"1632","10242.7"
"1633","10208.82"
"1634","10249.27"
"1635","10317.65"
"1636","10351.46"
"1637","10323.71"
"1638","10271.31"
"1639","10236.75"
"1640","10235.03"
"1641","10251.77"
"1642","10271.73"
"1643","10285.89"
"1644","10289.16"
"1645","10278.84"
"1646","10265.88"
"1647","10266.12"
"1648","10288.33"
"1649","10319.36"
"1650","10341.86"
"1651","10348.25"
"1652","10347.78"
"1653","10351.16"
"1654","10363.71"
"1655","10385.4"
"1656","10415.09"
"1657","10443.01"
"1658","10454.54"
"1659","10436.73"
"1660","10385.29"
"1661","10298.58"
"1662","10190.39"
"1663","10113.74"
"1664","10126.46"
"1665","10225.51"
"1666","10323.73"
"1667","10333.76"
"1668","10258.44"
"1669","10169.73"
"1670","10131.49"
"1671","10141.16"
"1672","10168.76"
"1673","10188.16"
"1674","10186.38"
"1675","10153.33"
"1676","10093.87"
"1677","10038.58"
"1678","10018.89"
"1679","10030.92"
"1680","10038.27"
"1681","10008.71"
"1682","9954.626"
"1683","9910.157"
"1684","9899.271"
"1685","9905.973"
"1686","9904.688"
"1687","9881.07"
"1688","9842.238"
"1689","9797.873"
"1690","9760.763"
"1691","9746.763"
"1692","9768.283"
"1693","9806.718"
"1694","9827.644"
"1695","9806.42"
"1696","9757.404"
"1697","9704.488"
"1698","9666.151"
"1699","9650.671"
"1700","9664.426"
"1701","9697.348"
"1702","9723.776"
"1703","9721.537"
"1704","9700.953"
"1705","9687.686"
"1706","9697.366"
"1707","9710.234"
"1708","9699.063"
"1709","9657.103"
"1710","9611.196"
"1711","9589.922"
"1712","9598.557"
"1713","9623.559"
"1714","9650.896"
"1715","9667.092"
"1716","9658.861"
"1717","9621.092"
"1718","9571.065"
"1719","9529.681"
"1720","9509.887"
"1721","9514.42"
"1722","9544.206"
"1723","9587.626"
"1724","9625.344"
"1725","9640.735"
"1726","9629.696"
"1727","9591.661"
"1728","9537.839"
"1729","9502.052"
"1730","9518.553"
"1731","9579.77"
"1732","9640.639"
"1733","9661.687"
"1734","9650.077"
"1735","9632.019"
"1736","9624.528"
"1737","9619.08"
"1738","9603.205"
"1739","9579.231"
"1740","9567.604"
"1741","9586.336"
"1742","9619.234"
"1743","9631.025"
"1744","9599.188"
"1745","9549.724"
"1746","9519.666"
"1747","9524.131"
"1748","9543.66"
"1749","9556.896"
"1750","9557.987"
"1751","9552.01"
"1752","9543.784"
"1753","9535.848"
"1754","9530.06"
"1755","9526.792"
"1756","9523.579"
"1757","9517.987"
"1758","9513.637"
"1759","9519.18"
"1760","9537.161"
"1761","9534.917"
"1762","9467.685"
"1763","9335.67"
"1764","9237.262"
"1765","9277.548"
"1766","9432.255"
"1767","9557.644"
"1768","9533.708"
"1769","9416.944"
"1770","9331.262"
"1771","9351.657"
"1772","9438.279"
"1773","9535.501"
"1774","9602.219"
"1775","9611.329"
"1776","9544.901"
"1777","9440.044"
"1778","9355.421"
"1779","9329.889"
"1780","9355.701"
"1781","9417.831"
"1782","9488.689"
"1783","9528.789"
"1784","9507.202"
"1785","9448.219"
"1786","9396.78"
"1787","9379.666"
"1788","9383.614"
"1789","9390.623"
"1790","9393.603"
"1791","9394.977"
"1792","9397.132"
"1793","9400.47"
"1794","9404.711"
"1795","9408.187"
"1796","9406.518"
"1797","9395.89"
"1798","9385.099"
"1799","9392.523"
"1800","9428.509"
"1801","9466.337"
"1802","9469.321"
"1803","9430.239"
"1804","9389.014"
"1805","9385.768"
"1806","9415.363"
"1807","9444.724"
"1808","9449.108"
"1809","9434.345"
"1810","9412.816"
"1811","9394.172"
"1812","9384.634"
"1813","9387.949"
"1814","9390.178"
"1815","9369.073"
"1816","9317.631"
"1817","9267.6"
"1818","9255.204"
"1819","9283.574"
"1820","9325.19"
"1821","9354.561"
"1822","9363.477"
"1823","9349.473"
"1824","9316.234"
"1825","9278.243"
"1826","9250.453"
"1827","9240.006"
"1828","9249.035"
"1829","9275.8"
"1830","9305.61"
"1831","9321.396"
"1832","9319.224"
"1833","9310.589"
"1834","9306.723"
"1835","9310.936"
"1836","9323.267"
"1837","9341.29"
"1838","9357.415"
"1839","9363.718"
"1840","9357.035"
"1841","9337.719"
"1842","9309.279"
"1843","9287.029"
"1844","9288.74"
"1845","9316.3"
"1846","9351.563"
"1847","9376.316"
"1848","9381.368"
"1849","9361.462"
"1850","9322.915"
"1851","9296.562"
"1852","9312.95"
"1853","9354.93"
"1854","9370.911"
"1855","9328.213"
"1856","9265.536"
"1857","9236.506"
"1858","9255.354"
"1859","9290.867"
"1860","9314.803"
"1861","9332.827"
"1862","9363.225"
"1863","9404.193"
"1864","9417.619"
"1865","9367.873"
"1866","9286.199"
"1867","9243.745"
"1868","9279.172"
"1869","9337.688"
"1870","9351.199"
"1871","9312.692"
"1872","9269.928"
"1873","9259.803"
"1874","9262.495"
"1875","9243.326"
"1876","9198.289"
"1877","9163.516"
"1878","9170.82"
"1879","9204.044"
"1880","9227.327"
"1881","9222.196"
"1882","9202.968"
"1883","9187.047"
"1884","9185.979"
"1885","9207.855"
"1886","9251.729"
"1887","9292.737"
"1888","9303.784"
"1889","9286.838"
"1890","9267.511"
"1891","9262.943"
"1892","9255.891"
"1893","9222.27"
"1894","9171.266"
"1895","9148.202"
"1896","9185.287"
"1897","9237.591"
"1898","9236.584"
"1899","9172.171"
"1900","9116.988"
"1901","9136.129"
"1902","9197.864"
"1903","9229.909"
"1904","9202.774"
"1905","9164.689"
"1906","9165.67"
"1907","9195.866"
"1908","9213.307"
"1909","9194.453"
"1910","9158.334"
"1911","9128.975"
"1912","9119.261"
"1913","9134.714"
"1914","9173.699"
"1915","9215.025"
"1916","9235.465"
"1917","9233.746"
"1918","9225.95"
"1919","9220.967"
"1920","9201.892"
"1921","9148.074"
"1922","9072.278"
"1923","9018.055"
"1924","9014.734"
"1925","9030.96"
"1926","9022.25"
"1927","8990.299"
"1928","8985.089"
"1929","9041.854"
"1930","9119.106"
"1931","9155.412"
"1932","9139.488"
"1933","9118.17"
"1934","9130.035"
"1935","9155.837"
"1936","9159.05"
"1937","9128.651"
"1938","9085.586"
"1939","9051.519"
"1940","9040.717"
"1941","9064.474"
"1942","9111.813"
"1943","9142.329"
"1944","9124.794"
"1945","9091.75"
"1946","9096.972"
"1947","9142.648"
"1948","9160.62"
"1949","9096.691"
"1950","9007.064"
"1951","8985.846"
"1952","9053.058"
"1953","9127.039"
"1954","9133.454"
"1955","9083.162"
"1956","9017.009"
"1957","8965.59"
"1958","8945.592"
"1959","8966.255"
"1960","9000.907"
"1961","9011.062"
"1962","8979.916"
"1963","8918.662"
"1964","8843.397"
"1965","8785.762"
"1966","8781.325"
"1967","8826.661"
"1968","8871.301"
"1969","8873.064"
"1970","8842.888"
"1971","8807.404"
"1972","8793.03"
"1973","8825.926"
"1974","8913.238"
"1975","8982.165"
"1976","8943.502"
"1977","8815.841"
"1978","8723.898"
"1979","8752.354"
"1980","8822.915"
"1981","8825.883"
"1982","8756.6"
"1983","8700.5"
"1984","8713.817"
"1985","8753.545"
"1986","8761.317"
"1987","8731.004"
"1988","8694.542"
"1989","8671.285"
"1990","8646.279"
"1991","8602.288"
"1992","8555.244"
"1993","8541.044"
"1994","8573.845"
"1995","8622.447"
"1996","8653.134"
"1997","8658"
"1998","8641.745"
"1999","8612.59"
"2000","8584.348"
"2001","8569.524"
"2002","8569.082"
"2003","8579.458"
"2004","8591.927"
"2005","8591.173"
"2006","8566.75"
"2007","8532.638"
"2008","8509.222"
"2009","8502.963"
"2010","8506.647"
"2011","8512.564"
"2012","8513.313"
"2013","8502.278"
"2014","8483.236"
"2015","8467.577"
"2016","8457.536"
"2017","8433.043"
"2018","8376.048"
"2019","8317.128"
"2020","8312.377"
"2021","8375.943"
"2022","8450.194"
"2023","8476.174"
"2024","8430.344"
"2025","8303.884"
"2026","8138.84"
"2027","8038.1"
"2028","8074.701"
"2029","8187.061"
"2030","8283.323"
"2031","8331.25"
"2032","8348.02"
"2033","8349.192"
"2034","8342.137"
"2035","8332.729"
"2036","8324.819"
"2037","8321.046"
"2038","8316.336"
"2039","8292.568"
"2040","8236.888"
"2041","8174.407"
"2042","8143.005"
"2043","8155.55"
"2044","8197.189"
"2045","8249.512"
"2046","8286.942"
"2047","8284.998"
"2048","8255.496"
"2049","8235.808"
"2050","8236.564"
"2051","8210.797"
"2052","8116.872"
"2053","8004.203"
"2054","7960.048"
"2055","8000.664"
"2056","8050.709"
"2057","8050.378"
"2058","8027.28"
"2059","8027.807"
"2060","8048.813"
"2061","8048.673"
"2062","8010.343"
"2063","7974.842"
"2064","7980.693"
"2065","7987.033"
"2066","7919.136"
"2067","7789.796"
"2068","7726.043"
"2069","7814.427"
"2070","7950.287"
"2071","7991.052"
"2072","7931.691"
"2073","7869.543"
"2074","7861.259"
"2075","7872.465"
"2076","7863.972"
"2077","7841.705"
"2078","7829.369"
"2079","7830.77"
"2080","7826.777"
"2081","7808.074"
"2082","7802.197"
"2083","7840.035"
"2084","7903.996"
"2085","7946.493"
"2086","7937.995"
"2087","7880.5"
"2088","7784.431"
"2089","7687.199"
"2090","7632.813"
"2091","7626.394"
"2092","7638.569"
"2093","7647.76"
"2094","7654.299"
"2095","7659.622"
"2096","7649.498"
"2097","7603.576"
"2098","7532.589"
"2099","7484.663"
"2100","7494.19"
"2101","7542.126"
"2102","7598.274"
"2103","7632.711"
"2104","7616.137"
"2105","7551.021"
"2106","7489.276"
"2107","7474.541"
"2108","7494.896"
"2109","7523.354"
"2110","7535.324"
"2111","7508.146"
"2112","7441.646"
"2113","7378.945"
"2114","7357.481"
"2115","7355.89"
"2116","7335.153"
"2117","7301.72"
"2118","7302.627"
"2119","7355.767"
"2120","7408.93"
"2121","7408.147"
"2122","7352.711"
"2123","7264.177"
"2124","7187.999"
"2125","7193.794"
"2126","7295.251"
"2127","7358.208"
"2128","7254.84"
"2129","7079.835"
"2130","7021.496"
"2131","7115.046"
"2132","7225.693"
"2133","7252.814"
"2134","7216.856"
"2135","7158.38"
"2136","7110.586"
"2137","7102.186"
"2138","7127.941"
"2139","7143.613"
"2140","7117.438"
"2141","7059.798"
"2142","6991.677"
"2143","6957.995"
"2144","7011.989"
"2145","7115.157"
"2146","7124.545"
"2147","6975.972"
"2148","6841.173"
"2149","6896.84"
"2150","7047.059"
"2151","7078.776"
"2152","6957.651"
"2153","6842.644"
"2154","6832.603"
"2155","6845.729"
"2156","6791.801"
"2157","6719.634"
"2158","6730.92"
"2159","6820.545"
"2160","6879.133"
"2161","6845.189"
"2162","6776.669"
"2163","6736.759"
"2164","6721.974"
"2165","6706.51"
"2166","6692.345"
"2167","6704.714"
"2168","6741.459"
"2169","6746.335"
"2170","6676.522"
"2171","6582.517"
"2172","6537.823"
"2173","6554.809"
"2174","6603.151"
"2175","6651.769"
"2176","6669.836"
"2177","6634.8"
"2178","6554.796"
"2179","6447.909"
"2180","6358.91"
"2181","6345.728"
"2182","6411.647"
"2183","6493.53"
"2184","6535.928"
"2185","6515.878"
"2186","6423.484"
"2187","6299.762"
"2188","6204.974"
"2189","6166.002"
"2190","6179.399"
"2191","6232.782"
"2192","6298.42"
"2193","6348.118"
"2194","6360.354"
"2195","6317.515"
"2196","6226.406"
"2197","6109.805"
"2198","5999.262"
"2199","5937.922"
"2200","5950.636"
"2201","6004.271"
"2202","6056.685"
"2203","6080.133"
"2204","6054.516"
"2205","5989.695"
"2206","5923.203"
"2207","5890.43"
"2208","5920.39"
"2209","6021.357"
"2210","6114.801"
"2211","6108.714"
"2212","6018.468"
"2213","5921.958"
"2214","5852.471"
"2215","5787.719"
"2216","5725.746"
"2217","5725.269"
"2218","5832.563"
"2219","5966.622"
"2220","6007.655"
"2221","5933.648"
"2222","5795.984"
"2223","5667.176"
"2224","5648.648"
"2225","5781.626"
"2226","5909.558"
"2227","5867.045"
"2228","5703.341"
"2229","5554.937"
"2230","5471.887"
"2231","5429.28"
"2232","5418.461"
"2233","5462.974"
"2234","5564.517"
"2235","5635.35"
"2236","5587.452"
"2237","5490.186"
"2238","5480.333"
"2239","5547.562"
"2240","5544.604"
"2241","5412.893"
"2242","5265.423"
"2243","5208.312"
"2244","5252.409"
"2245","5375.754"
"2246","5471.455"
"2247","5399.365"
"2248","5184.967"
"2249","5008.045"
"2250","4956.757"
"2251","4943.98"
"2252","4893.155"
"2253","4831.879"
"2254","4804.311"
"2255","4802.6"
"2256","4796.234"
"2257","4774.826"
"2258","4745.451"
"2259","4702.506"
"2260","4618.756"
"2261","4490.521"
"2262","4395.401"
"2263","4405.921"
"2264","4455.393"
"2265","4430.487"
"2266","4349.854"
"2267","4329.816"
"2268","4389.468"
"2269","4409.693"
"2270","4318.042"
"2271","4190.942"
"2272","4106.681"
"2273","4028.555"
"2274","3893.292"
"2275","3749.124"
"2276","3707.877"
"2277","3764.385"
"2278","3784.194"
"2279","3691.827"
"2280","3543.262"
"2281","3410.792"
"2282","3368.432"
"2283","3467.197"
"2284","3582.242"
"2285","3522.376"
"2286","3313.53"
"2287","3155.688"
"2288","3107.812"
"2289","3018.972"
"2290","2818.542"
"2291","2686.766"
"2292","2778.183"
"2293","2922.805"
"2294","2879.625"
"2295","2682.549"
"2296","2514.203"
"2297","2456.809"
"2298","2492.826"
"2299","2570.495"
"2300","2587.426"
