,"Scan 01027"
"400","14631.33"
"401","14604.96"
"402","14585.77"
"403","14567.99"
"404","14545.85"
"405","14514.41"
"406","14475.06"
"407","14432.46"
"408","14391.25"
"409","14355.75"
"410","14326.93"
"411","14303.35"
"412","14283.56"
"413","14266.33"
"414","14255.13"
"415","14257.75"
"416","14282.1"
"417","14335.69"
"418","14413.31"
"419","14494.1"
"420","14556.41"
"421","14578.95"
"422","14556.52"
"423","14509.71"
"424","14461.32"
"425","14433.89"
"426","14438.21"
"427","14460.64"
"428","14484.55"
"429","14493.47"
"430","14478.3"
"431","14449.77"
"432","14421.81"
"433","14408.26"
"434","14417.33"
"435","14438.05"
"436","14455.36"
"437","14454.33"
"438","14424.37"
"439","14373.66"
"440","14315.44"
"441","14262.88"
"442","14227.23"
"443","14209.87"
"444","14208.79"
"445","14222.01"
"446","14246.77"
"447","14275.13"
"448","14297"
"449","14302.38"
"450","14283.08"
"451","14245.46"
"452","14203.04"
"453","14169.27"
"454","14155.98"
"455","14159.42"
"456","14166.91"
"457","14165.75"
"458","14144.54"
"459","14106.75"
"460","14065.72"
"461","14034.83"
"462","14026.23"
"463","14034.82"
"464","14042.71"
"465","14031.79"
"466","13985.42"
"467","13910.16"
"468","13831.89"
"469","13776.93"
"470","13770.04"
"471","13808.6"
"472","13864.92"
"473","13910.53"
"474","13918.19"
"475","13884.2"
"476","13828.2"
"477","13770.73"
"478","13731.72"
"479","13719.49"
"480","13730"
"481","13758.65"
"482","13800.77"
"483","13848.98"
"484","13892.9"
"485","13922.02"
"486","13926.18"
"487","13902.8"
"488","13858.15"
"489","13798.96"
"490","13731.93"
"491","13663.45"
"492","13599.6"
"493","13546.42"
"494","13509.72"
"495","13489.28"
"496","13477.65"
"497","13466.96"
"498","13449.5"
"499","13421.21"
"500","13382.45"
"501","13333.79"
"502","13275.9"
"503","13211.25"
"504","13144.48"
"505","13080.33"
"506","13023.47"
"507","12976.75"
"508","12940.97"
"509","12916.76"
"510","12904.7"
"511","12902.28"
"512","12903.66"
"513","12902.86"
"514","12894.02"
"515","12874.41"
"516","12844.55"
"517","12805.08"
"518","12756.85"
"519","12705.05"
"520","12659.11"
"521","12628.59"
"522","12622.42"
"523","12638.41"
"524","12664.32"
"525","12687.65"
"526","12696.42"
"527","12686.58"
"528","12660.59"
"529","12621.09"
"530","12570.96"
"531","12516.39"
"532","12466.04"
"533","12428.58"
"534","12411.79"
"535","12413.44"
"536","12424.81"
"537","12437.09"
"538","12441.97"
"539","12435.18"
"540","12414.76"
"541","12378.83"
"542","12326.65"
"543","12267.07"
"544","12213.59"
"545","12179.62"
"546","12175.78"
"547","12194.14"
"548","12219.21"
"549","12235.58"
"550","12231.2"
"551","12212.09"
"552","12190.33"
"553","12177.95"
"554","12183.34"
"555","12199.07"
"556","12213.43"
"557","12214.78"
"558","12196.05"
"559","12166.1"
"560","12137.21"
"561","12121.59"
"562","12125.08"
"563","12136.1"
"564","12140.17"
"565","12122.9"
"566","12080.24"
"567","12030.18"
"568","11993.51"
"569","11990.73"
"570","12027.76"
"571","12086.13"
"572","12145.09"
"573","12184.28"
"574","12194.02"
"575","12178.52"
"576","12142.89"
"577","12092.33"
"578","12034.58"
"579","11979.85"
"580","11938.47"
"581","11919.96"
"582","11923.34"
"583","11939.57"
"584","11959.51"
"585","11974.71"
"586","11983.68"
"587","11988.82"
"588","11992.55"
"589","11996.65"
"590","11998.4"
"591","11993.26"
"592","11976.67"
"593","11946.42"
"594","11911.03"
"595","11882.08"
"596","11871.15"
"597","11883.96"
"598","11907.66"
"599","11925.71"
"600","11921.7"
"601","11888.42"
"602","11838.94"
"603","11789.04"
"604","11754.25"
"605","11740.32"
"606","11738.01"
"607","11736.81"
"608","11726.69"
"609","11708.32"
"610","11693.77"
"611","11695.66"
"612","11725.31"
"613","11777.05"
"614","11832.73"
"615","11873.96"
"616","11884.9"
"617","11870.01"
"618","11843.75"
"619","11820.62"
"620","11812.08"
"621","11814.38"
"622","11818.93"
"623","11817.15"
"624","11802.52"
"625","11775.03"
"626","11735.97"
"627","11686.64"
"628","11630.79"
"629","11577.13"
"630","11534.93"
"631","11513.25"
"632","11514.73"
"633","11533.65"
"634","11563.78"
"635","11598.86"
"636","11631.63"
"637","11654.02"
"638","11657.96"
"639","11637.12"
"640","11600.25"
"641","11563.87"
"642","11544.5"
"643","11553.76"
"644","11579.06"
"645","11600.35"
"646","11597.66"
"647","11561.49"
"648","11512.32"
"649","11475.9"
"650","11477.63"
"651","11523.8"
"652","11588.41"
"653","11642.42"
"654","11657.94"
"655","11632.52"
"656","11589.48"
"657","11553.2"
"658","11545.9"
"659","11567.26"
"660","11603.43"
"661","11640.41"
"662","11665.78"
"663","11675.7"
"664","11669.29"
"665","11645.67"
"666","11606.87"
"667","11563.48"
"668","11527.69"
"669","11511.52"
"670","11518.36"
"671","11537.43"
"672","11556.68"
"673","11564.47"
"674","11557.38"
"675","11539.52"
"676","11515.35"
"677","11489.05"
"678","11462.95"
"679","11438.36"
"680","11416.59"
"681","11398.88"
"682","11386.29"
"683","11379.79"
"684","11380.36"
"685","11388.82"
"686","11405.58"
"687","11431.03"
"688","11465.41"
"689","11504.71"
"690","11539.83"
"691","11561.4"
"692","11561.16"
"693","11543.58"
"694","11521.28"
"695","11506.96"
"696","11510.6"
"697","11527.74"
"698","11549.21"
"699","11565.9"
"700","11571.51"
"701","11566.97"
"702","11554.27"
"703","11535.48"
"704","11513.53"
"705","11492.49"
"706","11476.53"
"707","11469.32"
"708","11469.16"
"709","11470.76"
"710","11468.79"
"711","11459.85"
"712","11450.31"
"713","11449.7"
"714","11467.47"
"715","11505.93"
"716","11550.44"
"717","11583.97"
"718","11590.05"
"719","11568.55"
"720","11538.15"
"721","11518.5"
"722","11526.9"
"723","11557.43"
"724","11591.13"
"725","11608.96"
"726","11597.66"
"727","11567.71"
"728","11535.65"
"729","11517.9"
"730","11520.75"
"731","11532"
"732","11537.44"
"733","11523.76"
"734","11492.97"
"735","11460.39"
"736","11441.77"
"737","11449.91"
"738","11478.68"
"739","11514.41"
"740","11543.41"
"741","11556.33"
"742","11555.45"
"743","11544.97"
"744","11529.1"
"745","11511.76"
"746","11496.55"
"747","11487.04"
"748","11486.5"
"749","11495.24"
"750","11511.98"
"751","11535.43"
"752","11563.66"
"753","11592.45"
"754","11617.04"
"755","11632.77"
"756","11638.5"
"757","11638.56"
"758","11637.72"
"759","11640.48"
"760","11647.89"
"761","11658.65"
"762","11671.42"
"763","11684.39"
"764","11693.63"
"765","11694.59"
"766","11682.83"
"767","11658.72"
"768","11631.28"
"769","11610.4"
"770","11605.47"
"771","11618.61"
"772","11646.44"
"773","11685.47"
"774","11731.25"
"775","11774.82"
"776","11805.83"
"777","11814.05"
"778","11798.57"
"779","11775.96"
"780","11764.73"
"781","11781.99"
"782","11824.55"
"783","11873.56"
"784","11909.76"
"785","11918.21"
"786","11904.76"
"787","11881.51"
"788","11860.52"
"789","11848.62"
"790","11843.38"
"791","11841.36"
"792","11839.39"
"793","11837.16"
"794","11836.45"
"795","11839.1"
"796","11845.59"
"797","11850.64"
"798","11847.4"
"799","11829.18"
"800","11796.88"
"801","11763.34"
"802","11742.44"
"803","11746.58"
"804","11772.33"
"805","11806.64"
"806","11836.31"
"807","11851.62"
"808","11854.82"
"809","11850.71"
"810","11844.12"
"811","11839.75"
"812","11842.18"
"813","11855.97"
"814","11884.57"
"815","11922.68"
"816","11960.91"
"817","11989.86"
"818","12003.35"
"819","12003.33"
"820","11993.06"
"821","11975.71"
"822","11953.21"
"823","11926.38"
"824","11895.97"
"825","11863.73"
"826","11836.6"
"827","11823.18"
"828","11832.01"
"829","11864.3"
"830","11908.69"
"831","11952.6"
"832","11984.5"
"833","12004.37"
"834","12019.38"
"835","12036.79"
"836","12060.92"
"837","12086.69"
"838","12107.12"
"839","12115.49"
"840","12111.8"
"841","12103.4"
"842","12098"
"843","12101.31"
"844","12107"
"845","12104.19"
"846","12082.15"
"847","12041.3"
"848","12002.83"
"849","11990.21"
"850","12024.02"
"851","12092.25"
"852","12162.07"
"853","12200.35"
"854","12187.07"
"855","12143.63"
"856","12099.59"
"857","12083.49"
"858","12099.85"
"859","12128.58"
"860","12148.52"
"861","12143.49"
"862","12123.96"
"863","12109.14"
"864","12118.03"
"865","12154.93"
"866","12200.93"
"867","12235.05"
"868","12239.19"
"869","12220.14"
"870","12197.6"
"871","12191.33"
"872","12211.71"
"873","12246.51"
"874","12280.18"
"875","12298.18"
"876","12300.28"
"877","12297.22"
"878","12300.02"
"879","12316.09"
"880","12339.94"
"881","12363.16"
"882","12377.6"
"883","12381.88"
"884","12381.92"
"885","12384"
"886","12392.7"
"887","12403.84"
"888","12410.39"
"889","12405.43"
"890","12388.92"
"891","12370.84"
"892","12361.98"
"893","12371.56"
"894","12397.17"
"895","12431.16"
"896","12465.88"
"897","12495.04"
"898","12514.95"
"899","12522.24"
"900","12514.47"
"901","12498.71"
"902","12487.62"
"903","12493.93"
"904","12522.76"
"905","12560.18"
"906","12589.31"
"907","12594.6"
"908","12579.26"
"909","12560.28"
"910","12554.99"
"911","12574.38"
"912","12609.43"
"913","12647.24"
"914","12675.33"
"915","12690.31"
"916","12696.83"
"917","12699.82"
"918","12702.04"
"919","12697.96"
"920","12680.05"
"921","12641.32"
"922","12587.86"
"923","12539.39"
"924","12516.23"
"925","12533.17"
"926","12579.97"
"927","12639.4"
"928","12694.43"
"929","12735.23"
"930","12760.39"
"931","12769"
"932","12760.83"
"933","12739.2"
"934","12708.53"
"935","12673.31"
"936","12638.75"
"937","12611.06"
"938","12596.53"
"939","12599.37"
"940","12612.45"
"941","12624.72"
"942","12625.38"
"943","12613.81"
"944","12603.29"
"945","12608.08"
"946","12638.68"
"947","12683.94"
"948","12724.9"
"949","12742.88"
"950","12731.09"
"951","12699.42"
"952","12658.95"
"953","12620.08"
"954","12589.16"
"955","12571.1"
"956","12570.6"
"957","12584.68"
"958","12599.72"
"959","12601.32"
"960","12579.48"
"961","12549.29"
"962","12534.77"
"963","12559.39"
"964","12625.28"
"965","12706.17"
"966","12773.83"
"967","12804.82"
"968","12801.34"
"969","12774.15"
"970","12733.98"
"971","12690.71"
"972","12653.17"
"973","12630.11"
"974","12627.21"
"975","12635.15"
"976","12640.06"
"977","12628.53"
"978","12599.9"
"979","12567.84"
"980","12546.78"
"981","12547.55"
"982","12565.52"
"983","12592.02"
"984","12618.43"
"985","12638.31"
"986","12647.35"
"987","12641.33"
"988","12619.46"
"989","12593.4"
"990","12577.55"
"991","12585.43"
"992","12614.56"
"993","12649.1"
"994","12672.76"
"995","12677.03"
"996","12676.3"
"997","12689.2"
"998","12732.32"
"999","12796.48"
"1000","12854.54"
"1001","12879.06"
"1002","12856.12"
"1003","12803.75"
"1004","12744.62"
"1005","12701.38"
"1006","12692.59"
"1007","12709.09"
"1008","12730.33"
"1009","12735.99"
"1010","12721.14"
"1011","12702.85"
"1012","12699.94"
"1013","12726.46"
"1014","12770.6"
"1015","12811.82"
"1016","12830.14"
"1017","12824.45"
"1018","12815.79"
"1019","12826.49"
"1020","12871.08"
"1021","12931.15"
"1022","12979.58"
"1023","12990.54"
"1024","12964.45"
"1025","12926.06"
"1026","12901.02"
"1027","12906.82"
"1028","12935.1"
"1029","12972.42"
"1030","13006.09"
"1031","13032.91"
"1032","13056.35"
"1033","13080.03"
"1034","13104.55"
"1035","13123.7"
"1036","13130.3"
"1037","13118.52"
"1038","13093.93"
"1039","13067.88"
"1040","13051.67"
"1041","13049.62"
"1042","13054.95"
"1043","13059.84"
"1044","13058.39"
"1045","13055.27"
"1046","13058.79"
"1047","13076.91"
"1048","13108.16"
"1049","13140.71"
"1050","13162.17"
"1051","13163.86"
"1052","13150.09"
"1053","13128.04"
"1054","13104.66"
"1055","13083.67"
"1056","13066.42"
"1057","13054.22"
"1058","13049.04"
"1059","13054.31"
"1060","13073.64"
"1061","13109.16"
"1062","13151.82"
"1063","13187.5"
"1064","13202.34"
"1065","13195.5"
"1066","13183.67"
"1067","13184.78"
"1068","13211.17"
"1069","13251.52"
"1070","13288.31"
"1071","13304.91"
"1072","13299.89"
"1073","13284.08"
"1074","13268.65"
"1075","13260.43"
"1076","13256.1"
"1077","13250.89"
"1078","13240.94"
"1079","13229.19"
"1080","13221.71"
"1081","13224.46"
"1082","13237.8"
"1083","13254.85"
"1084","13268.23"
"1085","13272.93"
"1086","13273.06"
"1087","13274.9"
"1088","13284.04"
"1089","13296.59"
"1090","13301.99"
"1091","13289.58"
"1092","13256.84"
"1093","13216.95"
"1094","13184.86"
"1095","13172.63"
"1096","13175.43"
"1097","13182.36"
"1098","13182.73"
"1099","13171"
"1100","13146.71"
"1101","13109.62"
"1102","13064.68"
"1103","13030.72"
"1104","13028.86"
"1105","13075.51"
"1106","13149.14"
"1107","13209.87"
"1108","13218.65"
"1109","13171.51"
"1110","13108.65"
"1111","13073.11"
"1112","13093.37"
"1113","13148.49"
"1114","13207.01"
"1115","13239.89"
"1116","13242.89"
"1117","13226.35"
"1118","13200.72"
"1119","13172.72"
"1120","13143.5"
"1121","13113.77"
"1122","13085.48"
"1123","13065.41"
"1124","13061.57"
"1125","13080.79"
"1126","13116.39"
"1127","13152.81"
"1128","13174.46"
"1129","13173.1"
"1130","13152.24"
"1131","13116.44"
"1132","13072.42"
"1133","13035.96"
"1134","13025.16"
"1135","13055.94"
"1136","13117.04"
"1137","13179.17"
"1138","13213.02"
"1139","13210.23"
"1140","13195.49"
"1141","13196.43"
"1142","13230.46"
"1143","13274.3"
"1144","13294.53"
"1145","13261.52"
"1146","13187.79"
"1147","13112.08"
"1148","13073.06"
"1149","13084.91"
"1150","13126.69"
"1151","13174.74"
"1152","13210.96"
"1153","13236.58"
"1154","13257.01"
"1155","13276.69"
"1156","13291.48"
"1157","13292.62"
"1158","13271.75"
"1159","13234.34"
"1160","13202.46"
"1161","13199.14"
"1162","13234.47"
"1163","13282.91"
"1164","13312.83"
"1165","13299.15"
"1166","13261.27"
"1167","13237.05"
"1168","13262.27"
"1169","13328.69"
"1170","13387.43"
"1171","13388.32"
"1172","13315.19"
"1173","13220.24"
"1174","13163.91"
"1175","13190.84"
"1176","13271.77"
"1177","13355.86"
"1178","13396.05"
"1179","13390.47"
"1180","13366.77"
"1181","13352.67"
"1182","13356.6"
"1183","13360.57"
"1184","13344.65"
"1185","13299.85"
"1186","13249.65"
"1187","13223.49"
"1188","13245.76"
"1189","13306.08"
"1190","13379.57"
"1191","13442.06"
"1192","13482.85"
"1193","13503.04"
"1194","13504.11"
"1195","13490.48"
"1196","13471.66"
"1197","13457.72"
"1198","13455.47"
"1199","13459.55"
"1200","13461.72"
"1201","13455.26"
"1202","13446.22"
"1203","13447.11"
"1204","13469.64"
"1205","13506.35"
"1206","13530.7"
"1207","13515.44"
"1208","13454.38"
"1209","13382.55"
"1210","13339.78"
"1211","13353.83"
"1212","13403.42"
"1213","13454.9"
"1214","13478.3"
"1215","13476.51"
"1216","13469.37"
"1217","13476.08"
"1218","13497.58"
"1219","13516.8"
"1220","13516"
"1221","13492.04"
"1222","13469.03"
"1223","13474.12"
"1224","13522.68"
"1225","13586.74"
"1226","13628.32"
"1227","13615.64"
"1228","13564.12"
"1229","13510.69"
"1230","13490.83"
"1231","13512.31"
"1232","13559.41"
"1233","13615.71"
"1234","13667.11"
"1235","13703.17"
"1236","13713.73"
"1237","13694.07"
"1238","13654.95"
"1239","13609.9"
"1240","13571.25"
"1241","13544.6"
"1242","13533.3"
"1243","13539.98"
"1244","13559.91"
"1245","13583.64"
"1246","13601.91"
"1247","13611.16"
"1248","13614.15"
"1249","13613.95"
"1250","13614.16"
"1251","13619.28"
"1252","13633.95"
"1253","13659.26"
"1254","13684.04"
"1255","13694.45"
"1256","13679.97"
"1257","13651.24"
"1258","13627.27"
"1259","13625.68"
"1260","13646.25"
"1261","13676.64"
"1262","13704.42"
"1263","13721.57"
"1264","13725.14"
"1265","13712.48"
"1266","13685.09"
"1267","13652.35"
"1268","13624.53"
"1269","13609.6"
"1270","13608"
"1271","13618.6"
"1272","13639.08"
"1273","13660.14"
"1274","13669.97"
"1275","13658.33"
"1276","13630.63"
"1277","13601.54"
"1278","13585.34"
"1279","13585.17"
"1280","13593.74"
"1281","13603.36"
"1282","13609.02"
"1283","13609.71"
"1284","13604.76"
"1285","13594.39"
"1286","13581.01"
"1287","13567.37"
"1288","13556.23"
"1289","13550.65"
"1290","13553.68"
"1291","13567.78"
"1292","13591.31"
"1293","13620.96"
"1294","13653.46"
"1295","13685.56"
"1296","13714.07"
"1297","13735.94"
"1298","13751.52"
"1299","13764.36"
"1300","13778.04"
"1301","13791.83"
"1302","13798.76"
"1303","13791.4"
"1304","13767.36"
"1305","13734.99"
"1306","13704.1"
"1307","13682.8"
"1308","13673.6"
"1309","13677.87"
"1310","13694.67"
"1311","13711.23"
"1312","13710.98"
"1313","13680.5"
"1314","13631.44"
"1315","13587.48"
"1316","13570.78"
"1317","13582.5"
"1318","13609.12"
"1319","13637.07"
"1320","13658.46"
"1321","13671.01"
"1322","13672.77"
"1323","13665.44"
"1324","13655.79"
"1325","13650.97"
"1326","13654.16"
"1327","13660.72"
"1328","13665.05"
"1329","13662.91"
"1330","13653.85"
"1331","13638.13"
"1332","13617.29"
"1333","13598.25"
"1334","13589.34"
"1335","13596.12"
"1336","13608.09"
"1337","13608.96"
"1338","13584.58"
"1339","13538.95"
"1340","13485.19"
"1341","13435.94"
"1342","13396.58"
"1343","13367.55"
"1344","13349.41"
"1345","13347.14"
"1346","13369.66"
"1347","13425.42"
"1348","13503.36"
"1349","13569.11"
"1350","13587.35"
"1351","13551.37"
"1352","13499.17"
"1353","13472.52"
"1354","13492.21"
"1355","13536.14"
"1356","13576.91"
"1357","13595.83"
"1358","13597.51"
"1359","13590.42"
"1360","13580.75"
"1361","13566.57"
"1362","13544.19"
"1363","13512.9"
"1364","13485.79"
"1365","13479.91"
"1366","13507.6"
"1367","13552.97"
"1368","13589.67"
"1369","13594.27"
"1370","13566.58"
"1371","13517.24"
"1372","13457.28"
"1373","13401"
"1374","13364.59"
"1375","13363"
"1376","13393.95"
"1377","13442.85"
"1378","13495.03"
"1379","13539.37"
"1380","13567.8"
"1381","13572.51"
"1382","13550.12"
"1383","13501.75"
"1384","13429.23"
"1385","13350.5"
"1386","13303.46"
"1387","13326.42"
"1388","13415.42"
"1389","13504.86"
"1390","13524.79"
"1391","13455.04"
"1392","13360.81"
"1393","13315.38"
"1394","13351.35"
"1395","13419.72"
"1396","13461.86"
"1397","13445.29"
"1398","13398.37"
"1399","13358.09"
"1400","13345.8"
"1401","13340.65"
"1402","13314.82"
"1403","13255.08"
"1404","13193.29"
"1405","13170"
"1406","13209.58"
"1407","13279.4"
"1408","13334.35"
"1409","13341.98"
"1410","13320.35"
"1411","13300.07"
"1412","13304.69"
"1413","13326.21"
"1414","13347.9"
"1415","13355.98"
"1416","13351.54"
"1417","13340.22"
"1418","13326.71"
"1419","13310.53"
"1420","13289.4"
"1421","13262.27"
"1422","13234.94"
"1423","13215.8"
"1424","13212.63"
"1425","13229.43"
"1426","13268.74"
"1427","13330.5"
"1428","13397.28"
"1429","13444.32"
"1430","13451.78"
"1431","13436.1"
"1432","13429.74"
"1433","13459.84"
"1434","13512.14"
"1435","13553.26"
"1436","13554.51"
"1437","13525.44"
"1438","13493.91"
"1439","13484.26"
"1440","13490.94"
"1441","13493.75"
"1442","13475.63"
"1443","13446.89"
"1444","13431.47"
"1445","13449.88"
"1446","13492.47"
"1447","13534.49"
"1448","13553.85"
"1449","13552.46"
"1450","13544.26"
"1451","13541.38"
"1452","13539.82"
"1453","13527.58"
"1454","13494.65"
"1455","13447.81"
"1456","13402.08"
"1457","13370.97"
"1458","13355.49"
"1459","13350.71"
"1460","13351.18"
"1461","13347.82"
"1462","13329.83"
"1463","13288.27"
"1464","13227.7"
"1465","13158.55"
"1466","13091.73"
"1467","13040.88"
"1468","13020.75"
"1469","13040.78"
"1470","13076.23"
"1471","13089.01"
"1472","13049.57"
"1473","12978.92"
"1474","12916.47"
"1475","12894.13"
"1476","12902.95"
"1477","12920.27"
"1478","12926.19"
"1479","12914.55"
"1480","12883.38"
"1481","12834.25"
"1482","12784.47"
"1483","12755.66"
"1484","12762.3"
"1485","12790.45"
"1486","12819.17"
"1487","12831.63"
"1488","12825.56"
"1489","12801.83"
"1490","12764.06"
"1491","12724.33"
"1492","12696.35"
"1493","12688.68"
"1494","12696.12"
"1495","12711.17"
"1496","12725.69"
"1497","12730.03"
"1498","12714.41"
"1499","12680.84"
"1500","12655.07"
"1501","12665.37"
"1502","12714.2"
"1503","12759.47"
"1504","12755.32"
"1505","12692.25"
"1506","12614.31"
"1507","12569.03"
"1508","12572.12"
"1509","12599.53"
"1510","12625.13"
"1511","12634.59"
"1512","12626.07"
"1513","12598.89"
"1514","12563.26"
"1515","12539"
"1516","12544.71"
"1517","12577.19"
"1518","12617.22"
"1519","12645.77"
"1520","12649.34"
"1521","12617.82"
"1522","12545.39"
"1523","12460.99"
"1524","12410.58"
"1525","12430.3"
"1526","12493.38"
"1527","12548.48"
"1528","12554.03"
"1529","12516.63"
"1530","12457.59"
"1531","12394.61"
"1532","12331.56"
"1533","12269.07"
"1534","12212.1"
"1535","12178.24"
"1536","12187.23"
"1537","12240.1"
"1538","12295.96"
"1539","12308.73"
"1540","12270.84"
"1541","12240.92"
"1542","12282.64"
"1543","12395.98"
"1544","12496.84"
"1545","12498.94"
"1546","12403.33"
"1547","12299.71"
"1548","12276.09"
"1549","12333.7"
"1550","12406.75"
"1551","12434.04"
"1552","12419.59"
"1553","12405.27"
"1554","12426.64"
"1555","12471.17"
"1556","12505.74"
"1557","12503.03"
"1558","12465.24"
"1559","12403.66"
"1560","12331.2"
"1561","12266.38"
"1562","12228.91"
"1563","12226.54"
"1564","12237.37"
"1565","12235.16"
"1566","12208.69"
"1567","12173.34"
"1568","12146.92"
"1569","12137.61"
"1570","12141.37"
"1571","12153.39"
"1572","12168.89"
"1573","12183.15"
"1574","12192.34"
"1575","12203.21"
"1576","12229.26"
"1577","12279.67"
"1578","12330.99"
"1579","12345.22"
"1580","12296.44"
"1581","12217.23"
"1582","12157.76"
"1583","12151.91"
"1584","12181.88"
"1585","12219.67"
"1586","12245.19"
"1587","12255.03"
"1588","12248.08"
"1589","12232.83"
"1590","12231.37"
"1591","12265.19"
"1592","12319.2"
"1593","12343.12"
"1594","12291.17"
"1595","12187.69"
"1596","12102.39"
"1597","12094.61"
"1598","12145.97"
"1599","12205.11"
"1600","12229.83"
"1601","12218.08"
"1602","12178.55"
"1603","12124.74"
"1604","12083.03"
"1605","12081.64"
"1606","12124.48"
"1607","12174.16"
"1608","12190.59"
"1609","12170.13"
"1610","12149.1"
"1611","12162.79"
"1612","12205.59"
"1613","12243.08"
"1614","12245.86"
"1615","12225.94"
"1616","12213.62"
"1617","12230.65"
"1618","12261.72"
"1619","12281.66"
"1620","12273.78"
"1621","12242.8"
"1622","12196.87"
"1623","12149.38"
"1624","12121.75"
"1625","12134.84"
"1626","12182.75"
"1627","12234.06"
"1628","12259.36"
"1629","12260.28"
"1630","12256.51"
"1631","12263.23"
"1632","12269.38"
"1633","12254.87"
"1634","12211.09"
"1635","12165.07"
"1636","12150.55"
"1637","12179.18"
"1638","12222.86"
"1639","12250.24"
"1640","12252.38"
"1641","12244.24"
"1642","12240.46"
"1643","12238.98"
"1644","12227.2"
"1645","12197.28"
"1646","12169.81"
"1647","12175.59"
"1648","12227.71"
"1649","12284.26"
"1650","12293.06"
"1651","12242.67"
"1652","12192.07"
"1653","12204.37"
"1654","12275.76"
"1655","12336.24"
"1656","12321.68"
"1657","12253.45"
"1658","12200.99"
"1659","12215.8"
"1660","12259.15"
"1661","12264.95"
"1662","12199.87"
"1663","12113.88"
"1664","12069.12"
"1665","12085.62"
"1666","12125.32"
"1667","12147.8"
"1668","12142.14"
"1669","12119.97"
"1670","12092.68"
"1671","12066.19"
"1672","12044.13"
"1673","12030.21"
"1674","12028.31"
"1675","12042.27"
"1676","12063.65"
"1677","12063.09"
"1678","12011.11"
"1679","11918.43"
"1680","11832.95"
"1681","11797.69"
"1682","11804.26"
"1683","11819.19"
"1684","11817.69"
"1685","11809.28"
"1686","11811.68"
"1687","11828.93"
"1688","11838.98"
"1689","11817.97"
"1690","11768.49"
"1691","11719.28"
"1692","11696.9"
"1693","11699.04"
"1694","11708.68"
"1695","11711.09"
"1696","11701.04"
"1697","11675.69"
"1698","11635.81"
"1699","11589.08"
"1700","11544.05"
"1701","11512.29"
"1702","11508.2"
"1703","11542.45"
"1704","11595.19"
"1705","11632.2"
"1706","11632.84"
"1707","11624.47"
"1708","11644.47"
"1709","11697.16"
"1710","11732.65"
"1711","11699.95"
"1712","11613.41"
"1713","11540.2"
"1714","11537.45"
"1715","11589.48"
"1716","11652.55"
"1717","11692.44"
"1718","11701.16"
"1719","11675.55"
"1720","11625.68"
"1721","11578.54"
"1722","11559.43"
"1723","11562.21"
"1724","11561.49"
"1725","11538.27"
"1726","11503.28"
"1727","11475.3"
"1728","11464.34"
"1729","11463.51"
"1730","11464.21"
"1731","11462.45"
"1732","11458.36"
"1733","11452.97"
"1734","11452.39"
"1735","11464.79"
"1736","11493.13"
"1737","11525.89"
"1738","11549.33"
"1739","11558.21"
"1740","11557.63"
"1741","11552.9"
"1742","11544.86"
"1743","11531.89"
"1744","11514.8"
"1745","11503.61"
"1746","11510.36"
"1747","11534.57"
"1748","11556.15"
"1749","11554.97"
"1750","11533.89"
"1751","11511.95"
"1752","11503.81"
"1753","11501.59"
"1754","11490.79"
"1755","11463.49"
"1756","11424.49"
"1757","11380.49"
"1758","11346.49"
"1759","11344.36"
"1760","11387.28"
"1761","11438.23"
"1762","11442.81"
"1763","11379.65"
"1764","11299.68"
"1765","11261.07"
"1766","11274.15"
"1767","11305.09"
"1768","11323.22"
"1769","11328.21"
"1770","11331.33"
"1771","11337.23"
"1772","11335.11"
"1773","11312.74"
"1774","11275.42"
"1775","11245.35"
"1776","11242.16"
"1777","11264.48"
"1778","11302.74"
"1779","11348.7"
"1780","11397.34"
"1781","11444.08"
"1782","11484.16"
"1783","11512.71"
"1784","11525.23"
"1785","11519.7"
"1786","11495.08"
"1787","11455.63"
"1788","11417.2"
"1789","11396.48"
"1790","11397.03"
"1791","11410.87"
"1792","11428.85"
"1793","11437.57"
"1794","11422.23"
"1795","11378.85"
"1796","11324.26"
"1797","11277.38"
"1798","11251.72"
"1799","11256.76"
"1800","11295.36"
"1801","11341.27"
"1802","11360.38"
"1803","11340.48"
"1804","11304.48"
"1805","11277.42"
"1806","11272.86"
"1807","11297.26"
"1808","11348.85"
"1809","11397.6"
"1810","11408.2"
"1811","11377.35"
"1812","11341.82"
"1813","11335.27"
"1814","11346.59"
"1815","11343.66"
"1816","11311.38"
"1817","11278.16"
"1818","11277.59"
"1819","11309.98"
"1820","11344.78"
"1821","11355.52"
"1822","11343.99"
"1823","11321.25"
"1824","11297.98"
"1825","11284.04"
"1826","11286.68"
"1827","11283.48"
"1828","11232.89"
"1829","11118.41"
"1830","11010.49"
"1831","10995.77"
"1832","11079.8"
"1833","11173.03"
"1834","11195.41"
"1835","11169.05"
"1836","11158.21"
"1837","11193.07"
"1838","11231.57"
"1839","11226.02"
"1840","11180.23"
"1841","11136.17"
"1842","11125.9"
"1843","11139.46"
"1844","11157.06"
"1845","11170.6"
"1846","11186.73"
"1847","11210.04"
"1848","11223.87"
"1849","11202.45"
"1850","11145.63"
"1851","11107.7"
"1852","11143.96"
"1853","11226.78"
"1854","11268.65"
"1855","11212.16"
"1856","11113.95"
"1857","11054.67"
"1858","11057.23"
"1859","11077.99"
"1860","11078.5"
"1861","11075.44"
"1862","11105.97"
"1863","11171.55"
"1864","11209.06"
"1865","11157.99"
"1866","11058.19"
"1867","11009.3"
"1868","11063.93"
"1869","11139.29"
"1870","11134.27"
"1871","11055.3"
"1872","11005.24"
"1873","11058.87"
"1874","11151.77"
"1875","11183.11"
"1876","11132.65"
"1877","11085.64"
"1878","11118.3"
"1879","11196.73"
"1880","11241.8"
"1881","11215.27"
"1882","11155.83"
"1883","11107.82"
"1884","11084.71"
"1885","11081.74"
"1886","11092.08"
"1887","11104.11"
"1888","11106.33"
"1889","11103.03"
"1890","11111.32"
"1891","11138.89"
"1892","11156.72"
"1893","11128.85"
"1894","11066.07"
"1895","11029.96"
"1896","11067.97"
"1897","11141.22"
"1898","11183.89"
"1899","11167.63"
"1900","11117.22"
"1901","11060.11"
"1902","11013.8"
"1903","10991.47"
"1904","10990.95"
"1905","10982.38"
"1906","10938.76"
"1907","10887.07"
"1908","10883.19"
"1909","10946.32"
"1910","11011.94"
"1911","11010.68"
"1912","10956.39"
"1913","10917.94"
"1914","10940.28"
"1915","10998.61"
"1916","11056.61"
"1917","11087.04"
"1918","11069.77"
"1919","11001.88"
"1920","10937.33"
"1921","10938.22"
"1922","10989.21"
"1923","11003.65"
"1924","10926.97"
"1925","10841.77"
"1926","10859.83"
"1927","10974.91"
"1928","11057.38"
"1929","11010.88"
"1930","10915.24"
"1931","10896.27"
"1932","10971.74"
"1933","11034.18"
"1934","10997.4"
"1935","10917.13"
"1936","10891.19"
"1937","10941.26"
"1938","10993.64"
"1939","10983.8"
"1940","10929.91"
"1941","10877.24"
"1942","10846.22"
"1943","10824.35"
"1944","10801.32"
"1945","10791.89"
"1946","10819.09"
"1947","10881.01"
"1948","10941.76"
"1949","10969.65"
"1950","10971.9"
"1951","10969.46"
"1952","10974.99"
"1953","10989.7"
"1954","11008.93"
"1955","10998.99"
"1956","10917.3"
"1957","10781.96"
"1958","10692.79"
"1959","10729.05"
"1960","10823.64"
"1961","10861.3"
"1962","10809.69"
"1963","10743.52"
"1964","10727.21"
"1965","10734.18"
"1966","10710.12"
"1967","10653.79"
"1968","10628.04"
"1969","10679.16"
"1970","10756.2"
"1971","10781.72"
"1972","10741.74"
"1973","10692.26"
"1974","10680.68"
"1975","10702.36"
"1976","10738.52"
"1977","10759.66"
"1978","10725.83"
"1979","10621.04"
"1980","10518.39"
"1981","10506.01"
"1982","10574.12"
"1983","10629.04"
"1984","10610.3"
"1985","10568.5"
"1986","10570.98"
"1987","10620.21"
"1988","10671.37"
"1989","10689.08"
"1990","10665.01"
"1991","10597.68"
"1992","10514.01"
"1993","10458.05"
"1994","10455.8"
"1995","10495.56"
"1996","10560.04"
"1997","10624.76"
"1998","10661.77"
"1999","10650.94"
"2000","10585.1"
"2001","10467.08"
"2002","10353.8"
"2003","10321.14"
"2004","10377.32"
"2005","10443.91"
"2006","10455.81"
"2007","10435.7"
"2008","10429.56"
"2009","10442.14"
"2010","10437.69"
"2011","10393.72"
"2012","10337.64"
"2013","10305.33"
"2014","10304.04"
"2015","10319.92"
"2016","10334.47"
"2017","10319.29"
"2018","10250.51"
"2019","10159.77"
"2020","10108"
"2021","10121.92"
"2022","10169.51"
"2023","10215.16"
"2024","10236.54"
"2025","10217.02"
"2026","10164.29"
"2027","10115.27"
"2028","10100.25"
"2029","10115.96"
"2030","10150.3"
"2031","10184.27"
"2032","10193.2"
"2033","10162.23"
"2034","10102.76"
"2035","10031.44"
"2036","9974.751"
"2037","9964.209"
"2038","9994.647"
"2039","9998.465"
"2040","9922.087"
"2041","9828.856"
"2042","9820.788"
"2043","9906.476"
"2044","9990.99"
"2045","10003.46"
"2046","9976.536"
"2047","9961.229"
"2048","9951.286"
"2049","9900.097"
"2050","9791.182"
"2051","9673.485"
"2052","9599.972"
"2053","9591.758"
"2054","9654.981"
"2055","9749.867"
"2056","9777.698"
"2057","9676.621"
"2058","9549.316"
"2059","9530.371"
"2060","9605.881"
"2061","9646.54"
"2062","9587.385"
"2063","9516.463"
"2064","9526.866"
"2065","9589.698"
"2066","9621.925"
"2067","9589.772"
"2068","9524.064"
"2069","9456.323"
"2070","9403.356"
"2071","9377.819"
"2072","9383.907"
"2073","9419.426"
"2074","9471.608"
"2075","9505.842"
"2076","9491.007"
"2077","9438.46"
"2078","9376.63"
"2079","9324.983"
"2080","9292.598"
"2081","9284.184"
"2082","9291.79"
"2083","9304.454"
"2084","9307.366"
"2085","9283.474"
"2086","9229.956"
"2087","9168.227"
"2088","9117.602"
"2089","9074.577"
"2090","9029.27"
"2091","8987.233"
"2092","8967.703"
"2093","8980.737"
"2094","9012.988"
"2095","9047.817"
"2096","9070.35"
"2097","9066.778"
"2098","9034.008"
"2099","8981.819"
"2100","8918.499"
"2101","8844.728"
"2102","8762.609"
"2103","8705.358"
"2104","8724.013"
"2105","8819.474"
"2106","8914.253"
"2107","8937.955"
"2108","8882.036"
"2109","8758.182"
"2110","8626.122"
"2111","8581.142"
"2112","8654.826"
"2113","8753.957"
"2114","8790.787"
"2115","8786.904"
"2116","8798.054"
"2117","8821.908"
"2118","8804.29"
"2119","8726.5"
"2120","8655.343"
"2121","8654.079"
"2122","8684.236"
"2123","8669.59"
"2124","8604.047"
"2125","8552.998"
"2126","8549.308"
"2127","8532.983"
"2128","8446.309"
"2129","8357.924"
"2130","8387.646"
"2131","8511.831"
"2132","8547.796"
"2133","8397.809"
"2134","8225.466"
"2135","8210.43"
"2136","8299.868"
"2137","8335.354"
"2138","8271.597"
"2139","8194.079"
"2140","8163.98"
"2141","8151.804"
"2142","8118.722"
"2143","8079.837"
"2144","8074.579"
"2145","8106.442"
"2146","8137.815"
"2147","8140.815"
"2148","8121.146"
"2149","8089.715"
"2150","8052.787"
"2151","8014.842"
"2152","7988.103"
"2153","7993.103"
"2154","8033.539"
"2155","8068.567"
"2156","8058.688"
"2157","8022.418"
"2158","8000.649"
"2159","7996.676"
"2160","7977.068"
"2161","7925.386"
"2162","7867.504"
"2163","7827.424"
"2164","7783.977"
"2165","7703.479"
"2166","7617.076"
"2167","7610.055"
"2168","7690.522"
"2169","7714.736"
"2170","7575.75"
"2171","7423.774"
"2172","7465.09"
"2173","7642.276"
"2174","7716.215"
"2175","7603.019"
"2176","7466.782"
"2177","7446.436"
"2178","7507.807"
"2179","7577.816"
"2180","7592.723"
"2181","7496.659"
"2182","7330.491"
"2183","7252.133"
"2184","7343.408"
"2185","7458.193"
"2186","7437.024"
"2187","7292.292"
"2188","7106.469"
"2189","6957.53"
"2190","6918.773"
"2191","7003.076"
"2192","7104.857"
"2193","7130.64"
"2194","7106.984"
"2195","7090.005"
"2196","7080.583"
"2197","7044.677"
"2198","6978.294"
"2199","6919.438"
"2200","6896.409"
"2201","6898.885"
"2202","6909.91"
"2203","6917.315"
"2204","6911.138"
"2205","6884.951"
"2206","6835.662"
"2207","6768.795"
"2208","6706.315"
"2209","6668.385"
"2210","6658.898"
"2211","6674.388"
"2212","6680.691"
"2213","6627.22"
"2214","6527.878"
"2215","6475.581"
"2216","6512.648"
"2217","6539.084"
"2218","6460.622"
"2219","6346.634"
"2220","6316.534"
"2221","6368.95"
"2222","6413.14"
"2223","6405.989"
"2224","6379.375"
"2225","6363.034"
"2226","6360.177"
"2227","6366.301"
"2228","6359.328"
"2229","6311.936"
"2230","6239.054"
"2231","6191.855"
"2232","6186.586"
"2233","6177.332"
"2234","6128.205"
"2235","6061.574"
"2236","6008.497"
"2237","5965.302"
"2238","5912.637"
"2239","5846.263"
"2240","5776.23"
"2241","5719.432"
"2242","5704.152"
"2243","5741.907"
"2244","5776.839"
"2245","5747.328"
"2246","5673.914"
"2247","5614.637"
"2248","5581.682"
"2249","5544.211"
"2250","5483.393"
"2251","5404.95"
"2252","5322.899"
"2253","5271.696"
"2254","5282.378"
"2255","5324.633"
"2256","5342.058"
"2257","5314.904"
"2258","5255.44"
"2259","5171.517"
"2260","5062.01"
"2261","4928.028"
"2262","4780.402"
"2263","4639.021"
"2264","4569.253"
"2265","4644.125"
"2266","4781.516"
"2267","4785.059"
"2268","4598.611"
"2269","4364.652"
"2270","4207.861"
"2271","4167.265"
"2272","4245.463"
"2273","4328.044"
"2274","4277.047"
"2275","4109.236"
"2276","3933.768"
"2277","3813.649"
"2278","3759.443"
"2279","3757.093"
"2280","3748.765"
"2281","3685.192"
"2282","3569.985"
"2283","3422.584"
"2284","3286.82"
"2285","3213.481"
"2286","3185.422"
"2287","3131.286"
"2288","3034.178"
"2289","2957.701"
"2290","2931.061"
"2291","2877.904"
"2292","2735.017"
"2293","2587.037"
"2294","2546.348"
"2295","2555.815"
"2296","2470.944"
"2297","2305.627"
"2298","2227.3"
"2299","2282.774"
"2300","2304.367"
