,"Scan 01023"
"400","10781.06"
"401","10728.91"
"402","10665.88"
"403","10604.73"
"404","10558.15"
"405","10537.2"
"406","10539.85"
"407","10557.45"
"408","10581.37"
"409","10603.31"
"410","10618.57"
"411","10624.91"
"412","10620.21"
"413","10602.61"
"414","10575.94"
"415","10549.35"
"416","10532.1"
"417","10533.18"
"418","10553.21"
"419","10582.61"
"420","10611.22"
"421","10629.02"
"422","10632.15"
"423","10626.5"
"424","10618.82"
"425","10615.81"
"426","10620.72"
"427","10629.7"
"428","10638.02"
"429","10641"
"430","10636.46"
"431","10628.89"
"432","10623.87"
"433","10626.93"
"434","10640.11"
"435","10653.39"
"436","10654.24"
"437","10630.19"
"438","10574.32"
"439","10503.69"
"440","10441.8"
"441","10411.99"
"442","10431.37"
"443","10483.66"
"444","10541.38"
"445","10577.21"
"446","10568.42"
"447","10522.32"
"448","10458.52"
"449","10396.55"
"450","10353.8"
"451","10330.79"
"452","10319.8"
"453","10313.08"
"454","10303.49"
"455","10289.47"
"456","10272.66"
"457","10254.74"
"458","10237.44"
"459","10223.34"
"460","10215.52"
"461","10217.09"
"462","10230.38"
"463","10246.82"
"464","10249.77"
"465","10222.49"
"466","10149.75"
"467","10040.83"
"468","9925.33"
"469","9833.309"
"470","9793.357"
"471","9808.713"
"472","9859.404"
"473","9924.726"
"474","9984.496"
"475","10027.72"
"476","10052.5"
"477","10057.34"
"478","10040.97"
"479","10007.52"
"480","9966.857"
"481","9929.063"
"482","9903.895"
"483","9893.317"
"484","9890.625"
"485","9888.678"
"486","9880.616"
"487","9866.464"
"488","9854.268"
"489","9852.477"
"490","9869.138"
"491","9900.725"
"492","9929.927"
"493","9938.718"
"494","9909.688"
"495","9842.349"
"496","9756.646"
"497","9673.625"
"498","9613.775"
"499","9583.025"
"500","9569.766"
"501","9561.413"
"502","9545.648"
"503","9516.688"
"504","9476.487"
"505","9427.433"
"506","9371.969"
"507","9314.521"
"508","9261.813"
"509","9220.646"
"510","9197.54"
"511","9191.896"
"512","9195.252"
"513","9198.776"
"514","9193.945"
"515","9178.619"
"516","9157.357"
"517","9135.003"
"518","9116.131"
"519","9099.892"
"520","9080.134"
"521","9050.511"
"522","9005.228"
"523","8948.452"
"524","8893.326"
"525","8853.243"
"526","8840.567"
"527","8851.7"
"528","8869.979"
"529","8878.443"
"530","8861.554"
"531","8822.633"
"532","8778.859"
"533","8747.636"
"534","8744.6"
"535","8765.458"
"536","8792.981"
"537","8809.813"
"538","8800.428"
"539","8766.571"
"540","8719.752"
"541","8671.537"
"542","8632.383"
"543","8604.173"
"544","8584.626"
"545","8571.446"
"546","8562.736"
"547","8559.208"
"548","8562.638"
"549","8574.786"
"550","8595.735"
"551","8616.393"
"552","8624.604"
"553","8608.271"
"554","8560.311"
"555","8495.388"
"556","8434.069"
"557","8396.815"
"558","8397.058"
"559","8423.932"
"560","8461.336"
"561","8493.247"
"562","8508.152"
"563","8506.781"
"564","8491.944"
"565","8466.443"
"566","8434.17"
"567","8401.387"
"568","8374.634"
"569","8360.358"
"570","8360.259"
"571","8368.076"
"572","8376.822"
"573","8379.64"
"574","8373.695"
"575","8361.395"
"576","8345.466"
"577","8328.604"
"578","8312.795"
"579","8299.313"
"580","8289.399"
"581","8284.373"
"582","8286.846"
"583","8300.406"
"584","8328.65"
"585","8374.024"
"586","8427.845"
"587","8475.142"
"588","8500.941"
"589","8492.883"
"590","8455.862"
"591","8401.86"
"592","8342.827"
"593","8289.145"
"594","8244.066"
"595","8208.767"
"596","8184.41"
"597","8171.457"
"598","8168.087"
"599","8172.036"
"600","8181.042"
"601","8192.327"
"602","8201.952"
"603","8205.832"
"604","8199.938"
"605","8182.321"
"606","8154.234"
"607","8117.191"
"608","8072.921"
"609","8028.856"
"610","7998.505"
"611","7995.627"
"612","8032.332"
"613","8098.331"
"614","8166.936"
"615","8211.174"
"616","8208.191"
"617","8168.491"
"618","8118.987"
"619","8086.61"
"620","8091.936"
"621","8123.329"
"622","8158.918"
"623","8176.91"
"624","8162.488"
"625","8123.012"
"626","8070.248"
"627","8015.893"
"628","7969.55"
"629","7936.604"
"630","7921.923"
"631","7930.151"
"632","7957.998"
"633","7991.938"
"634","8017.822"
"635","8022.339"
"636","8005.578"
"637","7978.669"
"638","7953.036"
"639","7939.03"
"640","7937.866"
"641","7946.042"
"642","7960.025"
"643","7976.769"
"644","7995.576"
"645","8016.479"
"646","8039.509"
"647","8062.645"
"648","8077.978"
"649","8076.575"
"650","8049.638"
"651","7996.776"
"652","7931.777"
"653","7869.759"
"654","7825.444"
"655","7805.237"
"656","7807.13"
"657","7828.735"
"658","7867.156"
"659","7913.938"
"660","7957.306"
"661","7985.458"
"662","7989.181"
"663","7973.294"
"664","7947.416"
"665","7921.138"
"666","7902.148"
"667","7892.555"
"668","7893.432"
"669","7905.808"
"670","7927.818"
"671","7952.838"
"672","7973.823"
"673","7983.985"
"674","7981.547"
"675","7969.377"
"676","7950.522"
"677","7928.038"
"678","7905.174"
"679","7885.277"
"680","7871.687"
"681","7866.461"
"682","7866.125"
"683","7865.696"
"684","7860.221"
"685","7847.612"
"686","7832.215"
"687","7819.228"
"688","7813.754"
"689","7818"
"690","7830.727"
"691","7850.495"
"692","7875.641"
"693","7901.939"
"694","7923.515"
"695","7934.476"
"696","7930.144"
"697","7912.12"
"698","7884.053"
"699","7849.586"
"700","7813.399"
"701","7782.797"
"702","7765.481"
"703","7768.913"
"704","7792.18"
"705","7823.645"
"706","7850.991"
"707","7862.892"
"708","7859.602"
"709","7848.99"
"710","7839.038"
"711","7836.066"
"712","7837.923"
"713","7839.749"
"714","7836.706"
"715","7826.921"
"716","7815.53"
"717","7808.674"
"718","7812.302"
"719","7827.052"
"720","7847.46"
"721","7867.73"
"722","7882.344"
"723","7888.379"
"724","7884.379"
"725","7868.904"
"726","7842.244"
"727","7811.784"
"728","7786.724"
"729","7776.176"
"730","7783.19"
"731","7799.684"
"732","7816.4"
"733","7824.584"
"734","7824.353"
"735","7823.527"
"736","7830.176"
"737","7850.649"
"738","7880.229"
"739","7909.79"
"740","7930.206"
"741","7935.527"
"742","7928.368"
"743","7912.767"
"744","7892.768"
"745","7872.62"
"746","7856.837"
"747","7849.939"
"748","7855.792"
"749","7872.201"
"750","7893.63"
"751","7914.53"
"752","7930.384"
"753","7940.471"
"754","7944.934"
"755","7943.964"
"756","7940.495"
"757","7941.66"
"758","7954.939"
"759","7986.638"
"760","8028.514"
"761","8062.474"
"762","8070.261"
"763","8039.582"
"764","7984.669"
"765","7927.137"
"766","7888.453"
"767","7879.091"
"768","7890.037"
"769","7910.282"
"770","7929.217"
"771","7941.865"
"772","7947.532"
"773","7945.627"
"774","7937.237"
"775","7931.659"
"776","7940.694"
"777","7976.014"
"778","8037.345"
"779","8102.066"
"780","8145.13"
"781","8143.477"
"782","8103.669"
"783","8055.162"
"784","8027.967"
"785","8044.357"
"786","8089.259"
"787","8136.35"
"788","8159.493"
"789","8147.366"
"790","8115.176"
"791","8080.872"
"792","8061.482"
"793","8061.631"
"794","8077.043"
"795","8103.246"
"796","8135.247"
"797","8165.788"
"798","8187.009"
"799","8191.151"
"800","8176.045"
"801","8148.274"
"802","8115.183"
"803","8083.863"
"804","8058.735"
"805","8042.592"
"806","8038.201"
"807","8046.879"
"808","8064.928"
"809","8087.574"
"810","8110.16"
"811","8132.111"
"812","8157.981"
"813","8192.642"
"814","8239.25"
"815","8287.545"
"816","8320.962"
"817","8322.935"
"818","8286.835"
"819","8231.218"
"820","8178.554"
"821","8150.401"
"822","8150.387"
"823","8165.613"
"824","8182.573"
"825","8190.278"
"826","8190.921"
"827","8190.979"
"828","8196.88"
"829","8210.281"
"830","8224.672"
"831","8232.727"
"832","8227.894"
"833","8212.061"
"834","8192.354"
"835","8175.963"
"836","8168.46"
"837","8170.193"
"838","8180.454"
"839","8198.457"
"840","8221.23"
"841","8243.417"
"842","8259.545"
"843","8265.526"
"844","8265.642"
"845","8267.286"
"846","8277.814"
"847","8299.634"
"848","8325.967"
"849","8349.037"
"850","8361.598"
"851","8362.484"
"852","8354.404"
"853","8340.134"
"854","8323.125"
"855","8308.978"
"856","8303.713"
"857","8313.053"
"858","8335.585"
"859","8362.594"
"860","8385.035"
"861","8395.681"
"862","8396.854"
"863","8394.041"
"864","8392.678"
"865","8394.962"
"866","8397.981"
"867","8398.374"
"868","8393.294"
"869","8384.473"
"870","8376"
"871","8371.981"
"872","8374.973"
"873","8383.821"
"874","8396.82"
"875","8412.333"
"876","8429.697"
"877","8448.992"
"878","8470.319"
"879","8492.951"
"880","8513.188"
"881","8526.665"
"882","8529.277"
"883","8523.754"
"884","8520.182"
"885","8529.011"
"886","8557.232"
"887","8593.778"
"888","8621.7"
"889","8624.359"
"890","8601.531"
"891","8577.087"
"892","8576.816"
"893","8621.748"
"894","8697.739"
"895","8774.874"
"896","8823.295"
"897","8828.854"
"898","8807.995"
"899","8780.682"
"900","8765.288"
"901","8763.868"
"902","8768.896"
"903","8772.734"
"904","8770.155"
"905","8762.009"
"906","8750.09"
"907","8736.316"
"908","8724.444"
"909","8719.583"
"910","8726.867"
"911","8748.094"
"912","8774.498"
"913","8795.235"
"914","8799.994"
"915","8788.409"
"916","8768.968"
"917","8750.464"
"918","8739.664"
"919","8735.563"
"920","8735.277"
"921","8736.045"
"922","8737.813"
"923","8743.349"
"924","8755.554"
"925","8775.864"
"926","8799.141"
"927","8818.399"
"928","8826.864"
"929","8824.539"
"930","8819.37"
"931","8819.751"
"932","8831.943"
"933","8851.359"
"934","8869.973"
"935","8879.914"
"936","8879.45"
"937","8874.705"
"938","8872.319"
"939","8877.083"
"940","8883.539"
"941","8882.723"
"942","8865.853"
"943","8832.862"
"944","8795.481"
"945","8766.288"
"946","8755.204"
"947","8756.744"
"948","8759.89"
"949","8753.82"
"950","8737.646"
"951","8724.271"
"952","8727.616"
"953","8757.616"
"954","8800.821"
"955","8835.291"
"956","8839.466"
"957","8809.691"
"958","8767.027"
"959","8734.352"
"960","8730.223"
"961","8748.577"
"962","8774.636"
"963","8793.791"
"964","8799.042"
"965","8793.494"
"966","8780.952"
"967","8765.271"
"968","8750.585"
"969","8741.11"
"970","8740.941"
"971","8749.403"
"972","8759.933"
"973","8765.593"
"974","8760.958"
"975","8747.942"
"976","8730.685"
"977","8713.207"
"978","8696.307"
"979","8677.159"
"980","8652.745"
"981","8622.615"
"982","8597.215"
"983","8589.896"
"984","8613.283"
"985","8663.611"
"986","8720.989"
"987","8764.835"
"988","8780.344"
"989","8773.508"
"990","8755.003"
"991","8735.25"
"992","8720.213"
"993","8712.114"
"994","8713.063"
"995","8724.718"
"996","8747.419"
"997","8781.261"
"998","8825.716"
"999","8872.241"
"1000","8906.734"
"1001","8915.009"
"1002","8891.553"
"1003","8851.354"
"1004","8812.359"
"1005","8792.53"
"1006","8806.047"
"1007","8841.636"
"1008","8877.532"
"1009","8892.208"
"1010","8878.003"
"1011","8847.152"
"1012","8813.438"
"1013","8789.002"
"1014","8777.032"
"1015","8777.69"
"1016","8791.011"
"1017","8813.063"
"1018","8835.263"
"1019","8848.742"
"1020","8847.274"
"1021","8835.737"
"1022","8821.937"
"1023","8813.618"
"1024","8816.954"
"1025","8836.679"
"1026","8877.465"
"1027","8938.198"
"1028","8999.523"
"1029","9038.486"
"1030","9034.252"
"1031","8993.739"
"1032","8943.347"
"1033","8909.85"
"1034","8909.615"
"1035","8935.347"
"1036","8976.473"
"1037","9022.859"
"1038","9068.105"
"1039","9107.7"
"1040","9137.149"
"1041","9152.381"
"1042","9149.986"
"1043","9126.617"
"1044","9081.57"
"1045","9028.841"
"1046","8987.502"
"1047","8975.989"
"1048","8994.749"
"1049","9024.515"
"1050","9045.001"
"1051","9042.313"
"1052","9025.149"
"1053","9007.19"
"1054","9001.281"
"1055","9008.676"
"1056","9022.212"
"1057","9034.552"
"1058","9041.344"
"1059","9044.783"
"1060","9047.927"
"1061","9053.262"
"1062","9058.99"
"1063","9061.351"
"1064","9056.698"
"1065","9046.482"
"1066","9039.009"
"1067","9043.074"
"1068","9064.407"
"1069","9095.789"
"1070","9126.581"
"1071","9146.548"
"1072","9152.087"
"1073","9144.958"
"1074","9127.085"
"1075","9102.706"
"1076","9081.455"
"1077","9073.741"
"1078","9088.331"
"1079","9121.38"
"1080","9163.233"
"1081","9204.198"
"1082","9234.097"
"1083","9242.146"
"1084","9217.515"
"1085","9156.906"
"1086","9085.933"
"1087","9037.149"
"1088","9040.37"
"1089","9088.933"
"1090","9150.354"
"1091","9191.699"
"1092","9195.475"
"1093","9173.949"
"1094","9142.786"
"1095","9116.009"
"1096","9098.056"
"1097","9089.927"
"1098","9092.373"
"1099","9100.734"
"1100","9105.012"
"1101","9094.989"
"1102","9066.872"
"1103","9034.001"
"1104","9012.542"
"1105","9016.116"
"1106","9037.715"
"1107","9060.356"
"1108","9067.323"
"1109","9054.234"
"1110","9032.227"
"1111","9013.441"
"1112","9007.189"
"1113","9013.214"
"1114","9029.223"
"1115","9052.35"
"1116","9073.816"
"1117","9081.375"
"1118","9063.01"
"1119","9021.977"
"1120","8984.096"
"1121","8977.019"
"1122","9017.669"
"1123","9080.608"
"1124","9129.951"
"1125","9133.345"
"1126","9100.611"
"1127","9069.107"
"1128","9076.22"
"1129","9128.255"
"1130","9181.983"
"1131","9189.71"
"1132","9120.875"
"1133","9016.202"
"1134","8934.955"
"1135","8931.06"
"1136","8993.191"
"1137","9066.596"
"1138","9096.287"
"1139","9063.999"
"1140","9009.436"
"1141","8977.444"
"1142","8998.935"
"1143","9049.316"
"1144","9090.178"
"1145","9086.863"
"1146","9046.548"
"1147","9002.419"
"1148","8987.616"
"1149","9012.398"
"1150","9054.215"
"1151","9087.962"
"1152","9095.216"
"1153","9080.707"
"1154","9054.162"
"1155","9024.793"
"1156","8996.992"
"1157","8972.59"
"1158","8953.481"
"1159","8944.225"
"1160","8952.585"
"1161","8986.504"
"1162","9046.755"
"1163","9114.42"
"1164","9167.207"
"1165","9186.423"
"1166","9177.827"
"1167","9157.345"
"1168","9140.385"
"1169","9131.295"
"1170","9124.183"
"1171","9112.813"
"1172","9096.1"
"1173","9083.301"
"1174","9084.929"
"1175","9107.709"
"1176","9140.672"
"1177","9167.679"
"1178","9173.909"
"1179","9160.31"
"1180","9138.11"
"1181","9118.639"
"1182","9108.765"
"1183","9109.277"
"1184","9120.523"
"1185","9141.079"
"1186","9164.292"
"1187","9182.539"
"1188","9189.968"
"1189","9192.812"
"1190","9202.348"
"1191","9229.06"
"1192","9268.642"
"1193","9303.936"
"1194","9317.492"
"1195","9305.08"
"1196","9285.784"
"1197","9281.079"
"1198","9304.235"
"1199","9337.633"
"1200","9356.382"
"1201","9339.639"
"1202","9300.825"
"1203","9270.583"
"1204","9278.199"
"1205","9318.54"
"1206","9352.171"
"1207","9338.379"
"1208","9265.885"
"1209","9181.081"
"1210","9137.089"
"1211","9171.062"
"1212","9255.44"
"1213","9346.268"
"1214","9403.359"
"1215","9419.828"
"1216","9405.99"
"1217","9372.422"
"1218","9331.983"
"1219","9299.799"
"1220","9290.989"
"1221","9308.96"
"1222","9335.231"
"1223","9348.903"
"1224","9336.653"
"1225","9313.131"
"1226","9299.442"
"1227","9313.562"
"1228","9349.684"
"1229","9391.139"
"1230","9421.664"
"1231","9433.054"
"1232","9423.947"
"1233","9393.375"
"1234","9350.686"
"1235","9321.074"
"1236","9331.087"
"1237","9391.909"
"1238","9470.772"
"1239","9527.088"
"1240","9528.644"
"1241","9489.569"
"1242","9439.903"
"1243","9408.263"
"1244","9406.999"
"1245","9438.254"
"1246","9503.338"
"1247","9585.208"
"1248","9646.644"
"1249","9649.638"
"1250","9586.658"
"1251","9508.646"
"1252","9473.196"
"1253","9516.247"
"1254","9598.764"
"1255","9665.473"
"1256","9670.449"
"1257","9627.73"
"1258","9574.978"
"1259","9547.191"
"1260","9544.939"
"1261","9545.351"
"1262","9525.896"
"1263","9487.801"
"1264","9459.329"
"1265","9470.055"
"1266","9528.806"
"1267","9605.025"
"1268","9663.724"
"1269","9680.781"
"1270","9667.511"
"1271","9642.425"
"1272","9621.647"
"1273","9607.573"
"1274","9597.746"
"1275","9590.018"
"1276","9585.403"
"1277","9586.782"
"1278","9596.849"
"1279","9613.895"
"1280","9632.063"
"1281","9645.396"
"1282","9651.585"
"1283","9653.791"
"1284","9655.612"
"1285","9659.254"
"1286","9663.539"
"1287","9666.797"
"1288","9666.701"
"1289","9658.325"
"1290","9636.103"
"1291","9596.821"
"1292","9552.606"
"1293","9521.726"
"1294","9520.557"
"1295","9544.077"
"1296","9573.864"
"1297","9591.964"
"1298","9594.863"
"1299","9592.78"
"1300","9596.335"
"1301","9608.69"
"1302","9622.341"
"1303","9629"
"1304","9627.385"
"1305","9631.342"
"1306","9656.693"
"1307","9710.088"
"1308","9767.768"
"1309","9799.67"
"1310","9783.348"
"1311","9735.401"
"1312","9684.92"
"1313","9657.581"
"1314","9651.567"
"1315","9651.891"
"1316","9644.475"
"1317","9628.349"
"1318","9611.682"
"1319","9602.599"
"1320","9603.875"
"1321","9612.956"
"1322","9627.093"
"1323","9645.2"
"1324","9668.528"
"1325","9698.466"
"1326","9730.242"
"1327","9746.859"
"1328","9729.871"
"1329","9674.079"
"1330","9611.908"
"1331","9582.433"
"1332","9611.474"
"1333","9670.72"
"1334","9718.057"
"1335","9718.341"
"1336","9677.374"
"1337","9615.782"
"1338","9553.938"
"1339","9509.713"
"1340","9499.729"
"1341","9538.034"
"1342","9606.476"
"1343","9665.009"
"1344","9675.189"
"1345","9638.339"
"1346","9591.761"
"1347","9573.146"
"1348","9589.633"
"1349","9611.9"
"1350","9608.855"
"1351","9572.515"
"1352","9531.037"
"1353","9515.645"
"1354","9540.812"
"1355","9586.759"
"1356","9629.505"
"1357","9651.068"
"1358","9649.568"
"1359","9625.796"
"1360","9584.063"
"1361","9541.05"
"1362","9516.173"
"1363","9522.528"
"1364","9544.073"
"1365","9556.384"
"1366","9540.379"
"1367","9509.033"
"1368","9487.177"
"1369","9495.508"
"1370","9522.291"
"1371","9540.614"
"1372","9526.498"
"1373","9486.751"
"1374","9446.116"
"1375","9427.86"
"1376","9432.407"
"1377","9443.869"
"1378","9446.861"
"1379","9441.48"
"1380","9441.203"
"1381","9459.331"
"1382","9493.729"
"1383","9526.243"
"1384","9538.447"
"1385","9528.721"
"1386","9516.2"
"1387","9520.982"
"1388","9545.812"
"1389","9568.132"
"1390","9563.549"
"1391","9523.145"
"1392","9464.539"
"1393","9407.924"
"1394","9367.09"
"1395","9343.013"
"1396","9335.13"
"1397","9342.367"
"1398","9362.446"
"1399","9392.918"
"1400","9427.363"
"1401","9448.743"
"1402","9438.238"
"1403","9389.562"
"1404","9335.06"
"1405","9314.523"
"1406","9351.39"
"1407","9411.568"
"1408","9448.318"
"1409","9428.965"
"1410","9376.816"
"1411","9329.086"
"1412","9315.313"
"1413","9330.803"
"1414","9361.346"
"1415","9393.779"
"1416","9420.195"
"1417","9434.295"
"1418","9431.769"
"1419","9419.118"
"1420","9406.5"
"1421","9402.228"
"1422","9403.592"
"1423","9403.856"
"1424","9397.484"
"1425","9386.748"
"1426","9376.999"
"1427","9372.939"
"1428","9374.747"
"1429","9380.7"
"1430","9389.148"
"1431","9399.018"
"1432","9409.473"
"1433","9420.147"
"1434","9434.176"
"1435","9456.313"
"1436","9490.062"
"1437","9528.876"
"1438","9561.397"
"1439","9577.736"
"1440","9580.329"
"1441","9577.65"
"1442","9577.172"
"1443","9577.505"
"1444","9572.854"
"1445","9558.645"
"1446","9540.997"
"1447","9531.401"
"1448","9539.763"
"1449","9562.232"
"1450","9588.047"
"1451","9606.702"
"1452","9610.405"
"1453","9592.704"
"1454","9549.974"
"1455","9501.604"
"1456","9478.266"
"1457","9504.447"
"1458","9554.985"
"1459","9581.063"
"1460","9541.611"
"1461","9455.866"
"1462","9370.783"
"1463","9327.159"
"1464","9319.957"
"1465","9323.99"
"1466","9316.805"
"1467","9295.297"
"1468","9264.414"
"1469","9227.996"
"1470","9182.577"
"1471","9121.842"
"1472","9042.492"
"1473","8959.042"
"1474","8892.494"
"1475","8860.199"
"1476","8859.614"
"1477","8881.542"
"1478","8916.016"
"1479","8949.473"
"1480","8967.218"
"1481","8957.74"
"1482","8923.593"
"1483","8871.217"
"1484","8808.255"
"1485","8747.075"
"1486","8701.227"
"1487","8679.921"
"1488","8677.221"
"1489","8683.859"
"1490","8692.575"
"1491","8702.252"
"1492","8712.955"
"1493","8723.044"
"1494","8726.289"
"1495","8715.714"
"1496","8687.909"
"1497","8647.787"
"1498","8601.461"
"1499","8557.224"
"1500","8527.766"
"1501","8526.169"
"1502","8554.189"
"1503","8594.023"
"1504","8626.083"
"1505","8639.398"
"1506","8635.713"
"1507","8617.912"
"1508","8593.217"
"1509","8574.29"
"1510","8573.429"
"1511","8584.989"
"1512","8584.373"
"1513","8548.107"
"1514","8491.075"
"1515","8462.05"
"1516","8506.314"
"1517","8603.613"
"1518","8685.611"
"1519","8689.533"
"1520","8624.044"
"1521","8540.835"
"1522","8486.823"
"1523","8464.645"
"1524","8455.343"
"1525","8441.969"
"1526","8421.279"
"1527","8395.376"
"1528","8367.32"
"1529","8344.792"
"1530","8336.894"
"1531","8348.037"
"1532","8364.899"
"1533","8369.956"
"1534","8352.554"
"1535","8322.027"
"1536","8291.305"
"1537","8270.276"
"1538","8262.019"
"1539","8268.643"
"1540","8287.731"
"1541","8309.109"
"1542","8321.994"
"1543","8322.669"
"1544","8316.76"
"1545","8310.463"
"1546","8308.336"
"1547","8313.271"
"1548","8327.311"
"1549","8340.94"
"1550","8335.698"
"1551","8296.346"
"1552","8242.825"
"1553","8215.532"
"1554","8247.39"
"1555","8316.759"
"1556","8378.577"
"1557","8396.701"
"1558","8379.846"
"1559","8350.609"
"1560","8324.762"
"1561","8294.081"
"1562","8245.128"
"1563","8176.898"
"1564","8119.166"
"1565","8106.12"
"1566","8146.75"
"1567","8205.598"
"1568","8243.278"
"1569","8244.381"
"1570","8223.809"
"1571","8198.214"
"1572","8180.094"
"1573","8178.185"
"1574","8199.957"
"1575","8239.639"
"1576","8282.971"
"1577","8316.626"
"1578","8335.279"
"1579","8337.167"
"1580","8322.445"
"1581","8300.405"
"1582","8283.091"
"1583","8278.783"
"1584","8283.828"
"1585","8292.201"
"1586","8297.202"
"1587","8290.694"
"1588","8264.591"
"1589","8222.171"
"1590","8182.849"
"1591","8166.435"
"1592","8174.248"
"1593","8189.797"
"1594","8196.963"
"1595","8192.685"
"1596","8182.353"
"1597","8170.43"
"1598","8153.943"
"1599","8126.758"
"1600","8088.774"
"1601","8065.809"
"1602","8090.628"
"1603","8175.786"
"1604","8279.805"
"1605","8352.522"
"1606","8367.646"
"1607","8339.463"
"1608","8286.406"
"1609","8232.22"
"1610","8206.458"
"1611","8235.773"
"1612","8304.271"
"1613","8366.054"
"1614","8380.743"
"1615","8353.102"
"1616","8307.85"
"1617","8267.646"
"1618","8245.849"
"1619","8253.333"
"1620","8289.987"
"1621","8327.93"
"1622","8335.331"
"1623","8304.03"
"1624","8262.3"
"1625","8240.819"
"1626","8254.798"
"1627","8304.73"
"1628","8387.947"
"1629","8475.736"
"1630","8524.178"
"1631","8501.658"
"1632","8445.727"
"1633","8417.698"
"1634","8454.809"
"1635","8519.292"
"1636","8559.118"
"1637","8550.903"
"1638","8522.684"
"1639","8507.115"
"1640","8516.889"
"1641","8543.433"
"1642","8576.897"
"1643","8604.813"
"1644","8613.047"
"1645","8592.375"
"1646","8562.108"
"1647","8551.793"
"1648","8577.367"
"1649","8612.329"
"1650","8622.196"
"1651","8594.779"
"1652","8556.465"
"1653","8536.452"
"1654","8539.863"
"1655","8547.998"
"1656","8542.54"
"1657","8519.046"
"1658","8480.866"
"1659","8432.862"
"1660","8386.826"
"1661","8356.653"
"1662","8348.663"
"1663","8349.927"
"1664","8344.655"
"1665","8324.354"
"1666","8290.62"
"1667","8246.146"
"1668","8198.932"
"1669","8161.05"
"1670","8142.55"
"1671","8139.144"
"1672","8140.625"
"1673","8138.931"
"1674","8133.234"
"1675","8124.229"
"1676","8114.401"
"1677","8109.314"
"1678","8113.956"
"1679","8115.64"
"1680","8085.361"
"1681","8000.044"
"1682","7890.25"
"1683","7812.723"
"1684","7806.371"
"1685","7840.319"
"1686","7866.966"
"1687","7858.581"
"1688","7825.407"
"1689","7781.914"
"1690","7740.988"
"1691","7713.957"
"1692","7709.79"
"1693","7717.637"
"1694","7716.54"
"1695","7690.79"
"1696","7645.694"
"1697","7591.728"
"1698","7540.945"
"1699","7508.329"
"1700","7508.238"
"1701","7534.565"
"1702","7561.813"
"1703","7566.449"
"1704","7546.726"
"1705","7511.161"
"1706","7470.449"
"1707","7442.607"
"1708","7447.03"
"1709","7485.79"
"1710","7532.534"
"1711","7559.493"
"1712","7559.44"
"1713","7541.75"
"1714","7514.897"
"1715","7478.684"
"1716","7429.577"
"1717","7371.068"
"1718","7325.891"
"1719","7319.381"
"1720","7350.308"
"1721","7383.416"
"1722","7385.016"
"1723","7363.283"
"1724","7352.098"
"1725","7375.255"
"1726","7410.369"
"1727","7422.482"
"1728","7395.988"
"1729","7352.52"
"1730","7317.142"
"1731","7298.986"
"1732","7292.907"
"1733","7292.384"
"1734","7285.181"
"1735","7256.722"
"1736","7205.938"
"1737","7168.954"
"1738","7186.998"
"1739","7256.445"
"1740","7318.73"
"1741","7319.35"
"1742","7275.966"
"1743","7246.452"
"1744","7268.193"
"1745","7300.178"
"1746","7283.794"
"1747","7208.666"
"1748","7140.483"
"1749","7145.699"
"1750","7211.183"
"1751","7267.767"
"1752","7262.423"
"1753","7224.659"
"1754","7208.172"
"1755","7232.222"
"1756","7250.163"
"1757","7211.75"
"1758","7132.968"
"1759","7084.927"
"1760","7123.13"
"1761","7205.374"
"1762","7255.505"
"1763","7235.869"
"1764","7193.069"
"1765","7182.256"
"1766","7205.389"
"1767","7215.295"
"1768","7173.318"
"1769","7105.455"
"1770","7062.383"
"1771","7069.84"
"1772","7095.113"
"1773","7098.642"
"1774","7074.425"
"1775","7048.797"
"1776","7044.989"
"1777","7057.805"
"1778","7070.937"
"1779","7075.366"
"1780","7079.205"
"1781","7092.751"
"1782","7120.404"
"1783","7160.979"
"1784","7209.016"
"1785","7234.544"
"1786","7198.52"
"1787","7097.663"
"1788","7007.177"
"1789","7007.73"
"1790","7086.755"
"1791","7150.329"
"1792","7123.27"
"1793","7047.08"
"1794","7002.089"
"1795","7022.082"
"1796","7050.858"
"1797","7026.915"
"1798","6962.965"
"1799","6927.941"
"1800","6969.868"
"1801","7036.504"
"1802","7048.376"
"1803","6985.479"
"1804","6922.981"
"1805","6936.866"
"1806","7016.676"
"1807","7098.58"
"1808","7134.321"
"1809","7132.787"
"1810","7114.987"
"1811","7091.58"
"1812","7060.265"
"1813","7019.647"
"1814","6981.761"
"1815","6964.944"
"1816","6976.188"
"1817","6993.585"
"1818","6991.813"
"1819","6968.54"
"1820","6942.729"
"1821","6931.289"
"1822","6935.716"
"1823","6952.389"
"1824","6973.929"
"1825","6986.382"
"1826","6977.07"
"1827","6956.194"
"1828","6948.707"
"1829","6967.056"
"1830","6979.96"
"1831","6948.023"
"1832","6872.838"
"1833","6804.084"
"1834","6786.501"
"1835","6812.14"
"1836","6851.291"
"1837","6881.594"
"1838","6896.452"
"1839","6891.625"
"1840","6868.302"
"1841","6831.697"
"1842","6792.238"
"1843","6780.035"
"1844","6828.67"
"1845","6922.606"
"1846","6984.352"
"1847","6946.825"
"1848","6846.176"
"1849","6763.013"
"1850","6743.534"
"1851","6760.237"
"1852","6778.197"
"1853","6790.555"
"1854","6810.711"
"1855","6845.861"
"1856","6879.104"
"1857","6888.565"
"1858","6868.05"
"1859","6829.444"
"1860","6785.905"
"1861","6752.064"
"1862","6742.938"
"1863","6755.347"
"1864","6753.235"
"1865","6702.31"
"1866","6623.667"
"1867","6571.47"
"1868","6579.704"
"1869","6623.927"
"1870","6670.356"
"1871","6703.429"
"1872","6723.909"
"1873","6731.454"
"1874","6718.303"
"1875","6675.309"
"1876","6619.271"
"1877","6600.927"
"1878","6660.83"
"1879","6754.703"
"1880","6803.522"
"1881","6771.633"
"1882","6705.079"
"1883","6655.785"
"1884","6642.067"
"1885","6662.378"
"1886","6706.233"
"1887","6740.107"
"1888","6729.265"
"1889","6682.539"
"1890","6644.219"
"1891","6641.774"
"1892","6635.652"
"1893","6573.044"
"1894","6468.305"
"1895","6408.728"
"1896","6462.421"
"1897","6579.095"
"1898","6671.29"
"1899","6693.873"
"1900","6661.731"
"1901","6597.376"
"1902","6544.26"
"1903","6554.306"
"1904","6633.254"
"1905","6703.284"
"1906","6688.85"
"1907","6617.893"
"1908","6573.878"
"1909","6601.554"
"1910","6656.515"
"1911","6684.857"
"1912","6667.702"
"1913","6609.329"
"1914","6527.205"
"1915","6474.196"
"1916","6504.578"
"1917","6596.706"
"1918","6668.834"
"1919","6661.727"
"1920","6597.542"
"1921","6514.971"
"1922","6441.721"
"1923","6395.396"
"1924","6388.249"
"1925","6412.813"
"1926","6456.618"
"1927","6503.732"
"1928","6534.605"
"1929","6535.196"
"1930","6517.106"
"1931","6498.721"
"1932","6485.172"
"1933","6466.234"
"1934","6435.448"
"1935","6409.416"
"1936","6411.229"
"1937","6438.552"
"1938","6457.176"
"1939","6439.458"
"1940","6404.294"
"1941","6385.705"
"1942","6398.016"
"1943","6429.466"
"1944","6464.454"
"1945","6476.104"
"1946","6434.494"
"1947","6352.32"
"1948","6300.338"
"1949","6336.531"
"1950","6420.27"
"1951","6476.483"
"1952","6469.548"
"1953","6418.067"
"1954","6346.584"
"1955","6290.755"
"1956","6289.19"
"1957","6334.563"
"1958","6357.729"
"1959","6304.331"
"1960","6226.461"
"1961","6210.998"
"1962","6274.605"
"1963","6343.354"
"1964","6353.465"
"1965","6325.656"
"1966","6307.083"
"1967","6316.353"
"1968","6337.604"
"1969","6355.515"
"1970","6367.219"
"1971","6373.313"
"1972","6368.788"
"1973","6342.459"
"1974","6289.801"
"1975","6235.639"
"1976","6211.218"
"1977","6217.139"
"1978","6223.836"
"1979","6208.267"
"1980","6176.034"
"1981","6139.387"
"1982","6112.485"
"1983","6111.132"
"1984","6141.667"
"1985","6181.101"
"1986","6203.22"
"1987","6215.755"
"1988","6251.179"
"1989","6320.242"
"1990","6377.064"
"1991","6372.363"
"1992","6316.582"
"1993","6256.211"
"1994","6219.61"
"1995","6196.679"
"1996","6174.078"
"1997","6150.807"
"1998","6131.915"
"1999","6124.566"
"2000","6139.32"
"2001","6180.921"
"2002","6216.422"
"2003","6199.603"
"2004","6127.58"
"2005","6052.979"
"2006","6023.136"
"2007","6043.824"
"2008","6107.864"
"2009","6183.696"
"2010","6215.817"
"2011","6171.699"
"2012","6099.079"
"2013","6059.276"
"2014","6067.673"
"2015","6105.87"
"2016","6149.879"
"2017","6164.419"
"2018","6118.731"
"2019","6039.436"
"2020","5983.52"
"2021","5979.313"
"2022","6005.836"
"2023","6039.569"
"2024","6071.008"
"2025","6095.63"
"2026","6101.829"
"2027","6069.514"
"2028","5994.698"
"2029","5939.737"
"2030","5977.622"
"2031","6078.449"
"2032","6127.043"
"2033","6058.694"
"2034","5947.382"
"2035","5881.966"
"2036","5877.585"
"2037","5908.361"
"2038","5949.682"
"2039","5979.941"
"2040","5981.447"
"2041","5957.898"
"2042","5920.805"
"2043","5885.956"
"2044","5873.842"
"2045","5894.62"
"2046","5921.398"
"2047","5921.381"
"2048","5891.875"
"2049","5851.439"
"2050","5810.586"
"2051","5761.841"
"2052","5700.319"
"2053","5655.896"
"2054","5672.196"
"2055","5738.226"
"2056","5772.638"
"2057","5719.025"
"2058","5640.529"
"2059","5624.845"
"2060","5673.286"
"2061","5719.987"
"2062","5723.39"
"2063","5701.288"
"2064","5677.743"
"2065","5662.273"
"2066","5657.585"
"2067","5656.937"
"2068","5641.343"
"2069","5600.482"
"2070","5561.626"
"2071","5558.306"
"2072","5579.716"
"2073","5582.107"
"2074","5546.929"
"2075","5510.403"
"2076","5508.99"
"2077","5533.958"
"2078","5558.569"
"2079","5570.389"
"2080","5573.505"
"2081","5570.439"
"2082","5555.479"
"2083","5522.251"
"2084","5476.094"
"2085","5429.673"
"2086","5396.528"
"2087","5391.454"
"2088","5421.904"
"2089","5457.415"
"2090","5457.553"
"2091","5421.21"
"2092","5382.17"
"2093","5363.931"
"2094","5362.029"
"2095","5368.456"
"2096","5379.733"
"2097","5394.496"
"2098","5414.774"
"2099","5446.657"
"2100","5485.458"
"2101","5489.948"
"2102","5418.84"
"2103","5311.061"
"2104","5252.535"
"2105","5271.24"
"2106","5303.878"
"2107","5298.305"
"2108","5286.345"
"2109","5317.68"
"2110","5367.515"
"2111","5355.649"
"2112","5253.016"
"2113","5131.968"
"2114","5068.386"
"2115","5092.679"
"2116","5215.747"
"2117","5369.805"
"2118","5416.927"
"2119","5295.683"
"2120","5125.879"
"2121","5033.445"
"2122","5017.392"
"2123","5027.343"
"2124","5042.356"
"2125","5071.596"
"2126","5117.514"
"2127","5161.706"
"2128","5184.317"
"2129","5179.85"
"2130","5149.45"
"2131","5102.221"
"2132","5056.023"
"2133","5025.041"
"2134","5011.774"
"2135","5015.13"
"2136","5021.835"
"2137","5013.476"
"2138","4990.535"
"2139","4975.241"
"2140","4980.075"
"2141","4986.103"
"2142","4973.471"
"2143","4959.513"
"2144","4977.564"
"2145","5013.165"
"2146","4997.347"
"2147","4902.381"
"2148","4823.932"
"2149","4857.531"
"2150","4935.669"
"2151","4921.788"
"2152","4813.663"
"2153","4754.206"
"2154","4819.001"
"2155","4890.7"
"2156","4848.312"
"2157","4756.442"
"2158","4750.749"
"2159","4834.812"
"2160","4883.273"
"2161","4832.585"
"2162","4772.696"
"2163","4791.745"
"2164","4842.595"
"2165","4834.138"
"2166","4757.013"
"2167","4670.839"
"2168","4620.058"
"2169","4615.511"
"2170","4654.343"
"2171","4687.001"
"2172","4655.986"
"2173","4581.811"
"2174","4538.684"
"2175","4550.699"
"2176","4562.056"
"2177","4532.408"
"2178","4504.082"
"2179","4529.095"
"2180","4570.632"
"2181","4545.631"
"2182","4458.999"
"2183","4422.828"
"2184","4496.418"
"2185","4576.686"
"2186","4555.621"
"2187","4477.88"
"2188","4445.4"
"2189","4458.598"
"2190","4426.417"
"2191","4331.728"
"2192","4309.105"
"2193","4454.458"
"2194","4604.897"
"2195","4546.896"
"2196","4343.279"
"2197","4231.647"
"2198","4294.391"
"2199","4397.083"
"2200","4428.865"
"2201","4398.227"
"2202","4336.28"
"2203","4275.542"
"2204","4247.762"
"2205","4254.475"
"2206","4269.328"
"2207","4268.955"
"2208","4237.94"
"2209","4171.751"
"2210","4109.181"
"2211","4095.583"
"2212","4120.992"
"2213","4143.016"
"2214","4135.096"
"2215","4090.641"
"2216","4017.733"
"2217","3958.88"
"2218","3953.637"
"2219","3992.467"
"2220","4048.214"
"2221","4092.513"
"2222","4096.511"
"2223","4056.645"
"2224","4007.435"
"2225","3982.242"
"2226","4000.44"
"2227","4068.431"
"2228","4120.663"
"2229","4067.387"
"2230","3941.255"
"2231","3879.966"
"2232","3925.524"
"2233","3949.26"
"2234","3862.875"
"2235","3783.701"
"2236","3846.006"
"2237","3952.759"
"2238","3907.832"
"2239","3730.584"
"2240","3640.823"
"2241","3716.32"
"2242","3761.52"
"2243","3632.821"
"2244","3491.083"
"2245","3534.634"
"2246","3685.912"
"2247","3742.121"
"2248","3669.23"
"2249","3591.202"
"2250","3562.511"
"2251","3501.979"
"2252","3358.336"
"2253","3238.803"
"2254","3263.439"
"2255","3377.903"
"2256","3452.991"
"2257","3449.219"
"2258","3405.557"
"2259","3354.181"
"2260","3311.759"
"2261","3282.829"
"2262","3237.77"
"2263","3152.295"
"2264","3081.058"
"2265","3102.474"
"2266","3180.246"
"2267","3193.324"
"2268","3111.535"
"2269","3033.716"
"2270","3023.954"
"2271","3030.412"
"2272","2996.389"
"2273","2937.065"
"2274","2886.94"
"2275","2840.061"
"2276","2767.125"
"2277","2672.861"
"2278","2599.61"
"2279","2563.086"
"2280","2521.901"
"2281","2450.475"
"2282","2409.006"
"2283","2458.835"
"2284","2517.48"
"2285","2447.125"
"2286","2268.861"
"2287","2131.583"
"2288","2099.348"
"2289","2108.834"
"2290","2109.591"
"2291","2110.48"
"2292","2114.014"
"2293","2045.597"
"2294","1828.34"
"2295","1591.119"
"2296","1565.439"
"2297","1712.652"
"2298","1732.675"
"2299","1529.327"
"2300","1369.243"
