,"Scan 01066"
"400","12323.48"
"401","12295.74"
"402","12245.88"
"403","12192.61"
"404","12154.48"
"405","12147.61"
"406","12168.39"
"407","12203.19"
"408","12238.4"
"409","12261.22"
"410","12267.7"
"411","12260.11"
"412","12240.81"
"413","12212.27"
"414","12179.05"
"415","12147.71"
"416","12124.84"
"417","12116.78"
"418","12122.55"
"419","12132.28"
"420","12135.54"
"421","12122.15"
"422","12089.92"
"423","12049.52"
"424","12012.71"
"425","11991.13"
"426","11990"
"427","12001.22"
"428","12015.06"
"429","12021.89"
"430","12015.19"
"431","11996.86"
"432","11970.18"
"433","11938.39"
"434","11905.52"
"435","11878.31"
"436","11864.01"
"437","11869.87"
"438","11899.57"
"439","11941.52"
"440","11979.98"
"441","11999.37"
"442","11987.54"
"443","11950.96"
"444","11902.34"
"445","11854.32"
"446","11817.93"
"447","11793.89"
"448","11778.65"
"449","11768.69"
"450","11760.64"
"451","11752.27"
"452","11741.97"
"453","11728.09"
"454","11709.16"
"455","11684.93"
"456","11655.89"
"457","11622.51"
"458","11585.54"
"459","11548.79"
"460","11518.15"
"461","11499.46"
"462","11497.73"
"463","11506.03"
"464","11508.54"
"465","11489.32"
"466","11433.96"
"467","11352.78"
"468","11276.62"
"469","11236.77"
"470","11262.48"
"471","11346.04"
"472","11445.99"
"473","11519.86"
"474","11527.13"
"475","11466.27"
"476","11374.36"
"477","11289.92"
"478","11250.15"
"479","11263.44"
"480","11307.69"
"481","11359.49"
"482","11396.06"
"483","11409.46"
"484","11408.3"
"485","11402.01"
"486","11399.79"
"487","11404.7"
"488","11412.72"
"489","11419.46"
"490","11420.62"
"491","11413.8"
"492","11398.95"
"493","11376.11"
"494","11345.42"
"495","11309.19"
"496","11272.4"
"497","11240.15"
"498","11217.53"
"499","11209.86"
"500","11222.75"
"501","11261.81"
"502","11332.46"
"503","11434.95"
"504","11563.47"
"505","11711.86"
"506","11875.1"
"507","12081.5"
"508","12397.87"
"509","12892.75"
"510","13632.8"
"511","14641.01"
"512","15892.13"
"513","17358.57"
"514","19009.81"
"515","20737.89"
"516","22353.84"
"517","23665.84"
"518","24488.13"
"519","24747.49"
"520","24480.67"
"521","23728.82"
"522","22536.45"
"523","21017.69"
"524","19349.3"
"525","17709.33"
"526","16268.06"
"527","15081.11"
"528","14110.2"
"529","13314.48"
"530","12654.48"
"531","12107.12"
"532","11661.42"
"533","11306.73"
"534","11032.08"
"535","10822.2"
"536","10659"
"537","10524.47"
"538","10401.8"
"539","10285.32"
"540","10175.69"
"541","10073.66"
"542","9979.803"
"543","9893.693"
"544","9814.388"
"545","9740.942"
"546","9672.748"
"547","9611.358"
"548","9559.219"
"549","9518.755"
"550","9491.489"
"551","9474.049"
"552","9461.414"
"553","9448.598"
"554","9431.374"
"555","9408.8"
"556","9380.833"
"557","9347.431"
"558","9309.764"
"559","9273.247"
"560","9244.197"
"561","9228.898"
"562","9229.389"
"563","9236.125"
"564","9237.627"
"565","9222.507"
"566","9186.435"
"567","9140.197"
"568","9096.509"
"569","9067.901"
"570","9058.327"
"571","9057.375"
"572","9053.3"
"573","9034.67"
"574","9000.139"
"575","8961.456"
"576","8931.199"
"577","8921.371"
"578","8932.107"
"579","8951.67"
"580","8967.859"
"581","8969.299"
"582","8955.997"
"583","8936.602"
"584","8919.929"
"585","8914.002"
"586","8919.305"
"587","8932.068"
"588","8948.489"
"589","8964.392"
"590","8972.997"
"591","8966.473"
"592","8937.019"
"593","8880.894"
"594","8813.211"
"595","8754.505"
"596","8725.228"
"597","8737.356"
"598","8775.833"
"599","8820.231"
"600","8850.264"
"601","8854.53"
"602","8841.232"
"603","8821.172"
"604","8805.008"
"605","8797.531"
"606","8794.537"
"607","8791.072"
"608","8782.397"
"609","8768.889"
"610","8756.374"
"611","8750.927"
"612","8758.106"
"613","8776.553"
"614","8799.842"
"615","8821.455"
"616","8835.556"
"617","8841.804"
"618","8842.558"
"619","8840.191"
"620","8836.976"
"621","8834.691"
"622","8834.966"
"623","8839.415"
"624","8849.196"
"625","8864.001"
"626","8883.232"
"627","8906.277"
"628","8930.401"
"629","8948.59"
"630","8953.331"
"631","8937.372"
"632","8902.365"
"633","8861.432"
"634","8828.41"
"635","8816.28"
"636","8824.385"
"637","8840.826"
"638","8853.407"
"639","8851.22"
"640","8834.308"
"641","8808.377"
"642","8779.156"
"643","8751.635"
"644","8727.173"
"645","8706.003"
"646","8688.361"
"647","8674.16"
"648","8662.411"
"649","8651.955"
"650","8641.642"
"651","8629.916"
"652","8614.551"
"653","8593.259"
"654","8563.949"
"655","8529.108"
"656","8495.864"
"657","8471.519"
"658","8462.782"
"659","8470.19"
"660","8490.568"
"661","8520.693"
"662","8556.608"
"663","8590.263"
"664","8612.217"
"665","8613.064"
"666","8589.053"
"667","8553.162"
"668","8521.429"
"669","8509.695"
"670","8523.455"
"671","8551.211"
"672","8579.927"
"673","8597.064"
"674","8599.719"
"675","8593.938"
"676","8586.102"
"677","8581.915"
"678","8581.341"
"679","8581.356"
"680","8578.917"
"681","8572.39"
"682","8566.269"
"683","8566.716"
"684","8579.862"
"685","8608.13"
"686","8645.681"
"687","8685.564"
"688","8720.975"
"689","8749.008"
"690","8771.434"
"691","8790.292"
"692","8807.634"
"693","8825.705"
"694","8846.872"
"695","8873.498"
"696","8906.676"
"697","8940.842"
"698","8968.263"
"699","8981.235"
"700","8975.375"
"701","8954.685"
"702","8924.47"
"703","8890.018"
"704","8856.545"
"705","8829.172"
"706","8813.007"
"707","8812.3"
"708","8821.144"
"709","8826.957"
"710","8817.07"
"711","8781.946"
"712","8728.062"
"713","8667"
"714","8610.306"
"715","8565.002"
"716","8527.457"
"717","8492.506"
"718","8455.216"
"719","8417.095"
"720","8387.082"
"721","8374.509"
"722","8386.96"
"723","8415.176"
"724","8440.411"
"725","8443.855"
"726","8413.021"
"727","8361.294"
"728","8308.666"
"729","8274.991"
"730","8270.124"
"731","8285.569"
"732","8310.886"
"733","8335.922"
"734","8355.41"
"735","8368.334"
"736","8373.819"
"737","8371.514"
"738","8364.433"
"739","8356.944"
"740","8353.404"
"741","8356.133"
"742","8361.943"
"743","8366.729"
"744","8366.505"
"745","8360.85"
"746","8353.669"
"747","8349.119"
"748","8350.936"
"749","8358.978"
"750","8370.97"
"751","8384.615"
"752","8397.404"
"753","8406.018"
"754","8406.949"
"755","8396.817"
"756","8378.91"
"757","8366.748"
"758","8374.696"
"759","8415.273"
"760","8478.117"
"761","8537.376"
"762","8566.94"
"763","8547.992"
"764","8494.136"
"765","8428"
"766","8372.092"
"767","8340.456"
"768","8332.131"
"769","8344.611"
"770","8375.114"
"771","8416.729"
"772","8459.415"
"773","8493.07"
"774","8509.685"
"775","8511.47"
"776","8503.755"
"777","8491.854"
"778","8479.975"
"779","8470.269"
"780","8464.655"
"781","8464.978"
"782","8471.941"
"783","8485.38"
"784","8505.101"
"785","8530.08"
"786","8555.296"
"787","8574.517"
"788","8581.551"
"789","8572.951"
"790","8550.179"
"791","8515.211"
"792","8470.431"
"793","8423.778"
"794","8387.194"
"795","8372.695"
"796","8388.373"
"797","8425.465"
"798","8470.683"
"799","8510.845"
"800","8538.319"
"801","8554.164"
"802","8560.195"
"803","8558.237"
"804","8550.26"
"805","8538.323"
"806","8524.48"
"807","8510.774"
"808","8499.192"
"809","8491.708"
"810","8490.263"
"811","8495.522"
"812","8506.569"
"813","8522.384"
"814","8541.927"
"815","8563.97"
"816","8587.208"
"817","8610.329"
"818","8631.794"
"819","8649.472"
"820","8661.141"
"821","8664.702"
"822","8660.466"
"823","8650.959"
"824","8638.798"
"825","8626.591"
"826","8616.978"
"827","8612.594"
"828","8616.038"
"829","8626.307"
"830","8636.215"
"831","8637.972"
"832","8624.821"
"833","8601.397"
"834","8579.39"
"835","8570.591"
"836","8582.097"
"837","8605.884"
"838","8630.894"
"839","8646.331"
"840","8648.455"
"841","8641.22"
"842","8628.963"
"843","8615.313"
"844","8599.6"
"845","8579.549"
"846","8552.94"
"847","8522.993"
"848","8503.047"
"849","8507.539"
"850","8548.921"
"851","8616.96"
"852","8686.961"
"853","8734.008"
"854","8742.65"
"855","8727.325"
"856","8708.347"
"857","8705.385"
"858","8722.834"
"859","8749.459"
"860","8773.325"
"861","8785.384"
"862","8791.883"
"863","8804.117"
"864","8833.219"
"865","8880.479"
"866","8931.606"
"867","8970.94"
"868","8985.095"
"869","8980.624"
"870","8974.393"
"871","8983.332"
"872","9017.146"
"873","9068.209"
"874","9126.343"
"875","9181.456"
"876","9224.741"
"877","9248.354"
"878","9244.489"
"879","9210.875"
"880","9165.177"
"881","9129.536"
"882","9125.374"
"883","9155.31"
"884","9201.726"
"885","9246.004"
"886","9272.789"
"887","9283.808"
"888","9286.341"
"889","9287.631"
"890","9292.681"
"891","9303.208"
"892","9320.668"
"893","9345.302"
"894","9368.372"
"895","9377.114"
"896","9358.836"
"897","9311.82"
"898","9255.707"
"899","9212.601"
"900","9202.191"
"901","9219.477"
"902","9244.959"
"903","9258.97"
"904","9249.997"
"905","9227.021"
"906","9202.191"
"907","9186.946"
"908","9182.741"
"909","9183.683"
"910","9183.706"
"911","9179.391"
"912","9175.655"
"913","9179.066"
"914","9195.734"
"915","9223.246"
"916","9251.602"
"917","9270.54"
"918","9272.366"
"919","9259.26"
"920","9235.768"
"921","9206.556"
"922","9179.28"
"923","9164.695"
"924","9173.701"
"925","9213.351"
"926","9273.385"
"927","9338.683"
"928","9394.394"
"929","9434.375"
"930","9462.693"
"931","9483.99"
"932","9501.912"
"933","9515.007"
"934","9520.214"
"935","9514.594"
"936","9499.902"
"937","9483.916"
"938","9474.803"
"939","9479.081"
"940","9494.137"
"941","9514.214"
"942","9533.578"
"943","9547.607"
"944","9553.198"
"945","9547.345"
"946","9528.18"
"947","9500.399"
"948","9471.069"
"949","9447.186"
"950","9432.587"
"951","9426.716"
"952","9428.696"
"953","9437.521"
"954","9451.459"
"955","9468.509"
"956","9486.64"
"957","9502.26"
"958","9509.632"
"959","9502.858"
"960","9477.938"
"961","9441.645"
"962","9404.581"
"963","9377.228"
"964","9365.213"
"965","9367.705"
"966","9383.426"
"967","9410.079"
"968","9439.936"
"969","9463.438"
"970","9471.28"
"971","9462.575"
"972","9446.877"
"973","9434.397"
"974","9432.713"
"975","9436.646"
"976","9437.151"
"977","9425.509"
"978","9402.36"
"979","9378.843"
"980","9366.659"
"981","9374.139"
"982","9395.293"
"983","9420.328"
"984","9439.614"
"985","9447.254"
"986","9441.036"
"987","9418.902"
"988","9382.57"
"989","9347.342"
"990","9331.589"
"991","9352.439"
"992","9405.696"
"993","9469.273"
"994","9520.518"
"995","9544.23"
"996","9547.244"
"997","9540.437"
"998","9534.074"
"999","9530.427"
"1000","9526.224"
"1001","9518.092"
"1002","9505.583"
"1003","9495.159"
"1004","9494.281"
"1005","9510.417"
"1006","9549.273"
"1007","9604.751"
"1008","9665.868"
"1009","9721.693"
"1010","9764.507"
"1011","9791.181"
"1012","9798.951"
"1013","9786.852"
"1014","9763.709"
"1015","9741.665"
"1016","9732.592"
"1017","9739.683"
"1018","9755.921"
"1019","9773.707"
"1020","9786.637"
"1021","9793.378"
"1022","9793.935"
"1023","9788.361"
"1024","9777.656"
"1025","9763.71"
"1026","9748.437"
"1027","9734.544"
"1028","9727.221"
"1029","9732.145"
"1030","9754.211"
"1031","9788.048"
"1032","9821.085"
"1033","9840.62"
"1034","9841.276"
"1035","9834.307"
"1036","9833.267"
"1037","9849.927"
"1038","9880.787"
"1039","9914.596"
"1040","9940.106"
"1041","9950.632"
"1042","9946.784"
"1043","9929.828"
"1044","9902.307"
"1045","9873.84"
"1046","9856.5"
"1047","9861.872"
"1048","9888.012"
"1049","9918.143"
"1050","9934.722"
"1051","9926.4"
"1052","9903.735"
"1053","9882.114"
"1054","9875.842"
"1055","9884.209"
"1056","9895.612"
"1057","9898.242"
"1058","9888.27"
"1059","9879.354"
"1060","9887.468"
"1061","9925.469"
"1062","9982.692"
"1063","10037.78"
"1064","10069.62"
"1065","10070.42"
"1066","10050.3"
"1067","10020.64"
"1068","9990.78"
"1069","9961.421"
"1070","9930.973"
"1071","9898.104"
"1072","9865.714"
"1073","9840.106"
"1074","9827.67"
"1075","9828.772"
"1076","9829.749"
"1077","9814.918"
"1078","9772.225"
"1079","9717.206"
"1080","9678.124"
"1081","9682.596"
"1082","9730.107"
"1083","9783.65"
"1084","9803.745"
"1085","9765.086"
"1086","9696.718"
"1087","9640.719"
"1088","9635.693"
"1089","9673.922"
"1090","9714.884"
"1091","9717.544"
"1092","9666.497"
"1093","9595.729"
"1094","9544.882"
"1095","9545.518"
"1096","9582.268"
"1097","9622.875"
"1098","9636.169"
"1099","9616.224"
"1100","9581.997"
"1101","9553.508"
"1102","9544.709"
"1103","9553.396"
"1104","9574.694"
"1105","9603.275"
"1106","9630.162"
"1107","9644.604"
"1108","9636.216"
"1109","9608.271"
"1110","9581.234"
"1111","9576.689"
"1112","9606.85"
"1113","9652.147"
"1114","9686.269"
"1115","9685.891"
"1116","9658.643"
"1117","9630.335"
"1118","9626.704"
"1119","9655.656"
"1120","9698.744"
"1121","9735.395"
"1122","9749.266"
"1123","9740.769"
"1124","9714.439"
"1125","9675.178"
"1126","9632.137"
"1127","9597.259"
"1128","9582.399"
"1129","9590.675"
"1130","9611.252"
"1131","9632.044"
"1132","9643.446"
"1133","9646.196"
"1134","9643.72"
"1135","9639.441"
"1136","9636.764"
"1137","9639.071"
"1138","9649.734"
"1139","9670.474"
"1140","9700.419"
"1141","9738.479"
"1142","9780.857"
"1143","9813.054"
"1144","9817.889"
"1145","9780.773"
"1146","9715.817"
"1147","9654.99"
"1148","9630.106"
"1149","9651.016"
"1150","9696.067"
"1151","9741.167"
"1152","9767.815"
"1153","9776.952"
"1154","9773.714"
"1155","9763.036"
"1156","9748.026"
"1157","9730.804"
"1158","9713.554"
"1159","9700.4"
"1160","9697.803"
"1161","9712.355"
"1162","9745.901"
"1163","9787.235"
"1164","9822.92"
"1165","9841.37"
"1166","9843.592"
"1167","9835.833"
"1168","9824.084"
"1169","9808.814"
"1170","9785.397"
"1171","9749.074"
"1172","9703.742"
"1173","9670.683"
"1174","9673.281"
"1175","9725.671"
"1176","9798.73"
"1177","9850.692"
"1178","9843.993"
"1179","9791.083"
"1180","9737.064"
"1181","9726.898"
"1182","9772.985"
"1183","9843.109"
"1184","9901.812"
"1185","9923.655"
"1186","9912.952"
"1187","9879.486"
"1188","9833.331"
"1189","9786.438"
"1190","9751.543"
"1191","9740.801"
"1192","9755.552"
"1193","9787.74"
"1194","9829.007"
"1195","9872.415"
"1196","9913.552"
"1197","9948.251"
"1198","9972.138"
"1199","9980.059"
"1200","9966.668"
"1201","9928.411"
"1202","9876.858"
"1203","9831.171"
"1204","9810.097"
"1205","9821.058"
"1206","9860.211"
"1207","9923.153"
"1208","9998.306"
"1209","10060.04"
"1210","10081.08"
"1211","10044.04"
"1212","9971.755"
"1213","9897.21"
"1214","9850.631"
"1215","9837.783"
"1216","9851.796"
"1217","9885.569"
"1218","9929.472"
"1219","9971.381"
"1220","9999.109"
"1221","10006.44"
"1222","9998.322"
"1223","9980.929"
"1224","9960.274"
"1225","9941.745"
"1226","9930.588"
"1227","9931.136"
"1228","9940.757"
"1229","9953.641"
"1230","9964.202"
"1231","9971.135"
"1232","9976.76"
"1233","9983.482"
"1234","9991.882"
"1235","9999.716"
"1236","10004.5"
"1237","10004.98"
"1238","10003.37"
"1239","10002.52"
"1240","10005.15"
"1241","10013.3"
"1242","10028.79"
"1243","10053.09"
"1244","10084.04"
"1245","10117.17"
"1246","10147.95"
"1247","10170.84"
"1248","10179.19"
"1249","10166.38"
"1250","10134.32"
"1251","10101.37"
"1252","10087.73"
"1253","10105.58"
"1254","10139.36"
"1255","10167.5"
"1256","10172.5"
"1257","10163.16"
"1258","10158.59"
"1259","10176.1"
"1260","10209.54"
"1261","10236.79"
"1262","10236.1"
"1263","10206.53"
"1264","10170.74"
"1265","10152.56"
"1266","10162.39"
"1267","10185"
"1268","10202.3"
"1269","10201.89"
"1270","10190.07"
"1271","10176.89"
"1272","10171.01"
"1273","10172.82"
"1274","10179.84"
"1275","10189.74"
"1276","10201.98"
"1277","10217.05"
"1278","10235.26"
"1279","10252.52"
"1280","10260.62"
"1281","10251.35"
"1282","10224.27"
"1283","10190.66"
"1284","10162.74"
"1285","10148.35"
"1286","10144.74"
"1287","10147.61"
"1288","10153.33"
"1289","10160.89"
"1290","10169.9"
"1291","10179.81"
"1292","10188.85"
"1293","10194.74"
"1294","10195.68"
"1295","10194.95"
"1296","10198.99"
"1297","10213.95"
"1298","10238.27"
"1299","10263.04"
"1300","10279.16"
"1301","10281.28"
"1302","10269.52"
"1303","10244.42"
"1304","10211.01"
"1305","10184.04"
"1306","10179.51"
"1307","10206.47"
"1308","10250.89"
"1309","10293.96"
"1310","10319.68"
"1311","10326.44"
"1312","10317.25"
"1313","10295.67"
"1314","10269.73"
"1315","10249.66"
"1316","10244.64"
"1317","10250.47"
"1318","10253.56"
"1319","10240.78"
"1320","10213.23"
"1321","10186.14"
"1322","10175.17"
"1323","10184.97"
"1324","10204.69"
"1325","10222.39"
"1326","10232.43"
"1327","10241.73"
"1328","10258.7"
"1329","10287.71"
"1330","10321.64"
"1331","10351.33"
"1332","10370.63"
"1333","10385.62"
"1334","10405.5"
"1335","10436.65"
"1336","10468.9"
"1337","10486.1"
"1338","10475.23"
"1339","10449.89"
"1340","10437.08"
"1341","10461.01"
"1342","10510.04"
"1343","10548.08"
"1344","10540.34"
"1345","10485.98"
"1346","10414.92"
"1347","10357.65"
"1348","10326.81"
"1349","10313.72"
"1350","10308.53"
"1351","10306.05"
"1352","10308.35"
"1353","10318.14"
"1354","10335.9"
"1355","10357.56"
"1356","10378.52"
"1357","10393.92"
"1358","10398.34"
"1359","10386.26"
"1360","10355.83"
"1361","10318.19"
"1362","10287.35"
"1363","10274.67"
"1364","10279.48"
"1365","10297.65"
"1366","10324.74"
"1367","10354.68"
"1368","10380.78"
"1369","10397.03"
"1370","10403.04"
"1371","10400.96"
"1372","10392.63"
"1373","10375.95"
"1374","10346.56"
"1375","10301.18"
"1376","10251.29"
"1377","10218.87"
"1378","10224.82"
"1379","10265.78"
"1380","10317.39"
"1381","10355.07"
"1382","10365.96"
"1383","10349.37"
"1384","10305.5"
"1385","10246.41"
"1386","10198.75"
"1387","10189.59"
"1388","10220.05"
"1389","10253.34"
"1390","10250.06"
"1391","10200.98"
"1392","10148.7"
"1393","10140.72"
"1394","10194.4"
"1395","10266.71"
"1396","10307.48"
"1397","10289.96"
"1398","10241.85"
"1399","10198.57"
"1400","10183.34"
"1401","10186.59"
"1402","10193.27"
"1403","10193.29"
"1404","10191.8"
"1405","10196.9"
"1406","10213.03"
"1407","10231.83"
"1408","10242.14"
"1409","10236.81"
"1410","10224.8"
"1411","10219.09"
"1412","10229.48"
"1413","10251.85"
"1414","10278.16"
"1415","10300.53"
"1416","10311.84"
"1417","10305.2"
"1418","10276.54"
"1419","10237.01"
"1420","10202.94"
"1421","10187.44"
"1422","10184.43"
"1423","10180.82"
"1424","10166.47"
"1425","10150.24"
"1426","10148.5"
"1427","10173.89"
"1428","10213.14"
"1429","10242.14"
"1430","10240.96"
"1431","10220.73"
"1432","10206.25"
"1433","10218.06"
"1434","10243.29"
"1435","10253.65"
"1436","10225.77"
"1437","10176.14"
"1438","10140.29"
"1439","10148.24"
"1440","10183.48"
"1441","10206.68"
"1442","10183.7"
"1443","10125.23"
"1444","10064.31"
"1445","10031.13"
"1446","10030.19"
"1447","10053.12"
"1448","10091.01"
"1449","10131.74"
"1450","10161.5"
"1451","10168"
"1452","10151.34"
"1453","10117.86"
"1454","10074.08"
"1455","10027.96"
"1456","9988.128"
"1457","9962.557"
"1458","9953.834"
"1459","9962.008"
"1460","9986.398"
"1461","10021.07"
"1462","10057.64"
"1463","10087.05"
"1464","10095.36"
"1465","10066.5"
"1466","9990.072"
"1467","9894.576"
"1468","9824.734"
"1469","9817.358"
"1470","9858.435"
"1471","9914.033"
"1472","9953.586"
"1473","9966.644"
"1474","9950.076"
"1475","9905.247"
"1476","9857.661"
"1477","9840.941"
"1478","9876.983"
"1479","9930.113"
"1480","9947.004"
"1481","9891.844"
"1482","9806.356"
"1483","9753.71"
"1484","9777.875"
"1485","9846.87"
"1486","9909.937"
"1487","9928.769"
"1488","9908.737"
"1489","9864.755"
"1490","9812.553"
"1491","9770.319"
"1492","9756.71"
"1493","9779.049"
"1494","9814.214"
"1495","9834.061"
"1496","9823.357"
"1497","9796.945"
"1498","9773.895"
"1499","9764.376"
"1500","9760.663"
"1501","9752.97"
"1502","9738.185"
"1503","9724.721"
"1504","9722.029"
"1505","9733.117"
"1506","9751.521"
"1507","9770.023"
"1508","9782.091"
"1509","9782.042"
"1510","9764.63"
"1511","9734.343"
"1512","9705.962"
"1513","9694.172"
"1514","9702.544"
"1515","9724.822"
"1516","9754.1"
"1517","9779.168"
"1518","9785.671"
"1519","9761.093"
"1520","9713.426"
"1521","9663.01"
"1522","9628.61"
"1523","9614.523"
"1524","9617.99"
"1525","9635.292"
"1526","9656.909"
"1527","9671.061"
"1528","9668.322"
"1529","9650.883"
"1530","9624.478"
"1531","9595.466"
"1532","9572.52"
"1533","9564.867"
"1534","9576.675"
"1535","9597.455"
"1536","9614.073"
"1537","9618.498"
"1538","9614.079"
"1539","9605.717"
"1540","9599.07"
"1541","9601.088"
"1542","9618.6"
"1543","9648.138"
"1544","9672.627"
"1545","9674.89"
"1546","9658.051"
"1547","9645.822"
"1548","9660.9"
"1549","9696.311"
"1550","9722.154"
"1551","9711.095"
"1552","9668.073"
"1553","9616.782"
"1554","9578.774"
"1555","9558.706"
"1556","9553.992"
"1557","9561"
"1558","9571.049"
"1559","9573.875"
"1560","9564.2"
"1561","9554.188"
"1562","9559.798"
"1563","9587.431"
"1564","9619.841"
"1565","9636.297"
"1566","9628.224"
"1567","9608.473"
"1568","9591.862"
"1569","9584.909"
"1570","9583.617"
"1571","9583.421"
"1572","9581.866"
"1573","9578.403"
"1574","9572.674"
"1575","9565.684"
"1576","9559.308"
"1577","9554.873"
"1578","9549.518"
"1579","9538.515"
"1580","9519.505"
"1581","9501.513"
"1582","9496.998"
"1583","9512.771"
"1584","9537.755"
"1585","9557.339"
"1586","9561.335"
"1587","9548.837"
"1588","9520.305"
"1589","9485.043"
"1590","9464.918"
"1591","9481.294"
"1592","9523.537"
"1593","9550.188"
"1594","9523.247"
"1595","9460.267"
"1596","9414.766"
"1597","9430.84"
"1598","9482.609"
"1599","9514.503"
"1600","9487.953"
"1601","9438.025"
"1602","9419.512"
"1603","9460.778"
"1604","9519.442"
"1605","9541.832"
"1606","9509.041"
"1607","9461.271"
"1608","9443.328"
"1609","9467.956"
"1610","9512.744"
"1611","9553.809"
"1612","9571.876"
"1613","9550.91"
"1614","9480.569"
"1615","9391.543"
"1616","9332.691"
"1617","9340.209"
"1618","9395.791"
"1619","9466.622"
"1620","9525.162"
"1621","9557.268"
"1622","9551.076"
"1623","9506.938"
"1624","9444.004"
"1625","9382.951"
"1626","9342.163"
"1627","9337.842"
"1628","9382.486"
"1629","9451.708"
"1630","9499.608"
"1631","9490.481"
"1632","9446.618"
"1633","9410.214"
"1634","9409.262"
"1635","9427.473"
"1636","9440.058"
"1637","9432.088"
"1638","9406.334"
"1639","9367.687"
"1640","9327.876"
"1641","9305.923"
"1642","9318.253"
"1643","9347.969"
"1644","9357.186"
"1645","9317.46"
"1646","9256.953"
"1647","9224.102"
"1648","9246.918"
"1649","9289.672"
"1650","9304.594"
"1651","9274.282"
"1652","9233.85"
"1653","9222.14"
"1654","9243.07"
"1655","9265.995"
"1656","9262.542"
"1657","9241.106"
"1658","9230.757"
"1659","9251.793"
"1660","9280.628"
"1661","9280.354"
"1662","9232.691"
"1663","9166.669"
"1664","9118.345"
"1665","9104.603"
"1666","9115.833"
"1667","9140.648"
"1668","9170.156"
"1669","9197.362"
"1670","9216.241"
"1671","9226.999"
"1672","9232.4"
"1673","9233.878"
"1674","9228.344"
"1675","9211.877"
"1676","9188.818"
"1677","9177.752"
"1678","9197.188"
"1679","9235.649"
"1680","9253.969"
"1681","9218.452"
"1682","9148.982"
"1683","9091.573"
"1684","9081.2"
"1685","9109.3"
"1686","9156.775"
"1687","9203.694"
"1688","9228.587"
"1689","9211.066"
"1690","9160.317"
"1691","9114.804"
"1692","9108.925"
"1693","9130.843"
"1694","9145.149"
"1695","9126.254"
"1696","9087.964"
"1697","9053.658"
"1698","9035.11"
"1699","9022.311"
"1700","9003.537"
"1701","8981.969"
"1702","8974.906"
"1703","8996.876"
"1704","9036.136"
"1705","9068.539"
"1706","9077.146"
"1707","9070.523"
"1708","9062.73"
"1709","9061.86"
"1710","9066.198"
"1711","9073.197"
"1712","9081.546"
"1713","9090.923"
"1714","9099.701"
"1715","9097.891"
"1716","9072.286"
"1717","9022.134"
"1718","8980.802"
"1719","8986.494"
"1720","9038.971"
"1721","9088.764"
"1722","9088.116"
"1723","9043.771"
"1724","8995.938"
"1725","8976.22"
"1726","8975.987"
"1727","8975.652"
"1728","8969.114"
"1729","8976.219"
"1730","9018.01"
"1731","9081.68"
"1732","9124.066"
"1733","9109.093"
"1734","9055.485"
"1735","9004.368"
"1736","8982.878"
"1737","8979.322"
"1738","8975.756"
"1739","8967.359"
"1740","8965.415"
"1741","8980.861"
"1742","9011.729"
"1743","9048.863"
"1744","9082.716"
"1745","9102.623"
"1746","9097.803"
"1747","9067.331"
"1748","9025.854"
"1749","8988.896"
"1750","8965.272"
"1751","8959.074"
"1752","8970.752"
"1753","8983.944"
"1754","8977.435"
"1755","8946.424"
"1756","8917.554"
"1757","8919.287"
"1758","8950.121"
"1759","8983.617"
"1760","8996.931"
"1761","8991.969"
"1762","8979.255"
"1763","8967.77"
"1764","8963.089"
"1765","8970.133"
"1766","8989.505"
"1767","9017.828"
"1768","9048.813"
"1769","9059.201"
"1770","9019.303"
"1771","8926.796"
"1772","8843.339"
"1773","8836.717"
"1774","8907.518"
"1775","8991.571"
"1776","9030.398"
"1777","9019.207"
"1778","8974.254"
"1779","8917.448"
"1780","8883.718"
"1781","8907.691"
"1782","8977.555"
"1783","9037.552"
"1784","9038.858"
"1785","8985.845"
"1786","8902.863"
"1787","8821.363"
"1788","8788.141"
"1789","8848.02"
"1790","8970.919"
"1791","9061.374"
"1792","9042.904"
"1793","8954.119"
"1794","8872.082"
"1795","8845.537"
"1796","8868.389"
"1797","8927.187"
"1798","8992.58"
"1799","9023.159"
"1800","8989.518"
"1801","8917.626"
"1802","8848.788"
"1803","8810.606"
"1804","8808.714"
"1805","8845.121"
"1806","8903.577"
"1807","8956.543"
"1808","8983.405"
"1809","8988.313"
"1810","8980.851"
"1811","8972.323"
"1812","8976.196"
"1813","9001.229"
"1814","9018.222"
"1815","8980.181"
"1816","8876.041"
"1817","8786.037"
"1818","8799.846"
"1819","8906.558"
"1820","9002.093"
"1821","9001.905"
"1822","8944.884"
"1823","8910.249"
"1824","8931.763"
"1825","8962.921"
"1826","8953.81"
"1827","8910.946"
"1828","8877.177"
"1829","8880.39"
"1830","8894.997"
"1831","8884.84"
"1832","8842.626"
"1833","8794.945"
"1834","8767.853"
"1835","8770.298"
"1836","8804.106"
"1837","8858.441"
"1838","8895.884"
"1839","8879.521"
"1840","8828.502"
"1841","8803.51"
"1842","8843.601"
"1843","8900.157"
"1844","8904.88"
"1845","8847.635"
"1846","8791.682"
"1847","8795.98"
"1848","8854.674"
"1849","8933.899"
"1850","9001.356"
"1851","9028.435"
"1852","8990.661"
"1853","8914.35"
"1854","8862.514"
"1855","8878.715"
"1856","8932.857"
"1857","8978.889"
"1858","8993.997"
"1859","8982.159"
"1860","8950.591"
"1861","8917.074"
"1862","8903.284"
"1863","8916.941"
"1864","8940.514"
"1865","8954.902"
"1866","8952.781"
"1867","8933.843"
"1868","8901.725"
"1869","8870.93"
"1870","8857.178"
"1871","8862.409"
"1872","8876.202"
"1873","8889.05"
"1874","8897.482"
"1875","8899.605"
"1876","8890.877"
"1877","8863.29"
"1878","8813.309"
"1879","8769.18"
"1880","8772.042"
"1881","8831.043"
"1882","8895.196"
"1883","8913.196"
"1884","8900.426"
"1885","8911.7"
"1886","8973.278"
"1887","9033.874"
"1888","9032.885"
"1889","8968.146"
"1890","8885.055"
"1891","8822.544"
"1892","8789.82"
"1893","8788.96"
"1894","8816.255"
"1895","8861.716"
"1896","8913.063"
"1897","8948.114"
"1898","8942.039"
"1899","8898.111"
"1900","8859.379"
"1901","8863.038"
"1902","8884.266"
"1903","8872.366"
"1904","8814.603"
"1905","8767.091"
"1906","8784.636"
"1907","8842.189"
"1908","8871.871"
"1909","8837.888"
"1910","8778.261"
"1911","8738.869"
"1912","8736.515"
"1913","8768.757"
"1914","8824.216"
"1915","8867.64"
"1916","8862.318"
"1917","8814.707"
"1918","8765.425"
"1919","8745.379"
"1920","8749.571"
"1921","8765.16"
"1922","8773.06"
"1923","8748.42"
"1924","8684.106"
"1925","8643.434"
"1926","8703.008"
"1927","8835.146"
"1928","8903.126"
"1929","8809.881"
"1930","8660.295"
"1931","8611.693"
"1932","8687.375"
"1933","8755.318"
"1934","8709.963"
"1935","8622.007"
"1936","8614.128"
"1937","8705.206"
"1938","8783.979"
"1939","8755.477"
"1940","8657.902"
"1941","8573.112"
"1942","8543.538"
"1943","8559.339"
"1944","8606.688"
"1945","8669.683"
"1946","8731.616"
"1947","8774.998"
"1948","8781.31"
"1949","8740.072"
"1950","8687.765"
"1951","8676.648"
"1952","8710.982"
"1953","8729.175"
"1954","8680.562"
"1955","8605.012"
"1956","8573.326"
"1957","8602.415"
"1958","8636.576"
"1959","8627.32"
"1960","8594.924"
"1961","8582.325"
"1962","8596.038"
"1963","8595.575"
"1964","8549.917"
"1965","8493.541"
"1966","8480.751"
"1967","8519.66"
"1968","8562.625"
"1969","8567.898"
"1970","8537.869"
"1971","8488.229"
"1972","8441.993"
"1973","8430.24"
"1974","8471.42"
"1975","8528.869"
"1976","8553.092"
"1977","8533.69"
"1978","8498.766"
"1979","8469.904"
"1980","8438.827"
"1981","8391.785"
"1982","8338.781"
"1983","8310.189"
"1984","8322.277"
"1985","8345.793"
"1986","8345.61"
"1987","8327.338"
"1988","8326.268"
"1989","8359.492"
"1990","8396.071"
"1991","8400.653"
"1992","8372.064"
"1993","8329.777"
"1994","8288.672"
"1995","8253.504"
"1996","8227.932"
"1997","8216.544"
"1998","8224.195"
"1999","8241.904"
"2000","8238.074"
"2001","8189.408"
"2002","8137.049"
"2003","8145.012"
"2004","8212.522"
"2005","8255.822"
"2006","8209.409"
"2007","8117.112"
"2008","8052.081"
"2009","8041.711"
"2010","8068.465"
"2011","8107.299"
"2012","8114.726"
"2013","8049.157"
"2014","7951.111"
"2015","7921.377"
"2016","8005.288"
"2017","8112.043"
"2018","8141.632"
"2019","8094.375"
"2020","8024.047"
"2021","7971.042"
"2022","7952.006"
"2023","7978.481"
"2024","8044.701"
"2025","8137.408"
"2026","8210.808"
"2027","8180.202"
"2028","8003.785"
"2029","7820.81"
"2030","7804.441"
"2031","7930.422"
"2032","8010.899"
"2033","7938.041"
"2034","7826.222"
"2035","7810.37"
"2036","7876.284"
"2037","7927.24"
"2038","7913.366"
"2039","7866.15"
"2040","7818.086"
"2041","7761.323"
"2042","7675.142"
"2043","7582.34"
"2044","7553.919"
"2045","7627.894"
"2046","7718.02"
"2047","7720.197"
"2048","7656.438"
"2049","7637.696"
"2050","7709.466"
"2051","7774.985"
"2052","7739.74"
"2053","7656.009"
"2054","7637.26"
"2055","7693.027"
"2056","7698.756"
"2057","7571.694"
"2058","7433.529"
"2059","7446.154"
"2060","7595.864"
"2061","7732.373"
"2062","7757.101"
"2063","7697.384"
"2064","7598.539"
"2065","7510.064"
"2066","7482.215"
"2067","7514.608"
"2068","7540.877"
"2069","7509.005"
"2070","7441.822"
"2071","7380.073"
"2072","7355.394"
"2073","7392.431"
"2074","7478.8"
"2075","7524.661"
"2076","7452.995"
"2077","7339.039"
"2078","7316.672"
"2079","7407.001"
"2080","7501.2"
"2081","7511.563"
"2082","7445.266"
"2083","7330.406"
"2084","7208.583"
"2085","7129.516"
"2086","7112.31"
"2087","7123.848"
"2088","7132.924"
"2089","7144.144"
"2090","7172.138"
"2091","7207.386"
"2092","7218.958"
"2093","7189.367"
"2094","7135.564"
"2095","7079.777"
"2096","7045.016"
"2097","7053.906"
"2098","7102.804"
"2099","7156.471"
"2100","7183.395"
"2101","7171.082"
"2102","7114.788"
"2103","7050.012"
"2104","7035.511"
"2105","7078.783"
"2106","7107.065"
"2107","7061.615"
"2108","6976.266"
"2109","6907.898"
"2110","6879.221"
"2111","6887.249"
"2112","6913.987"
"2113","6913.768"
"2114","6854.02"
"2115","6791.669"
"2116","6808.947"
"2117","6887.613"
"2118","6919.732"
"2119","6861.092"
"2120","6820.898"
"2121","6901.872"
"2122","7023.901"
"2123","7039.34"
"2124","6935.344"
"2125","6836.492"
"2126","6815.581"
"2127","6794.665"
"2128","6692.157"
"2129","6577.714"
"2130","6583.393"
"2131","6702.74"
"2132","6775.639"
"2133","6703.399"
"2134","6582.181"
"2135","6525.733"
"2136","6518.994"
"2137","6488.748"
"2138","6433.421"
"2139","6434.13"
"2140","6528.789"
"2141","6618.397"
"2142","6597.267"
"2143","6501.356"
"2144","6431.768"
"2145","6432.112"
"2146","6479.982"
"2147","6542.836"
"2148","6570.147"
"2149","6520.702"
"2150","6447.561"
"2151","6443.143"
"2152","6505.962"
"2153","6533.142"
"2154","6469.167"
"2155","6394.219"
"2156","6393.702"
"2157","6440.461"
"2158","6463.441"
"2159","6452.93"
"2160","6459.09"
"2161","6493.248"
"2162","6472.529"
"2163","6329.594"
"2164","6163.908"
"2165","6125.534"
"2166","6198.372"
"2167","6226.691"
"2168","6150.478"
"2169","6102.649"
"2170","6194.02"
"2171","6325.692"
"2172","6348.879"
"2173","6274.786"
"2174","6224.978"
"2175","6236.895"
"2176","6213.222"
"2177","6089.268"
"2178","5963.819"
"2179","5958.482"
"2180","6052.716"
"2181","6148.748"
"2182","6179.393"
"2183","6115.687"
"2184","5963.258"
"2185","5816.053"
"2186","5765.29"
"2187","5782.017"
"2188","5791.06"
"2189","5774.815"
"2190","5767.837"
"2191","5795.091"
"2192","5858.886"
"2193","5942.334"
"2194","5953.268"
"2195","5794.134"
"2196","5557.803"
"2197","5456.447"
"2198","5540.888"
"2199","5638.046"
"2200","5626.105"
"2201","5587.764"
"2202","5624.68"
"2203","5698.469"
"2204","5713.694"
"2205","5650.307"
"2206","5558.125"
"2207","5483.332"
"2208","5459.754"
"2209","5503.601"
"2210","5560.592"
"2211","5563.97"
"2212","5518.01"
"2213","5468.459"
"2214","5436.286"
"2215","5411.466"
"2216","5385.941"
"2217","5361.558"
"2218","5342.587"
"2219","5338.138"
"2220","5357.747"
"2221","5391.958"
"2222","5417.231"
"2223","5415.932"
"2224","5379.896"
"2225","5318.124"
"2226","5291.106"
"2227","5349.493"
"2228","5402.66"
"2229","5309.331"
"2230","5109.65"
"2231","4999.762"
"2232","5053.521"
"2233","5125.362"
"2234","5100.809"
"2235","5055.315"
"2236","5085.271"
"2237","5116.11"
"2238","5001.488"
"2239","4783.988"
"2240","4681.762"
"2241","4777.798"
"2242","4895.96"
"2243","4889.325"
"2244","4824.931"
"2245","4803.574"
"2246","4793.551"
"2247","4705.247"
"2248","4574.664"
"2249","4554.55"
"2250","4684.114"
"2251","4790.859"
"2252","4743.576"
"2253","4640.035"
"2254","4608.87"
"2255","4621.282"
"2256","4580.719"
"2257","4466.967"
"2258","4326.675"
"2259","4205.664"
"2260","4144.578"
"2261","4159.267"
"2262","4187.98"
"2263","4165.27"
"2264","4103.162"
"2265","4042.914"
"2266","4001.135"
"2267","3975.738"
"2268","3962.879"
"2269","3956.87"
"2270","3936.9"
"2271","3843.293"
"2272","3636.837"
"2273","3416.566"
"2274","3315.069"
"2275","3344.924"
"2276","3444.862"
"2277","3528.217"
"2278","3482.265"
"2279","3286.704"
"2280","3108.646"
"2281","3076.177"
"2282","3083.633"
"2283","2997.021"
"2284","2885.566"
"2285","2897.669"
"2286","2976.146"
"2287","2899.932"
"2288","2631.082"
"2289","2401.588"
"2290","2359.139"
"2291","2377.36"
"2292","2322.619"
"2293","2242.166"
"2294","2226.496"
"2295","2250.031"
"2296","2225.345"
"2297","2128.63"
"2298","1998.585"
"2299","1866.866"
"2300","1748.768"
