,"Scan 01055"
"400","11504.41"
"401","11460.82"
"402","11413.84"
"403","11382.73"
"404","11386.61"
"405","11441.04"
"406","11532"
"407","11630.58"
"408","11707.97"
"409","11737.74"
"410","11722.2"
"411","11683.61"
"412","11644.47"
"413","11626.27"
"414","11632.84"
"415","11651.59"
"416","11669.39"
"417","11673.46"
"418","11660.68"
"419","11639.76"
"420","11620.1"
"421","11610.93"
"422","11615.92"
"423","11629.79"
"424","11646.46"
"425","11659.93"
"426","11665.02"
"427","11658.28"
"428","11636.46"
"429","11596.38"
"430","11539.76"
"431","11481.6"
"432","11438.99"
"433","11428.93"
"434","11460.81"
"435","11518.02"
"436","11578.5"
"437","11620.3"
"438","11627.08"
"439","11606.4"
"440","11572.34"
"441","11538.87"
"442","11517.92"
"443","11510.88"
"444","11515.54"
"445","11529.71"
"446","11550.54"
"447","11570.81"
"448","11581.5"
"449","11573.62"
"450","11540.15"
"451","11489.55"
"452","11437.89"
"453","11401.17"
"454","11393.28"
"455","11407.74"
"456","11426.44"
"457","11431.23"
"458","11405.82"
"459","11355.33"
"460","11298.93"
"461","11255.98"
"462","11244.31"
"463","11262.23"
"464","11293.45"
"465","11321.45"
"466","11330.54"
"467","11318.41"
"468","11293.77"
"469","11265.67"
"470","11242.84"
"471","11229.73"
"472","11226.78"
"473","11234.31"
"474","11252.43"
"475","11276.78"
"476","11298.53"
"477","11308.75"
"478","11298.9"
"479","11269.67"
"480","11231.57"
"481","11195.5"
"482","11172.06"
"483","11164.71"
"484","11168.98"
"485","11179.98"
"486","11192.89"
"487","11203.56"
"488","11208.62"
"489","11204.79"
"490","11188.87"
"491","11160.54"
"492","11122.88"
"493","11079.18"
"494","11032.63"
"495","10984.25"
"496","10932.51"
"497","10875.69"
"498","10812.22"
"499","10744.49"
"500","10679.63"
"501","10625.05"
"502","10587.81"
"503","10565.48"
"504","10544.42"
"505","10510.37"
"506","10449.69"
"507","10364.49"
"508","10275.01"
"509","10202.44"
"510","10167.18"
"511","10172.48"
"512","10202.52"
"513","10240.59"
"514","10270.37"
"515","10283.04"
"516","10277.61"
"517","10253.49"
"518","10210.4"
"519","10155.38"
"520","10102.6"
"521","10066.44"
"522","10060.42"
"523","10082.5"
"524","10116.62"
"525","10146.32"
"526","10155.91"
"527","10141.25"
"528","10107.69"
"529","10060.81"
"530","10006.28"
"531","9951.119"
"532","9903.343"
"533","9870.944"
"534","9861.105"
"535","9871.77"
"536","9894.9"
"537","9922.397"
"538","9946.365"
"539","9960.514"
"540","9959.479"
"541","9937.937"
"542","9892.348"
"543","9833.493"
"544","9779.088"
"545","9746.786"
"546","9750.701"
"547","9781.696"
"548","9821.175"
"549","9850.601"
"550","9855.259"
"551","9840.785"
"552","9819.65"
"553","9804.273"
"554","9803.498"
"555","9810.662"
"556","9814.903"
"557","9805.407"
"558","9775.666"
"559","9734.084"
"560","9692.265"
"561","9661.762"
"562","9649.803"
"563","9651.873"
"564","9661.466"
"565","9672.123"
"566","9679.414"
"567","9683.235"
"568","9684.046"
"569","9682.322"
"570","9680.204"
"571","9682.611"
"572","9694.719"
"573","9721.428"
"574","9758.288"
"575","9788.678"
"576","9795.239"
"577","9761.578"
"578","9692.011"
"579","9611.532"
"580","9545.923"
"581","9519.266"
"582","9532.017"
"583","9566.732"
"584","9605.6"
"585","9632.251"
"586","9643.89"
"587","9645.387"
"588","9641.692"
"589","9637.492"
"590","9635.909"
"591","9639.407"
"592","9650.434"
"593","9669.936"
"594","9691.845"
"595","9708.076"
"596","9710.587"
"597","9694.947"
"598","9668.31"
"599","9640.11"
"600","9619.732"
"601","9612.161"
"602","9612.689"
"603","9615.333"
"604","9614.188"
"605","9606.655"
"606","9595.228"
"607","9582.818"
"608","9572.338"
"609","9567.082"
"610","9570.763"
"611","9587.087"
"612","9619.06"
"613","9659.925"
"614","9695.786"
"615","9712.63"
"616","9698.662"
"617","9660.129"
"618","9612.145"
"619","9569.826"
"620","9544.907"
"621","9531.969"
"622","9520.136"
"623","9498.573"
"624","9461.895"
"625","9422.066"
"626","9394.499"
"627","9394.457"
"628","9426.97"
"629","9476.463"
"630","9524.938"
"631","9554.772"
"632","9560.388"
"633","9551.724"
"634","9539.716"
"635","9534.798"
"636","9539.637"
"637","9550.485"
"638","9563.415"
"639","9574.697"
"640","9582.215"
"641","9584.679"
"642","9580.811"
"643","9570.047"
"644","9555.309"
"645","9540.598"
"646","9529.899"
"647","9525.535"
"648","9525.089"
"649","9525.302"
"650","9522.96"
"651","9517.51"
"652","9512.863"
"653","9513.361"
"654","9523.121"
"655","9541.393"
"656","9562.485"
"657","9580.516"
"658","9590.293"
"659","9594.014"
"660","9598.31"
"661","9609.851"
"662","9633.205"
"663","9661.445"
"664","9683.732"
"665","9689.252"
"666","9671.986"
"667","9640.092"
"668","9604.312"
"669","9575.307"
"670","9559.63"
"671","9557.106"
"672","9566.941"
"673","9588.144"
"674","9615.684"
"675","9640.775"
"676","9654.519"
"677","9649.41"
"678","9630.233"
"679","9608.121"
"680","9594.237"
"681","9596.884"
"682","9611.95"
"683","9631.948"
"684","9649.425"
"685","9659.166"
"686","9660.973"
"687","9655.328"
"688","9642.815"
"689","9627.437"
"690","9617.277"
"691","9620.649"
"692","9644.595"
"693","9681.745"
"694","9715.492"
"695","9729.121"
"696","9710.649"
"697","9672.808"
"698","9636.385"
"699","9622.098"
"700","9641.121"
"701","9680.529"
"702","9723.663"
"703","9754.166"
"704","9765.826"
"705","9765.404"
"706","9760.508"
"707","9758.201"
"708","9759.398"
"709","9760.961"
"710","9759.681"
"711","9753.173"
"712","9743.209"
"713","9732.896"
"714","9725.325"
"715","9722.697"
"716","9725.09"
"717","9732.283"
"718","9744.037"
"719","9759.512"
"720","9777.197"
"721","9795.54"
"722","9813.049"
"723","9828.803"
"724","9842.201"
"725","9852.645"
"726","9860.076"
"727","9866.648"
"728","9875.076"
"729","9888.032"
"730","9904.993"
"731","9919.546"
"732","9924.664"
"733","9913.794"
"734","9888.769"
"735","9858.711"
"736","9832.972"
"737","9819.747"
"738","9819.87"
"739","9831.221"
"740","9851.677"
"741","9878.294"
"742","9905.882"
"743","9928.877"
"744","9941.889"
"745","9944.624"
"746","9942.97"
"747","9943.183"
"748","9950.824"
"749","9965.132"
"750","9981.859"
"751","9996.737"
"752","10006.43"
"753","10010.99"
"754","10011.27"
"755","10008.15"
"756","10004.98"
"757","10008.87"
"758","10027.27"
"759","10066.53"
"760","10119.74"
"761","10170.96"
"762","10204.13"
"763","10207.44"
"764","10187.95"
"765","10158"
"766","10129.88"
"767","10111.5"
"768","10103.11"
"769","10104.13"
"770","10114.01"
"771","10132.45"
"772","10159.28"
"773","10194.38"
"774","10236.65"
"775","10280.37"
"776","10318.41"
"777","10343.68"
"778","10353.94"
"779","10356.03"
"780","10357.78"
"781","10366.74"
"782","10386.72"
"783","10418.57"
"784","10463.09"
"785","10518.69"
"786","10572.09"
"787","10606.55"
"788","10605.5"
"789","10566.84"
"790","10514.45"
"791","10474.9"
"792","10472.76"
"793","10506.08"
"794","10553.81"
"795","10594.53"
"796","10611.06"
"797","10604.48"
"798","10580.77"
"799","10546"
"800","10509.41"
"801","10485.33"
"802","10488.52"
"803","10531.31"
"804","10599.96"
"805","10664.81"
"806","10696.02"
"807","10675.5"
"808","10625.9"
"809","10578.62"
"810","10564.42"
"811","10591.46"
"812","10639.57"
"813","10686.82"
"814","10713.74"
"815","10720.16"
"816","10714.96"
"817","10707.09"
"818","10703.26"
"819","10704.55"
"820","10711.16"
"821","10723.16"
"822","10738.2"
"823","10751.66"
"824","10758.86"
"825","10756.47"
"826","10748.31"
"827","10740.53"
"828","10739.22"
"829","10745.72"
"830","10753.27"
"831","10754.31"
"832","10742.23"
"833","10721.15"
"834","10701.83"
"835","10695.13"
"836","10707.93"
"837","10734.4"
"838","10766.11"
"839","10794.84"
"840","10816.51"
"841","10831.63"
"842","10840.92"
"843","10844.94"
"844","10843.15"
"845","10834.61"
"846","10818.43"
"847","10798.88"
"848","10789.79"
"849","10806.04"
"850","10860.44"
"851","10941.75"
"852","11023.44"
"853","11078.75"
"854","11091.35"
"855","11077.92"
"856","11061.61"
"857","11064.69"
"858","11088.8"
"859","11114.41"
"860","11121.06"
"861","11094.01"
"862","11048.85"
"863","11011.19"
"864","11006.34"
"865","11041.2"
"866","11093.61"
"867","11138.81"
"868","11154.96"
"869","11145.59"
"870","11127.38"
"871","11117.05"
"872","11125.86"
"873","11151.79"
"874","11190.88"
"875","11239.06"
"876","11290.55"
"877","11338.26"
"878","11375.06"
"879","11395.55"
"880","11400.51"
"881","11392.1"
"882","11372.68"
"883","11350.2"
"884","11338.59"
"885","11352.07"
"886","11399.64"
"887","11462.85"
"888","11514.35"
"889","11527.24"
"890","11497.99"
"891","11457.42"
"892","11439.08"
"893","11470.78"
"894","11537.75"
"895","11606.15"
"896","11642.19"
"897","11631.4"
"898","11596.81"
"899","11565.75"
"900","11563"
"901","11586.67"
"902","11619.25"
"903","11643.03"
"904","11647.31"
"905","11638.96"
"906","11627.57"
"907","11622.56"
"908","11630.67"
"909","11656.72"
"910","11705.47"
"911","11775.47"
"912","11845.64"
"913","11891.03"
"914","11888.31"
"915","11844.85"
"916","11795.26"
"917","11775.09"
"918","11806.92"
"919","11863.31"
"920","11904.83"
"921","11893.62"
"922","11829.67"
"923","11752.35"
"924","11702.83"
"925","11713.04"
"926","11773.27"
"927","11862.07"
"928","11958.11"
"929","12042.77"
"930","12100.63"
"931","12116.47"
"932","12081.14"
"933","12016.47"
"934","11954.08"
"935","11925.04"
"936","11938.31"
"937","11974.58"
"938","12012.65"
"939","12034.35"
"940","12038.1"
"941","12028.03"
"942","12008.31"
"943","11984.38"
"944","11963.36"
"945","11952.5"
"946","11957.42"
"947","11974.01"
"948","11994.71"
"949","12012.03"
"950","12022.35"
"951","12027.36"
"952","12029.19"
"953","12029.93"
"954","12031.66"
"955","12036.42"
"956","12046.18"
"957","12059.07"
"958","12067.94"
"959","12065.24"
"960","12045.99"
"961","12019.8"
"962","12001.49"
"963","12005.52"
"964","12033.56"
"965","12070.16"
"966","12098.72"
"967","12106.06"
"968","12097.29"
"969","12083.63"
"970","12076.13"
"971","12078.95"
"972","12087.77"
"973","12097.73"
"974","12104.32"
"975","12104.75"
"976","12096.72"
"977","12078.12"
"978","12051.83"
"979","12026.28"
"980","12010.24"
"981","12010"
"982","12021.42"
"983","12037.61"
"984","12051.77"
"985","12060.24"
"986","12062.38"
"987","12057.67"
"988","12047.26"
"989","12038.29"
"990","12039.26"
"991","12058.06"
"992","12092.69"
"993","12132.79"
"994","12167.77"
"995","12190.74"
"996","12205.86"
"997","12219.28"
"998","12236.76"
"999","12258.39"
"1000","12280.37"
"1001","12298.81"
"1002","12311.6"
"1003","12320.8"
"1004","12329.08"
"1005","12339.1"
"1006","12352.68"
"1007","12365.98"
"1008","12372.81"
"1009","12367.09"
"1010","12348.98"
"1011","12327.53"
"1012","12312.51"
"1013","12311.8"
"1014","12323.1"
"1015","12340.65"
"1016","12358.77"
"1017","12374.4"
"1018","12387.56"
"1019","12398.44"
"1020","12407.58"
"1021","12417.03"
"1022","12429.22"
"1023","12446.49"
"1024","12469.23"
"1025","12496.01"
"1026","12525.32"
"1027","12554.82"
"1028","12579.43"
"1029","12593.56"
"1030","12592.53"
"1031","12583.59"
"1032","12582.44"
"1033","12604.86"
"1034","12655.56"
"1035","12714.07"
"1036","12756.39"
"1037","12762.3"
"1038","12743.6"
"1039","12728.33"
"1040","12744.36"
"1041","12798.13"
"1042","12861.84"
"1043","12904.59"
"1044","12902.36"
"1045","12869.24"
"1046","12832.5"
"1047","12818.71"
"1048","12834.77"
"1049","12866.01"
"1050","12896.62"
"1051","12914.99"
"1052","12924.24"
"1053","12930.75"
"1054","12940.23"
"1055","12949.24"
"1056","12947.68"
"1057","12925.33"
"1058","12883.2"
"1059","12846.81"
"1060","12844.93"
"1061","12900.5"
"1062","12992.59"
"1063","13080.31"
"1064","13123.32"
"1065","13109.78"
"1066","13066.2"
"1067","13021.8"
"1068","13000.67"
"1069","13005.16"
"1070","13031.87"
"1071","13077.2"
"1072","13134.29"
"1073","13193.58"
"1074","13245.46"
"1075","13281.59"
"1076","13296.56"
"1077","13285.42"
"1078","13245.68"
"1079","13193.85"
"1080","13155.17"
"1081","13154.32"
"1082","13191.75"
"1083","13236.42"
"1084","13255.18"
"1085","13227.34"
"1086","13179.99"
"1087","13151.68"
"1088","13177.58"
"1089","13247.59"
"1090","13319.62"
"1091","13351.05"
"1092","13324.04"
"1093","13268.52"
"1094","13219.86"
"1095","13207.37"
"1096","13225.04"
"1097","13254.18"
"1098","13276.45"
"1099","13281.98"
"1100","13269.27"
"1101","13237.18"
"1102","13190.06"
"1103","13146.91"
"1104","13129.15"
"1105","13154.24"
"1106","13207.51"
"1107","13258.79"
"1108","13278.46"
"1109","13261.87"
"1110","13235.8"
"1111","13229.03"
"1112","13259.53"
"1113","13308.48"
"1114","13349.31"
"1115","13357.66"
"1116","13332.91"
"1117","13288.3"
"1118","13237.29"
"1119","13192.83"
"1120","13167.22"
"1121","13172.7"
"1122","13214.44"
"1123","13269.85"
"1124","13309.43"
"1125","13306.63"
"1126","13269.53"
"1127","13228.85"
"1128","13215.38"
"1129","13237.96"
"1130","13270.41"
"1131","13283.41"
"1132","13257.23"
"1133","13212.15"
"1134","13178.84"
"1135","13185.38"
"1136","13228.4"
"1137","13283.57"
"1138","13326.44"
"1139","13347.58"
"1140","13361.31"
"1141","13384.09"
"1142","13425.39"
"1143","13466.97"
"1144","13483.69"
"1145","13453.75"
"1146","13392.35"
"1147","13337.75"
"1148","13327.96"
"1149","13371.27"
"1150","13433.39"
"1151","13476.69"
"1152","13476.49"
"1153","13453.02"
"1154","13436.19"
"1155","13452.45"
"1156","13496.77"
"1157","13547.3"
"1158","13582.52"
"1159","13597.13"
"1160","13605.29"
"1161","13622.29"
"1162","13654.63"
"1163","13684.64"
"1164","13690.53"
"1165","13656.29"
"1166","13605.17"
"1167","13576.72"
"1168","13608.31"
"1169","13691.31"
"1170","13774.71"
"1171","13806.06"
"1172","13765.44"
"1173","13698.24"
"1174","13657.73"
"1175","13682.74"
"1176","13744.48"
"1177","13794.47"
"1178","13788.66"
"1179","13736.19"
"1180","13680.92"
"1181","13666.64"
"1182","13705.21"
"1183","13764.79"
"1184","13810.4"
"1185","13820.47"
"1186","13813.35"
"1187","13814.76"
"1188","13845.65"
"1189","13894.64"
"1190","13936.81"
"1191","13948.55"
"1192","13930.5"
"1193","13904.39"
"1194","13892.53"
"1195","13905.19"
"1196","13931.36"
"1197","13957.84"
"1198","13973.93"
"1199","13978.19"
"1200","13971.37"
"1201","13955.37"
"1202","13941.61"
"1203","13946.29"
"1204","13984.65"
"1205","14048.23"
"1206","14104.97"
"1207","14121.96"
"1208","14086.95"
"1209","14028.31"
"1210","13979.12"
"1211","13964.65"
"1212","13978.39"
"1213","14005.78"
"1214","14033.44"
"1215","14058.27"
"1216","14082.46"
"1217","14108.06"
"1218","14132.29"
"1219","14147.71"
"1220","14146.68"
"1221","14129.37"
"1222","14110.49"
"1223","14106.34"
"1224","14127.05"
"1225","14159.93"
"1226","14187"
"1227","14193.04"
"1228","14183.76"
"1229","14174.41"
"1230","14179.55"
"1231","14200.6"
"1232","14227.86"
"1233","14251.41"
"1234","14267.86"
"1235","14283.93"
"1236","14307.19"
"1237","14341.55"
"1238","14380.41"
"1239","14415.31"
"1240","14439.15"
"1241","14452.51"
"1242","14458.6"
"1243","14460.86"
"1244","14465.46"
"1245","14480.24"
"1246","14512.56"
"1247","14555.07"
"1248","14584.27"
"1249","14576"
"1250","14526.3"
"1251","14470.04"
"1252","14446.47"
"1253","14480.08"
"1254","14544.29"
"1255","14601.4"
"1256","14619.69"
"1257","14605.43"
"1258","14579.92"
"1259","14563.18"
"1260","14559.15"
"1261","14560.78"
"1262","14561"
"1263","14558.71"
"1264","14559.56"
"1265","14569.57"
"1266","14592.02"
"1267","14625.03"
"1268","14666.13"
"1269","14711.04"
"1270","14749.57"
"1271","14770.31"
"1272","14764.9"
"1273","14742.17"
"1274","14717.06"
"1275","14703.27"
"1276","14701.8"
"1277","14706.11"
"1278","14709.77"
"1279","14709.58"
"1280","14705.46"
"1281","14697.45"
"1282","14686.52"
"1283","14674.9"
"1284","14664.99"
"1285","14658.39"
"1286","14654.85"
"1287","14653.89"
"1288","14656.44"
"1289","14669.17"
"1290","14700.16"
"1291","14753.96"
"1292","14812.24"
"1293","14847.49"
"1294","14835.44"
"1295","14788.46"
"1296","14741.88"
"1297","14729.95"
"1298","14756.2"
"1299","14794.98"
"1300","14819.8"
"1301","14820.37"
"1302","14809.57"
"1303","14802.04"
"1304","14805.78"
"1305","14814.56"
"1306","14820.27"
"1307","14818.98"
"1308","14820.71"
"1309","14838.32"
"1310","14879.6"
"1311","14926.09"
"1312","14950.97"
"1313","14932.59"
"1314","14891.11"
"1315","14866.68"
"1316","14895.78"
"1317","14964.56"
"1318","15024.1"
"1319","15026.73"
"1320","14970.56"
"1321","14899.31"
"1322","14858.1"
"1323","14866.08"
"1324","14905.81"
"1325","14957.09"
"1326","15002.35"
"1327","15029.15"
"1328","15025.69"
"1329","14990.48"
"1330","14951.36"
"1331","14941.35"
"1332","14981.93"
"1333","15047.55"
"1334","15100.66"
"1335","15110.52"
"1336","15086.57"
"1337","15052.72"
"1338","15031.04"
"1339","15027.33"
"1340","15039.24"
"1341","15063.84"
"1342","15091.77"
"1343","15109.25"
"1344","15103.39"
"1345","15080.34"
"1346","15063.47"
"1347","15076.04"
"1348","15117.42"
"1349","15158.44"
"1350","15168.63"
"1351","15140.19"
"1352","15100.8"
"1353","15081.15"
"1354","15096.99"
"1355","15133.5"
"1356","15172.09"
"1357","15196.5"
"1358","15196.71"
"1359","15163.71"
"1360","15096.79"
"1361","15024.39"
"1362","14981.41"
"1363","14993.08"
"1364","15040.22"
"1365","15090.83"
"1366","15118.21"
"1367","15127.17"
"1368","15134.23"
"1369","15152.83"
"1370","15172.49"
"1371","15171.51"
"1372","15131.94"
"1373","15074.73"
"1374","15043.47"
"1375","15077.51"
"1376","15155.7"
"1377","15213.63"
"1378","15189.96"
"1379","15095.7"
"1380","15004.39"
"1381","14988.96"
"1382","15054.55"
"1383","15136.02"
"1384","15166.38"
"1385","15129.24"
"1386","15070.71"
"1387","15040.23"
"1388","15055.88"
"1389","15090.09"
"1390","15111.82"
"1391","15103.42"
"1392","15070.27"
"1393","15020.06"
"1394","14965.44"
"1395","14929"
"1396","14934.47"
"1397","14989.77"
"1398","15066.03"
"1399","15129.15"
"1400","15154.36"
"1401","15142"
"1402","15096.57"
"1403","15028.29"
"1404","14964.95"
"1405","14937.76"
"1406","14965.26"
"1407","15021.47"
"1408","15070.68"
"1409","15084.96"
"1410","15067.65"
"1411","15029.83"
"1412","14983.42"
"1413","14943.91"
"1414","14927.87"
"1415","14947.1"
"1416","14990.12"
"1417","15038.27"
"1418","15074.5"
"1419","15090.67"
"1420","15081.66"
"1421","15045.32"
"1422","14997.2"
"1423","14959.35"
"1424","14950.7"
"1425","14970.01"
"1426","15008.14"
"1427","15055.33"
"1428","15098.28"
"1429","15122.12"
"1430","15116.06"
"1431","15099.23"
"1432","15103.92"
"1433","15156.44"
"1434","15236.57"
"1435","15302.59"
"1436","15318.24"
"1437","15291.5"
"1438","15251.52"
"1439","15225.33"
"1440","15221.29"
"1441","15238.6"
"1442","15275.55"
"1443","15323.2"
"1444","15369.01"
"1445","15401.5"
"1446","15418.48"
"1447","15422.36"
"1448","15415.89"
"1449","15403.86"
"1450","15392.15"
"1451","15384.6"
"1452","15368.24"
"1453","15321.71"
"1454","15229.68"
"1455","15126.61"
"1456","15071.38"
"1457","15111.67"
"1458","15205.01"
"1459","15266"
"1460","15223.41"
"1461","15116.43"
"1462","15034.98"
"1463","15053.17"
"1464","15128.18"
"1465","15165.81"
"1466","15089.13"
"1467","14940.9"
"1468","14813.76"
"1469","14784.49"
"1470","14827.64"
"1471","14877.68"
"1472","14879.05"
"1473","14835.39"
"1474","14771.91"
"1475","14712.14"
"1476","14670.29"
"1477","14657.47"
"1478","14678.83"
"1479","14710.39"
"1480","14719.24"
"1481","14683.27"
"1482","14628.35"
"1483","14593.59"
"1484","14605.79"
"1485","14643"
"1486","14671.24"
"1487","14665.61"
"1488","14633.09"
"1489","14587.65"
"1490","14542.16"
"1491","14506.18"
"1492","14488.6"
"1493","14492.77"
"1494","14507.04"
"1495","14517.29"
"1496","14512.3"
"1497","14487.62"
"1498","14439.86"
"1499","14375.51"
"1500","14321"
"1501","14304.9"
"1502","14334.41"
"1503","14379.78"
"1504","14408.06"
"1505","14409.88"
"1506","14410.65"
"1507","14437.85"
"1508","14492.3"
"1509","14541.45"
"1510","14551.82"
"1511","14520.5"
"1512","14476.95"
"1513","14450.78"
"1514","14446.17"
"1515","14444.8"
"1516","14428.98"
"1517","14400.78"
"1518","14376.75"
"1519","14372"
"1520","14382.37"
"1521","14392.14"
"1522","14387.31"
"1523","14369.65"
"1524","14348.59"
"1525","14332"
"1526","14317.38"
"1527","14298.2"
"1528","14270.67"
"1529","14244.52"
"1530","14233.57"
"1531","14245.37"
"1532","14263.66"
"1533","14266.53"
"1534","14242.39"
"1535","14209.54"
"1536","14191.67"
"1537","14199.07"
"1538","14212.23"
"1539","14207.75"
"1540","14178.96"
"1541","14147.81"
"1542","14138.62"
"1543","14154.75"
"1544","14171.82"
"1545","14164.67"
"1546","14134.38"
"1547","14108.67"
"1548","14114.38"
"1549","14146.15"
"1550","14173.76"
"1551","14170.45"
"1552","14151.32"
"1553","14155.8"
"1554","14214.21"
"1555","14290.38"
"1556","14319.62"
"1557","14256.35"
"1558","14150.49"
"1559","14081.61"
"1560","14099.17"
"1561","14147.16"
"1562","14146.53"
"1563","14057.65"
"1564","13938.46"
"1565","13861.3"
"1566","13859.54"
"1567","13897.69"
"1568","13933.82"
"1569","13948.6"
"1570","13951.31"
"1571","13952.54"
"1572","13952.75"
"1573","13943.23"
"1574","13916.45"
"1575","13882.54"
"1576","13862.98"
"1577","13874.63"
"1578","13898.95"
"1579","13901.67"
"1580","13860.23"
"1581","13808.93"
"1582","13799.17"
"1583","13858.63"
"1584","13939.9"
"1585","13980.88"
"1586","13953.5"
"1587","13901.37"
"1588","13876.47"
"1589","13892.8"
"1590","13910.47"
"1591","13887.59"
"1592","13828.61"
"1593","13782.65"
"1594","13795.56"
"1595","13852.97"
"1596","13901.57"
"1597","13896.3"
"1598","13854.3"
"1599","13819.13"
"1600","13823.51"
"1601","13853.02"
"1602","13880.62"
"1603","13890.25"
"1604","13895.36"
"1605","13913.98"
"1606","13944.3"
"1607","13950.72"
"1608","13896.27"
"1609","13797.3"
"1610","13728.56"
"1611","13760.62"
"1612","13868.48"
"1613","13959.75"
"1614","13955.45"
"1615","13885.4"
"1616","13827.5"
"1617","13839.44"
"1618","13891.52"
"1619","13930.8"
"1620","13925.98"
"1621","13900.5"
"1622","13885.98"
"1623","13892.28"
"1624","13895.84"
"1625","13871.78"
"1626","13828.96"
"1627","13808.22"
"1628","13845.9"
"1629","13918.71"
"1630","13968.62"
"1631","13950.48"
"1632","13892.73"
"1633","13849.1"
"1634","13853.13"
"1635","13875.47"
"1636","13874.8"
"1637","13837.01"
"1638","13796.78"
"1639","13792.5"
"1640","13826.87"
"1641","13864.56"
"1642","13871.68"
"1643","13852.04"
"1644","13833.19"
"1645","13837.17"
"1646","13852.12"
"1647","13854"
"1648","13828.92"
"1649","13794.48"
"1650","13774.31"
"1651","13780.33"
"1652","13804.17"
"1653","13835.58"
"1654","13866.45"
"1655","13890.83"
"1656","13903.37"
"1657","13903.88"
"1658","13895.05"
"1659","13878.76"
"1660","13852.74"
"1661","13813.46"
"1662","13764.76"
"1663","13729.04"
"1664","13731.12"
"1665","13771.1"
"1666","13814.98"
"1667","13828.31"
"1668","13807.74"
"1669","13773.73"
"1670","13744.9"
"1671","13723.1"
"1672","13703.28"
"1673","13681.03"
"1674","13654.22"
"1675","13621.21"
"1676","13583.83"
"1677","13549.86"
"1678","13527.24"
"1679","13514.83"
"1680","13503.08"
"1681","13483.7"
"1682","13461.23"
"1683","13446.45"
"1684","13446.31"
"1685","13452.63"
"1686","13453.63"
"1687","13440.87"
"1688","13412.37"
"1689","13367.08"
"1690","13309.18"
"1691","13248.05"
"1692","13194.02"
"1693","13163.89"
"1694","13177.76"
"1695","13241.7"
"1696","13306.71"
"1697","13310.65"
"1698","13238.22"
"1699","13162.17"
"1700","13161.19"
"1701","13232.96"
"1702","13298.43"
"1703","13285.97"
"1704","13207.21"
"1705","13113.05"
"1706","13044.61"
"1707","13007.86"
"1708","13001.09"
"1709","13018.78"
"1710","13049.13"
"1711","13079.69"
"1712","13096.18"
"1713","13082.89"
"1714","13030.81"
"1715","12973.19"
"1716","12959.56"
"1717","13012.04"
"1718","13077.41"
"1719","13090.95"
"1720","13038.83"
"1721","12972.43"
"1722","12942.98"
"1723","12952.88"
"1724","12974.56"
"1725","12985.17"
"1726","12984.72"
"1727","12979.48"
"1728","12972.14"
"1729","12958.51"
"1730","12934.28"
"1731","12908.19"
"1732","12900.65"
"1733","12927.26"
"1734","12968.75"
"1735","12991.58"
"1736","12978.57"
"1737","12957.75"
"1738","12963.9"
"1739","12996.39"
"1740","13011.21"
"1741","12968.65"
"1742","12896.03"
"1743","12858.06"
"1744","12896.51"
"1745","12965.65"
"1746","12999.94"
"1747","12977.76"
"1748","12946.8"
"1749","12956.56"
"1750","12999.56"
"1751","13028.17"
"1752","13005.73"
"1753","12951.86"
"1754","12902.71"
"1755","12876.15"
"1756","12855.08"
"1757","12819.93"
"1758","12776.56"
"1759","12751.98"
"1760","12767.57"
"1761","12808.92"
"1762","12849.21"
"1763","12867.64"
"1764","12856.83"
"1765","12811.95"
"1766","12744.53"
"1767","12681.25"
"1768","12646.64"
"1769","12648.28"
"1770","12687.25"
"1771","12753.91"
"1772","12813.77"
"1773","12830.47"
"1774","12805.6"
"1775","12777.31"
"1776","12777.95"
"1777","12793.03"
"1778","12789.78"
"1779","12754.86"
"1780","12720.59"
"1781","12724.16"
"1782","12767.14"
"1783","12817.45"
"1784","12844.78"
"1785","12838.01"
"1786","12793.26"
"1787","12725.59"
"1788","12691.38"
"1789","12747.9"
"1790","12865.92"
"1791","12940.69"
"1792","12891.35"
"1793","12780.21"
"1794","12717.27"
"1795","12754.25"
"1796","12830.17"
"1797","12874.61"
"1798","12868.86"
"1799","12833.4"
"1800","12786.64"
"1801","12733.28"
"1802","12674.39"
"1803","12622"
"1804","12605.7"
"1805","12652.44"
"1806","12742.36"
"1807","12826.64"
"1808","12866.49"
"1809","12859.54"
"1810","12811.7"
"1811","12741.36"
"1812","12682.56"
"1813","12664.68"
"1814","12672.13"
"1815","12668.24"
"1816","12637.23"
"1817","12616.53"
"1818","12649.33"
"1819","12725.5"
"1820","12785.48"
"1821","12780.73"
"1822","12731.74"
"1823","12681.56"
"1824","12650.09"
"1825","12616.39"
"1826","12558.51"
"1827","12491.68"
"1828","12455.06"
"1829","12474.33"
"1830","12527.45"
"1831","12582.32"
"1832","12613.2"
"1833","12601.81"
"1834","12537.23"
"1835","12455.41"
"1836","12411.58"
"1837","12427.6"
"1838","12454.68"
"1839","12439.63"
"1840","12394.54"
"1841","12379.88"
"1842","12435.54"
"1843","12517.15"
"1844","12561.12"
"1845","12548.31"
"1846","12515.71"
"1847","12499.4"
"1848","12503.3"
"1849","12517.39"
"1850","12532.93"
"1851","12543.98"
"1852","12545.42"
"1853","12538.96"
"1854","12531.17"
"1855","12528.22"
"1856","12534.33"
"1857","12552.9"
"1858","12577.48"
"1859","12590.19"
"1860","12575.95"
"1861","12540.94"
"1862","12499.44"
"1863","12469.64"
"1864","12476.78"
"1865","12541.45"
"1866","12627.45"
"1867","12664.71"
"1868","12612.95"
"1869","12517.59"
"1870","12437.41"
"1871","12397.75"
"1872","12393.95"
"1873","12416.23"
"1874","12436.92"
"1875","12424.23"
"1876","12380.68"
"1877","12353.65"
"1878","12383.15"
"1879","12438.21"
"1880","12458.84"
"1881","12422.54"
"1882","12377.41"
"1883","12375.2"
"1884","12423.38"
"1885","12503.24"
"1886","12586.7"
"1887","12621.81"
"1888","12557.75"
"1889","12428.65"
"1890","12337.78"
"1891","12355.31"
"1892","12419.47"
"1893","12440.36"
"1894","12405.72"
"1895","12387.56"
"1896","12441.1"
"1897","12512.8"
"1898","12515.51"
"1899","12429.4"
"1900","12329.86"
"1901","12288.92"
"1902","12303.67"
"1903","12339.67"
"1904","12373.25"
"1905","12400.59"
"1906","12420.19"
"1907","12432.77"
"1908","12440.22"
"1909","12442.01"
"1910","12432"
"1911","12404.47"
"1912","12368.05"
"1913","12340.83"
"1914","12333.94"
"1915","12338.54"
"1916","12342.99"
"1917","12346.11"
"1918","12354.98"
"1919","12372.62"
"1920","12387.55"
"1921","12385.6"
"1922","12359.46"
"1923","12308.14"
"1924","12238.72"
"1925","12188.93"
"1926","12202.1"
"1927","12271.1"
"1928","12336.03"
"1929","12348.85"
"1930","12326.35"
"1931","12302.6"
"1932","12283.85"
"1933","12244.13"
"1934","12167.63"
"1935","12098.26"
"1936","12096.94"
"1937","12166.18"
"1938","12235.32"
"1939","12242.94"
"1940","12203.24"
"1941","12155.39"
"1942","12125.31"
"1943","12121.27"
"1944","12148.28"
"1945","12199.64"
"1946","12264.13"
"1947","12314.89"
"1948","12303.74"
"1949","12199.27"
"1950","12075.82"
"1951","12043.7"
"1952","12124.61"
"1953","12218.55"
"1954","12234.08"
"1955","12180.49"
"1956","12102.57"
"1957","12037.61"
"1958","12012.64"
"1959","12044.45"
"1960","12097.05"
"1961","12117.24"
"1962","12090"
"1963","12049.55"
"1964","12025.08"
"1965","12002.31"
"1966","11954.03"
"1967","11890.24"
"1968","11865.81"
"1969","11917.52"
"1970","11983.4"
"1971","11975.31"
"1972","11891.38"
"1973","11824.83"
"1974","11842.16"
"1975","11876.1"
"1976","11829.08"
"1977","11716.38"
"1978","11664.46"
"1979","11752.82"
"1980","11872.35"
"1981","11878.82"
"1982","11773.1"
"1983","11680.46"
"1984","11687.44"
"1985","11748.16"
"1986","11794.52"
"1987","11803.46"
"1988","11784.77"
"1989","11749.99"
"1990","11713.22"
"1991","11688.05"
"1992","11677.85"
"1993","11679.81"
"1994","11686.87"
"1995","11683.45"
"1996","11656.84"
"1997","11626.31"
"1998","11626.32"
"1999","11656.71"
"2000","11660.55"
"2001","11592.84"
"2002","11515.18"
"2003","11527.16"
"2004","11629.6"
"2005","11696.73"
"2006","11631.37"
"2007","11506.43"
"2008","11439.21"
"2009","11448.58"
"2010","11456.73"
"2011","11408"
"2012","11334.51"
"2013","11284.75"
"2014","11278.39"
"2015","11313.99"
"2016","11376.58"
"2017","11420.21"
"2018","11400.58"
"2019","11331.09"
"2020","11255.95"
"2021","11213.34"
"2022","11230.56"
"2023","11320.76"
"2024","11417.63"
"2025","11427.52"
"2026","11340.47"
"2027","11246.8"
"2028","11216.9"
"2029","11217.02"
"2030","11190.93"
"2031","11142.89"
"2032","11127.28"
"2033","11171.11"
"2034","11225.89"
"2035","11236.61"
"2036","11203.75"
"2037","11158.58"
"2038","11124.52"
"2039","11110.88"
"2040","11121.69"
"2041","11138.26"
"2042","11134.37"
"2043","11103.55"
"2044","11061.21"
"2045","11021.07"
"2046","10986.88"
"2047","10959.88"
"2048","10936.92"
"2049","10911.7"
"2050","10880.61"
"2051","10845.74"
"2052","10811.78"
"2053","10796.44"
"2054","10822.17"
"2055","10874.72"
"2056","10892.58"
"2057","10834"
"2058","10749.67"
"2059","10708.92"
"2060","10709.66"
"2061","10694.31"
"2062","10639.73"
"2063","10604.32"
"2064","10645.2"
"2065","10724.74"
"2066","10763.41"
"2067","10727.78"
"2068","10644.88"
"2069","10551.43"
"2070","10505.88"
"2071","10564.56"
"2072","10673.71"
"2073","10697.89"
"2074","10589.27"
"2075","10488.58"
"2076","10529.58"
"2077","10638.25"
"2078","10659.58"
"2079","10561.77"
"2080","10455"
"2081","10426.34"
"2082","10459.15"
"2083","10515.68"
"2084","10562.76"
"2085","10570.26"
"2086","10527.12"
"2087","10454.62"
"2088","10379.18"
"2089","10336.87"
"2090","10364.05"
"2091","10442.53"
"2092","10505.76"
"2093","10510.81"
"2094","10476.27"
"2095","10427.7"
"2096","10374.71"
"2097","10320.02"
"2098","10274.75"
"2099","10260.12"
"2100","10286.73"
"2101","10327.78"
"2102","10349.72"
"2103","10331.13"
"2104","10258.23"
"2105","10146.34"
"2106","10055.87"
"2107","10033.08"
"2108","10044.45"
"2109","10037.91"
"2110","10009.64"
"2111","9991.76"
"2112","9994.407"
"2113","9983.596"
"2114","9935.098"
"2115","9905.964"
"2116","9975.304"
"2117","10113.08"
"2118","10191.81"
"2119","10144.44"
"2120","10050.73"
"2121","9997.243"
"2122","9980.408"
"2123","9961.89"
"2124","9931.522"
"2125","9907.933"
"2126","9903.087"
"2127","9908.298"
"2128","9909.27"
"2129","9875.267"
"2130","9770.371"
"2131","9619.948"
"2132","9517.229"
"2133","9520.721"
"2134","9581.558"
"2135","9636.204"
"2136","9653.551"
"2137","9618.897"
"2138","9555.612"
"2139","9530.677"
"2140","9576.176"
"2141","9617.214"
"2142","9573.01"
"2143","9468.106"
"2144","9375.925"
"2145","9339.713"
"2146","9367.937"
"2147","9447.356"
"2148","9509.624"
"2149","9489.887"
"2150","9422.729"
"2151","9385.656"
"2152","9396.109"
"2153","9406.528"
"2154","9378.464"
"2155","9305.627"
"2156","9192.722"
"2157","9084.087"
"2158","9038.005"
"2159","9054.919"
"2160","9078.875"
"2161","9083.333"
"2162","9114.319"
"2163","9203.679"
"2164","9242.549"
"2165","9085.041"
"2166","8823.566"
"2167","8750.372"
"2168","8966.589"
"2169","9192.915"
"2170","9179.57"
"2171","9024.65"
"2172","8918.266"
"2173","8908.064"
"2174","8942.231"
"2175","8965.503"
"2176","8920.553"
"2177","8785.312"
"2178","8668.295"
"2179","8690.684"
"2180","8806.711"
"2181","8881.188"
"2182","8859.589"
"2183","8786.408"
"2184","8700.596"
"2185","8609.446"
"2186","8516.136"
"2187","8431.694"
"2188","8370.03"
"2189","8337.413"
"2190","8333.221"
"2191","8358.82"
"2192","8419.938"
"2193","8506.272"
"2194","8532.278"
"2195","8406.866"
"2196","8227.11"
"2197","8207.339"
"2198","8374.766"
"2199","8497.51"
"2200","8420.603"
"2201","8278.931"
"2202","8234.862"
"2203","8255.853"
"2204","8229.469"
"2205","8137.184"
"2206","8047.294"
"2207","7998.436"
"2208","7965.274"
"2209","7921.836"
"2210","7871.482"
"2211","7826.198"
"2212","7804.926"
"2213","7829.971"
"2214","7895.791"
"2215","7962.74"
"2216","7993.971"
"2217","7965.507"
"2218","7869.635"
"2219","7780.566"
"2220","7790.97"
"2221","7837.367"
"2222","7742.727"
"2223","7504.136"
"2224","7384.659"
"2225","7547.657"
"2226","7771.289"
"2227","7797.657"
"2228","7652.764"
"2229","7480.881"
"2230","7366.602"
"2231","7341.856"
"2232","7388.729"
"2233","7406.645"
"2234","7324.087"
"2235","7203.65"
"2236","7127.723"
"2237","7096.62"
"2238","7073.209"
"2239","7047.731"
"2240","7036.146"
"2241","7045.489"
"2242","7064.733"
"2243","7082.379"
"2244","7092.5"
"2245","7087.851"
"2246","7040.578"
"2247","6916.331"
"2248","6752.872"
"2249","6654.708"
"2250","6649.366"
"2251","6621.66"
"2252","6486.794"
"2253","6323.392"
"2254","6233.5"
"2255","6216.865"
"2256","6227.828"
"2257","6244.209"
"2258","6264.283"
"2259","6272.116"
"2260","6227.537"
"2261","6114.952"
"2262","6004.233"
"2263","5967.651"
"2264","5981.304"
"2265","5983.211"
"2266","5917.014"
"2267","5732.67"
"2268","5473.263"
"2269","5310.657"
"2270","5340.393"
"2271","5433.316"
"2272","5450.796"
"2273","5394.132"
"2274","5308.184"
"2275","5223.607"
"2276","5161.172"
"2277","5105.272"
"2278","5000.75"
"2279","4837.081"
"2280","4696.958"
"2281","4642.127"
"2282","4612.271"
"2283","4530.612"
"2284","4414.374"
"2285","4319.989"
"2286","4251.414"
"2287","4170.141"
"2288","4055.96"
"2289","3916.837"
"2290","3780.779"
"2291","3721.872"
"2292","3783.035"
"2293","3817.964"
"2294","3651.854"
"2295","3395.275"
"2296","3305.526"
"2297","3364.465"
"2298","3287.125"
"2299","3005.753"
"2300","2838.122"
