,"Scan 01064"
"400","11439.08"
"401","11406.83"
"402","11357.16"
"403","11308.62"
"404","11279.64"
"405","11285.82"
"406","11319.58"
"407","11361.68"
"408","11392.88"
"409","11395.4"
"410","11368.45"
"411","11323.01"
"412","11270.23"
"413","11221.02"
"414","11183.24"
"415","11161.83"
"416","11161.61"
"417","11187.08"
"418","11233.27"
"419","11283.49"
"420","11320.45"
"421","11327.19"
"422","11299.11"
"423","11251.54"
"424","11201.47"
"425","11165.74"
"426","11153.25"
"427","11156.39"
"428","11165.54"
"429","11171.15"
"430","11166.86"
"431","11154.81"
"432","11138.52"
"433","11121.51"
"434","11106.65"
"435","11094.7"
"436","11085.99"
"437","11080.8"
"438","11079.3"
"439","11081.02"
"440","11085.3"
"441","11091.51"
"442","11098.83"
"443","11105.44"
"444","11109.22"
"445","11108.04"
"446","11100.2"
"447","11086.64"
"448","11069.46"
"449","11050.71"
"450","11032.06"
"451","11011.95"
"452","10987.29"
"453","10954.96"
"454","10912.32"
"455","10861.06"
"456","10805.39"
"457","10749.5"
"458","10697.8"
"459","10657.87"
"460","10639.32"
"461","10651.74"
"462","10703.09"
"463","10778.88"
"464","10847.83"
"465","10878.48"
"466","10841.78"
"467","10747.04"
"468","10635.45"
"469","10548.95"
"470","10527.2"
"471","10570.21"
"472","10641.66"
"473","10704.11"
"474","10721.81"
"475","10691.73"
"476","10643.31"
"477","10607.22"
"478","10612.87"
"479","10661.93"
"480","10726.74"
"481","10778.39"
"482","10788.93"
"483","10754.08"
"484","10695.95"
"485","10637.89"
"486","10602.67"
"487","10597.92"
"488","10613.8"
"489","10639.49"
"490","10664.38"
"491","10680.88"
"492","10685"
"493","10673.02"
"494","10641.47"
"495","10594.82"
"496","10547.16"
"497","10513.08"
"498","10506.74"
"499","10531.4"
"500","10577.15"
"501","10633.37"
"502","10689.82"
"503","10746.81"
"504","10817.19"
"505","10914.45"
"506","11052.54"
"507","11261"
"508","11587.5"
"509","12080.38"
"510","12786.63"
"511","13721.42"
"512","14864.71"
"513","16194.76"
"514","17687.32"
"515","19251.17"
"516","20725"
"517","21945.07"
"518","22752.48"
"519","23077.01"
"520","22935.13"
"521","22346.83"
"522","21335.57"
"523","19994.53"
"524","18479.52"
"525","16947.81"
"526","15550.6"
"527","14351.46"
"528","13342.22"
"529","12512.61"
"530","11851.62"
"531","11337.13"
"532","10938.85"
"533","10626.5"
"534","10371.16"
"535","10158.77"
"536","9984.928"
"537","9845.402"
"538","9735.737"
"539","9648.862"
"540","9576.259"
"541","9509.432"
"542","9440.775"
"543","9369.623"
"544","9298.672"
"545","9230.629"
"546","9167.881"
"547","9110.765"
"548","9058.793"
"549","9011.468"
"550","8968.519"
"551","8930.862"
"552","8899.813"
"553","8876.685"
"554","8861.866"
"555","8851.711"
"556","8841.489"
"557","8826.496"
"558","8803.896"
"559","8777.345"
"560","8751.893"
"561","8732.563"
"562","8722.204"
"563","8717.73"
"564","8715.063"
"565","8710.144"
"566","8700.373"
"567","8686.246"
"568","8668.661"
"569","8648.517"
"570","8626.983"
"571","8605.695"
"572","8586.326"
"573","8570.501"
"574","8558.305"
"575","8547.825"
"576","8537.022"
"577","8523.935"
"578","8508.256"
"579","8491.333"
"580","8474.573"
"581","8459.351"
"582","8446.557"
"583","8436.719"
"584","8430.349"
"585","8427.896"
"586","8429.125"
"587","8433.411"
"588","8440.137"
"589","8448.453"
"590","8455.992"
"591","8459.764"
"592","8456.784"
"593","8445.419"
"594","8430.277"
"595","8417.757"
"596","8414.237"
"597","8423.407"
"598","8440.395"
"599","8458.618"
"600","8471.546"
"601","8474.928"
"602","8469.537"
"603","8456.828"
"604","8438.263"
"605","8416.637"
"606","8396.794"
"607","8383.73"
"608","8382.198"
"609","8391.108"
"610","8403.135"
"611","8410.673"
"612","8406.832"
"613","8394.31"
"614","8382.838"
"615","8382.269"
"616","8400.84"
"617","8433.693"
"618","8469.532"
"619","8497.048"
"620","8507.149"
"621","8501.923"
"622","8487.011"
"623","8468.029"
"624","8449.745"
"625","8434.189"
"626","8422.855"
"627","8417.218"
"628","8418.07"
"629","8424.822"
"630","8436.722"
"631","8452.976"
"632","8470.974"
"633","8485.794"
"634","8492.368"
"635","8486.088"
"636","8469.774"
"637","8452.368"
"638","8442.966"
"639","8448.878"
"640","8461.979"
"641","8466.2"
"642","8445.443"
"643","8389.04"
"644","8313.057"
"645","8241.793"
"646","8199.467"
"647","8199.548"
"648","8224.843"
"649","8252.741"
"650","8260.899"
"651","8240.979"
"652","8208.29"
"653","8180.374"
"654","8174.094"
"655","8191.547"
"656","8219.857"
"657","8245.521"
"658","8256.254"
"659","8252.359"
"660","8241.725"
"661","8232.317"
"662","8230.103"
"663","8230.139"
"664","8223.764"
"665","8202.34"
"666","8162.971"
"667","8119.756"
"668","8089.887"
"669","8090.333"
"670","8125.392"
"671","8178.57"
"672","8231.491"
"673","8266.451"
"674","8278.593"
"675","8275.013"
"676","8263.248"
"677","8250.38"
"678","8239.688"
"679","8232.464"
"680","8229.983"
"681","8234.057"
"682","8248.857"
"683","8279.189"
"684","8329.826"
"685","8398.943"
"686","8470.007"
"687","8524.513"
"688","8544.579"
"689","8530.893"
"690","8506.312"
"691","8494.95"
"692","8518.699"
"693","8574.416"
"694","8642.905"
"695","8704.75"
"696","8743.894"
"697","8761.7"
"698","8765.23"
"699","8761.52"
"700","8755.261"
"701","8745.24"
"702","8729.319"
"703","8705.435"
"704","8674.143"
"705","8639.352"
"706","8605.183"
"707","8575.43"
"708","8550.089"
"709","8526.652"
"710","8502.576"
"711","8475.821"
"712","8446.926"
"713","8417.25"
"714","8388.151"
"715","8360.357"
"716","8333.126"
"717","8305.499"
"718","8276.573"
"719","8246.911"
"720","8218.764"
"721","8194.471"
"722","8175.891"
"723","8160.229"
"724","8142.07"
"725","8115.978"
"726","8079.415"
"727","8041.705"
"728","8015.197"
"729","8012.125"
"730","8035.449"
"731","8071.104"
"732","8103.235"
"733","8116.716"
"734","8109.199"
"735","8089.444"
"736","8066.565"
"737","8048.846"
"738","8039.285"
"739","8038.763"
"740","8048.151"
"741","8066.651"
"742","8088.941"
"743","8108.939"
"744","8120.756"
"745","8124.146"
"746","8125.706"
"747","8132.434"
"748","8150.414"
"749","8177.269"
"750","8205.968"
"751","8229.442"
"752","8242.393"
"753","8245.949"
"754","8242.703"
"755","8235.249"
"756","8225.988"
"757","8217.042"
"758","8210.501"
"759","8208.402"
"760","8212.105"
"761","8222.514"
"762","8240.51"
"763","8265.654"
"764","8291.551"
"765","8310.147"
"766","8313.466"
"767","8299.229"
"768","8275.274"
"769","8250.47"
"770","8233.317"
"771","8227.08"
"772","8231.053"
"773","8244.433"
"774","8265.808"
"775","8290.787"
"776","8314.071"
"777","8330.396"
"778","8337.978"
"779","8341.518"
"780","8346.439"
"781","8357.851"
"782","8376.402"
"783","8399.295"
"784","8423.641"
"785","8446.714"
"786","8466.559"
"787","8481.449"
"788","8489.677"
"789","8490.271"
"790","8483.609"
"791","8470.201"
"792","8450.703"
"793","8427.716"
"794","8405.243"
"795","8387.314"
"796","8377.039"
"797","8373.581"
"798","8375.05"
"799","8379.552"
"800","8385.345"
"801","8390.918"
"802","8394.777"
"803","8395.505"
"804","8392.453"
"805","8385.452"
"806","8374.339"
"807","8360.253"
"808","8348.858"
"809","8346.789"
"810","8360.493"
"811","8389.789"
"812","8426.198"
"813","8460.722"
"814","8485.512"
"815","8501.698"
"816","8514.634"
"817","8529.687"
"818","8549.139"
"819","8567.461"
"820","8577.909"
"821","8574.041"
"822","8555.4"
"823","8527.05"
"824","8494.255"
"825","8462.54"
"826","8438.799"
"827","8430.366"
"828","8444.473"
"829","8479.696"
"830","8519.757"
"831","8546.907"
"832","8545.304"
"833","8519.947"
"834","8488.759"
"835","8469.84"
"836","8474.739"
"837","8493.886"
"838","8513.466"
"839","8520.044"
"840","8510.138"
"841","8491.128"
"842","8470.936"
"843","8456.644"
"844","8450.239"
"845","8451.814"
"846","8461.44"
"847","8477.985"
"848","8498.063"
"849","8518.048"
"850","8534.549"
"851","8546.878"
"852","8556.068"
"853","8563.183"
"854","8570.368"
"855","8583.193"
"856","8607.901"
"857","8650.299"
"858","8705.761"
"859","8758.992"
"860","8794.223"
"861","8799.787"
"862","8785.758"
"863","8769.38"
"864","8767.745"
"865","8788.352"
"866","8823.525"
"867","8864.254"
"868","8902.207"
"869","8935.063"
"870","8963.6"
"871","8988.625"
"872","9011.756"
"873","9036.564"
"874","9066.905"
"875","9106.202"
"876","9151.568"
"877","9195.296"
"878","9229.555"
"879","9248.704"
"880","9254.957"
"881","9252.287"
"882","9244.729"
"883","9237.839"
"884","9238.818"
"885","9254.946"
"886","9290.655"
"887","9335.505"
"888","9374.208"
"889","9391.69"
"890","9383.926"
"891","9363.106"
"892","9342.716"
"893","9334.577"
"894","9338.213"
"895","9347.642"
"896","9356.873"
"897","9362.399"
"898","9365.547"
"899","9368.197"
"900","9371.688"
"901","9371.808"
"902","9361.075"
"903","9331.987"
"904","9282.843"
"905","9226.518"
"906","9178.161"
"907","9151.906"
"908","9147.883"
"909","9155.903"
"910","9165.538"
"911","9169.428"
"912","9169.884"
"913","9171.131"
"914","9177.215"
"915","9188.921"
"916","9204.136"
"917","9220.644"
"918","9235.757"
"919","9245.003"
"920","9243.468"
"921","9226.693"
"922","9201.231"
"923","9185.08"
"924","9196.762"
"925","9248.832"
"926","9326.976"
"927","9409.33"
"928","9474.454"
"929","9514.51"
"930","9537.596"
"931","9552.713"
"932","9567.035"
"933","9578.401"
"934","9581.693"
"935","9571.96"
"936","9550.438"
"937","9526.293"
"938","9509.213"
"939","9506.877"
"940","9515.846"
"941","9528.863"
"942","9538.792"
"943","9543.973"
"944","9550.162"
"945","9563.651"
"946","9588.724"
"947","9617.989"
"948","9639.872"
"949","9642.966"
"950","9624.192"
"951","9592.049"
"952","9555.898"
"953","9524.474"
"954","9502.853"
"955","9494.785"
"956","9503.862"
"957","9526.61"
"958","9549.8"
"959","9559.486"
"960","9544.85"
"961","9512.925"
"962","9477.056"
"963","9450.454"
"964","9439.959"
"965","9443.966"
"966","9460.285"
"967","9486.125"
"968","9515.448"
"969","9541.137"
"970","9556.225"
"971","9559.076"
"972","9554.661"
"973","9548.361"
"974","9544.792"
"975","9544.853"
"976","9548.316"
"977","9554.915"
"978","9563.166"
"979","9570.213"
"980","9573.14"
"981","9570.367"
"982","9566.035"
"983","9565.806"
"984","9575.027"
"985","9592.026"
"986","9608.212"
"987","9614.698"
"988","9605.964"
"989","9588.588"
"990","9571.88"
"991","9564.691"
"992","9567.979"
"993","9576.084"
"994","9583.135"
"995","9585.983"
"996","9589.513"
"997","9600.083"
"998","9623.341"
"999","9655.661"
"1000","9686.996"
"1001","9707.187"
"1002","9712.758"
"1003","9716.027"
"1004","9731.598"
"1005","9774.075"
"1006","9853.5"
"1007","9949.139"
"1008","10027.57"
"1009","10055.86"
"1010","10027.59"
"1011","9974.384"
"1012","9930.835"
"1013","9924.954"
"1014","9948.925"
"1015","9982.813"
"1016","10007.01"
"1017","10012.79"
"1018","10004.23"
"1019","9986.127"
"1020","9963.896"
"1021","9945.577"
"1022","9939.897"
"1023","9955.052"
"1024","9988.32"
"1025","10026.89"
"1026","10057.55"
"1027","10070.91"
"1028","10069.63"
"1029","10058.72"
"1030","10043.45"
"1031","10032.2"
"1032","10035.53"
"1033","10064.04"
"1034","10117.87"
"1035","10173.41"
"1036","10203.81"
"1037","10186.72"
"1038","10138.66"
"1039","10095.85"
"1040","10094.28"
"1041","10144.44"
"1042","10216.01"
"1043","10274.98"
"1044","10293.67"
"1045","10279.51"
"1046","10252.05"
"1047","10230.38"
"1048","10220.9"
"1049","10216"
"1050","10207.39"
"1051","10190.29"
"1052","10172.41"
"1053","10164.2"
"1054","10175.07"
"1055","10199.66"
"1056","10221.96"
"1057","10225.73"
"1058","10204.89"
"1059","10175.53"
"1060","10156.68"
"1061","10164.42"
"1062","10192.5"
"1063","10224.53"
"1064","10244.31"
"1065","10245.51"
"1066","10235.14"
"1067","10221.15"
"1068","10209.61"
"1069","10198.73"
"1070","10184.63"
"1071","10163.86"
"1072","10140.2"
"1073","10123.28"
"1074","10122.85"
"1075","10140.48"
"1076","10158.67"
"1077","10157.16"
"1078","10119.67"
"1079","10060.19"
"1080","10006.65"
"1081","9986.49"
"1082","10004.95"
"1083","10038.41"
"1084","10061.33"
"1085","10055.91"
"1086","10034.2"
"1087","10015.36"
"1088","10017.11"
"1089","10037.55"
"1090","10060.94"
"1091","10071.27"
"1092","10060.47"
"1093","10035.74"
"1094","10006.04"
"1095","9979.778"
"1096","9962.344"
"1097","9958.008"
"1098","9970.671"
"1099","9995.604"
"1100","10019.59"
"1101","10029.05"
"1102","10018"
"1103","10000.69"
"1104","9994.729"
"1105","10014.54"
"1106","10048.99"
"1107","10074.54"
"1108","10068.21"
"1109","10029.74"
"1110","9987.433"
"1111","9971.466"
"1112","10000.25"
"1113","10052.32"
"1114","10097.74"
"1115","10109.32"
"1116","10088.19"
"1117","10052.15"
"1118","10019.09"
"1119","9999.823"
"1120","9994.684"
"1121","10003.17"
"1122","10023.36"
"1123","10047.78"
"1124","10067.58"
"1125","10074.78"
"1126","10071.64"
"1127","10067.16"
"1128","10070.35"
"1129","10083.55"
"1130","10098.5"
"1131","10105.97"
"1132","10099.61"
"1133","10084.91"
"1134","10070.47"
"1135","10064.15"
"1136","10064.85"
"1137","10065.54"
"1138","10059.22"
"1139","10048.11"
"1140","10049.03"
"1141","10080.07"
"1142","10148.82"
"1143","10220.96"
"1144","10251.72"
"1145","10202.15"
"1146","10097.66"
"1147","10003.73"
"1148","9985.487"
"1149","10058.99"
"1150","10169.92"
"1151","10258.51"
"1152","10282.35"
"1153","10259.3"
"1154","10220.23"
"1155","10193.05"
"1156","10178.68"
"1157","10163.62"
"1158","10134.73"
"1159","10093.86"
"1160","10060.95"
"1161","10056.95"
"1162","10092.03"
"1163","10146.59"
"1164","10195.96"
"1165","10219.29"
"1166","10221.63"
"1167","10218.82"
"1168","10226.02"
"1169","10243.67"
"1170","10258.6"
"1171","10257.24"
"1172","10237.07"
"1173","10217.87"
"1174","10222.1"
"1175","10264.42"
"1176","10323"
"1177","10365.32"
"1178","10361.86"
"1179","10318.29"
"1180","10263.26"
"1181","10225.47"
"1182","10216.02"
"1183","10221.99"
"1184","10228.67"
"1185","10226.46"
"1186","10220.81"
"1187","10219.97"
"1188","10231.26"
"1189","10255.55"
"1190","10291.06"
"1191","10335.63"
"1192","10380.94"
"1193","10413.27"
"1194","10418.88"
"1195","10397.63"
"1196","10373.39"
"1197","10372.51"
"1198","10411.02"
"1199","10466.2"
"1200","10506.22"
"1201","10503.74"
"1202","10469.49"
"1203","10433.32"
"1204","10424.02"
"1205","10441.95"
"1206","10459.18"
"1207","10446.7"
"1208","10396.48"
"1209","10341.63"
"1210","10320.07"
"1211","10356.61"
"1212","10422.93"
"1213","10477.25"
"1214","10483.39"
"1215","10454.27"
"1216","10428.19"
"1217","10442.15"
"1218","10497.68"
"1219","10561.3"
"1220","10598.19"
"1221","10591.78"
"1222","10559.6"
"1223","10522.94"
"1224","10498.69"
"1225","10487.31"
"1226","10485.5"
"1227","10490.51"
"1228","10503.49"
"1229","10527.43"
"1230","10564.77"
"1231","10608.55"
"1232","10643.84"
"1233","10655.64"
"1234","10639.25"
"1235","10605.88"
"1236","10568.09"
"1237","10536.23"
"1238","10514.34"
"1239","10505.33"
"1240","10511.19"
"1241","10528.85"
"1242","10553.49"
"1243","10580.73"
"1244","10611.53"
"1245","10650.11"
"1246","10700.33"
"1247","10753.88"
"1248","10789.06"
"1249","10783.63"
"1250","10734.13"
"1251","10673.07"
"1252","10637.07"
"1253","10650.81"
"1254","10697.65"
"1255","10751.98"
"1256","10791.07"
"1257","10810.7"
"1258","10813.87"
"1259","10803.93"
"1260","10787.72"
"1261","10774.48"
"1262","10773.22"
"1263","10784.6"
"1264","10799.78"
"1265","10809.45"
"1266","10809.7"
"1267","10806.92"
"1268","10808.65"
"1269","10819.79"
"1270","10836.69"
"1271","10853.91"
"1272","10866.81"
"1273","10875.03"
"1274","10879.74"
"1275","10882.1"
"1276","10883.26"
"1277","10884.33"
"1278","10886.35"
"1279","10888.34"
"1280","10887.48"
"1281","10880.92"
"1282","10868.88"
"1283","10856.18"
"1284","10848.04"
"1285","10847.61"
"1286","10853.19"
"1287","10862.37"
"1288","10873.03"
"1289","10884.24"
"1290","10895.37"
"1291","10905.7"
"1292","10913.92"
"1293","10918.49"
"1294","10918.23"
"1295","10916.11"
"1296","10917.63"
"1297","10928.18"
"1298","10949.29"
"1299","10978.83"
"1300","11014.41"
"1301","11048.26"
"1302","11064.95"
"1303","11048.51"
"1304","10997.29"
"1305","10940.56"
"1306","10911.63"
"1307","10930.23"
"1308","10971.09"
"1309","10999.6"
"1310","10989.43"
"1311","10956.51"
"1312","10930.34"
"1313","10936.47"
"1314","10969.12"
"1315","11007.42"
"1316","11031.65"
"1317","11038.03"
"1318","11033.9"
"1319","11026.69"
"1320","11020.71"
"1321","11017.16"
"1322","11017.09"
"1323","11022.22"
"1324","11035.16"
"1325","11058.54"
"1326","11089.18"
"1327","11112.28"
"1328","11111.67"
"1329","11082.75"
"1330","11053.72"
"1331","11058.59"
"1332","11117.97"
"1333","11197.83"
"1334","11250.17"
"1335","11237.9"
"1336","11187.93"
"1337","11150.33"
"1338","11168.38"
"1339","11227.15"
"1340","11282.51"
"1341","11293.4"
"1342","11260.38"
"1343","11212.25"
"1344","11177.44"
"1345","11165.73"
"1346","11170.01"
"1347","11182.51"
"1348","11194.14"
"1349","11194.18"
"1350","11172.04"
"1351","11131.63"
"1352","11099.51"
"1353","11104.12"
"1354","11154.54"
"1355","11220.33"
"1356","11266.23"
"1357","11271.07"
"1358","11251.53"
"1359","11230.63"
"1360","11224.48"
"1361","11224.89"
"1362","11218.34"
"1363","11195.68"
"1364","11167.91"
"1365","11151.84"
"1366","11160.92"
"1367","11188.53"
"1368","11220.64"
"1369","11244.31"
"1370","11255.4"
"1371","11253.87"
"1372","11240.18"
"1373","11219.75"
"1374","11200.87"
"1375","11191.26"
"1376","11190.52"
"1377","11192.4"
"1378","11190.68"
"1379","11181.51"
"1380","11163.12"
"1381","11134"
"1382","11098.14"
"1383","11065.17"
"1384","11045"
"1385","11045.7"
"1386","11073.19"
"1387","11132.89"
"1388","11211.83"
"1389","11270.28"
"1390","11266.78"
"1391","11194.35"
"1392","11105.19"
"1393","11057.1"
"1394","11076.65"
"1395","11127.84"
"1396","11167.28"
"1397","11171.07"
"1398","11160.82"
"1399","11164.54"
"1400","11194.53"
"1401","11220.74"
"1402","11206.12"
"1403","11133.46"
"1404","11046.82"
"1405","11002.12"
"1406","11035.29"
"1407","11112.04"
"1408","11182.67"
"1409","11209.77"
"1410","11204.92"
"1411","11191.85"
"1412","11189.3"
"1413","11193.65"
"1414","11195.04"
"1415","11186.74"
"1416","11177.43"
"1417","11180.48"
"1418","11205.35"
"1419","11239.83"
"1420","11264.43"
"1421","11263.07"
"1422","11240.16"
"1423","11207.59"
"1424","11176.35"
"1425","11151.46"
"1426","11135.56"
"1427","11130.53"
"1428","11132.86"
"1429","11136.79"
"1430","11137.01"
"1431","11131.59"
"1432","11120.09"
"1433","11102.4"
"1434","11080.93"
"1435","11059.25"
"1436","11040.95"
"1437","11029.83"
"1438","11029.8"
"1439","11043.48"
"1440","11063.02"
"1441","11075.43"
"1442","11069.39"
"1443","11047.93"
"1444","11021.25"
"1445","10999.5"
"1446","10992.04"
"1447","11007.85"
"1448","11053.09"
"1449","11110.24"
"1450","11149.83"
"1451","11146.1"
"1452","11104.88"
"1453","11047.78"
"1454","10995.62"
"1455","10961.72"
"1456","10955.75"
"1457","10984.25"
"1458","11028.92"
"1459","11059.67"
"1460","11051.22"
"1461","11015.89"
"1462","10983.25"
"1463","10978.37"
"1464","10993.01"
"1465","11004.27"
"1466","10992.95"
"1467","10965.68"
"1468","10939.82"
"1469","10929.71"
"1470","10930.16"
"1471","10928.31"
"1472","10913.26"
"1473","10885.77"
"1474","10850.83"
"1475","10814.85"
"1476","10791.77"
"1477","10798.07"
"1478","10842.58"
"1479","10896.53"
"1480","10919.65"
"1481","10883.57"
"1482","10812.68"
"1483","10745.98"
"1484","10712.56"
"1485","10702.32"
"1486","10695.49"
"1487","10679.33"
"1488","10665.65"
"1489","10671.66"
"1490","10706.13"
"1491","10751.79"
"1492","10786.44"
"1493","10795.05"
"1494","10781.98"
"1495","10754.83"
"1496","10721.12"
"1497","10688.25"
"1498","10663.6"
"1499","10651.92"
"1500","10652.75"
"1501","10664.89"
"1502","10681.48"
"1503","10685.84"
"1504","10660.71"
"1505","10610.18"
"1506","10569.83"
"1507","10576.84"
"1508","10634.27"
"1509","10702.51"
"1510","10740.36"
"1511","10736.84"
"1512","10712.86"
"1513","10690.19"
"1514","10678.07"
"1515","10674.67"
"1516","10677.58"
"1517","10681.66"
"1518","10679.75"
"1519","10665.7"
"1520","10644.33"
"1521","10627.09"
"1522","10623.96"
"1523","10631.72"
"1524","10640.82"
"1525","10641.2"
"1526","10620.32"
"1527","10564.64"
"1528","10471.19"
"1529","10388.66"
"1530","10381.62"
"1531","10485.49"
"1532","10625.46"
"1533","10700.63"
"1534","10654.02"
"1535","10556.33"
"1536","10501.12"
"1537","10536.3"
"1538","10607.87"
"1539","10648.45"
"1540","10629.9"
"1541","10591.52"
"1542","10578.43"
"1543","10601.34"
"1544","10625.46"
"1545","10614.41"
"1546","10569.47"
"1547","10530.1"
"1548","10534.2"
"1549","10569.69"
"1550","10585.86"
"1551","10538.32"
"1552","10457.18"
"1553","10415.91"
"1554","10473.99"
"1555","10588.55"
"1556","10672.75"
"1557","10659.42"
"1558","10580.02"
"1559","10496.53"
"1560","10454.79"
"1561","10443.85"
"1562","10440.34"
"1563","10429.44"
"1564","10417.37"
"1565","10413.54"
"1566","10421.79"
"1567","10436.17"
"1568","10449.8"
"1569","10459.54"
"1570","10466.91"
"1571","10473.63"
"1572","10479.03"
"1573","10480.31"
"1574","10475.12"
"1575","10467.75"
"1576","10466.69"
"1577","10477.9"
"1578","10488.03"
"1579","10475.15"
"1580","10424.79"
"1581","10358.72"
"1582","10309.58"
"1583","10300.68"
"1584","10325.65"
"1585","10372.21"
"1586","10424.97"
"1587","10461.89"
"1588","10460.59"
"1589","10422.93"
"1590","10385.18"
"1591","10384.42"
"1592","10417.97"
"1593","10444.81"
"1594","10426.09"
"1595","10366.81"
"1596","10300.39"
"1597","10257.84"
"1598","10249.81"
"1599","10278.37"
"1600","10340.54"
"1601","10411.88"
"1602","10462.19"
"1603","10472.8"
"1604","10455.95"
"1605","10428.89"
"1606","10404.22"
"1607","10386.56"
"1608","10379.68"
"1609","10384.68"
"1610","10399.76"
"1611","10422.4"
"1612","10442.54"
"1613","10444.78"
"1614","10417.28"
"1615","10375.11"
"1616","10345.27"
"1617","10346.75"
"1618","10364.23"
"1619","10373.27"
"1620","10359.32"
"1621","10332.85"
"1622","10308.1"
"1623","10291.68"
"1624","10278.48"
"1625","10262.97"
"1626","10252.1"
"1627","10264.66"
"1628","10316.67"
"1629","10391.24"
"1630","10452.24"
"1631","10469.59"
"1632","10448.15"
"1633","10404.73"
"1634","10354.68"
"1635","10308.59"
"1636","10276.09"
"1637","10261.76"
"1638","10261.09"
"1639","10268.57"
"1640","10277.85"
"1641","10281.65"
"1642","10273.28"
"1643","10253.47"
"1644","10227.56"
"1645","10201.16"
"1646","10180.77"
"1647","10173.21"
"1648","10179.59"
"1649","10183.17"
"1650","10163.96"
"1651","10118.51"
"1652","10072.11"
"1653","10051.93"
"1654","10063.54"
"1655","10091.07"
"1656","10118.5"
"1657","10137.17"
"1658","10142.56"
"1659","10131.73"
"1660","10109.23"
"1661","10081.91"
"1662","10057.27"
"1663","10044.5"
"1664","10052.73"
"1665","10076.71"
"1666","10091.29"
"1667","10072.12"
"1668","10028.89"
"1669","9997.3"
"1670","10007.41"
"1671","10046.34"
"1672","10083.54"
"1673","10095.85"
"1674","10085.1"
"1675","10058.34"
"1676","10026.36"
"1677","10006.39"
"1678","10015.22"
"1679","10048.69"
"1680","10083.22"
"1681","10097.46"
"1682","10094.27"
"1683","10088.31"
"1684","10090.41"
"1685","10096.21"
"1686","10097.69"
"1687","10089.73"
"1688","10072.73"
"1689","10047.72"
"1690","10015.43"
"1691","9976.355"
"1692","9932.215"
"1693","9895.443"
"1694","9883.942"
"1695","9908.749"
"1696","9953.729"
"1697","9996.13"
"1698","10019.96"
"1699","10021.99"
"1700","10000.85"
"1701","9965.561"
"1702","9934.962"
"1703","9926.064"
"1704","9938.264"
"1705","9962.65"
"1706","9990.824"
"1707","10016.39"
"1708","10033.42"
"1709","10039.85"
"1710","10039.88"
"1711","10038.08"
"1712","10034.95"
"1713","10027.73"
"1714","10014.01"
"1715","9994.392"
"1716","9970.594"
"1717","9946.542"
"1718","9932.116"
"1719","9937.867"
"1720","9960.758"
"1721","9980.346"
"1722","9977.09"
"1723","9953.984"
"1724","9927.852"
"1725","9914.35"
"1726","9922.987"
"1727","9961.466"
"1728","10022.22"
"1729","10068.36"
"1730","10061.72"
"1731","10004.87"
"1732","9936.852"
"1733","9894.173"
"1734","9887.295"
"1735","9916.037"
"1736","9971.428"
"1737","10020.38"
"1738","10026.64"
"1739","9987.661"
"1740","9942.224"
"1741","9927.395"
"1742","9938.961"
"1743","9949.717"
"1744","9940.874"
"1745","9926.136"
"1746","9926.471"
"1747","9940.825"
"1748","9933.427"
"1749","9870.628"
"1750","9787.428"
"1751","9767.195"
"1752","9867.127"
"1753","10015.05"
"1754","10100.85"
"1755","10071.47"
"1756","9983.082"
"1757","9902.097"
"1758","9857.605"
"1759","9847.675"
"1760","9868.166"
"1761","9907.958"
"1762","9953.465"
"1763","9991.366"
"1764","10008.96"
"1765","9994.61"
"1766","9957.148"
"1767","9924.281"
"1768","9918.929"
"1769","9929.69"
"1770","9932.067"
"1771","9915.743"
"1772","9903.656"
"1773","9922.124"
"1774","9967.403"
"1775","10006.77"
"1776","10011.12"
"1777","9981.994"
"1778","9933.038"
"1779","9882.555"
"1780","9859.679"
"1781","9892.938"
"1782","9964.75"
"1783","10013.94"
"1784","9990.501"
"1785","9923.444"
"1786","9871.307"
"1787","9868.494"
"1788","9896.228"
"1789","9929.049"
"1790","9949.465"
"1791","9946.896"
"1792","9916.714"
"1793","9885.103"
"1794","9888.394"
"1795","9933.112"
"1796","9968.216"
"1797","9941.278"
"1798","9876.946"
"1799","9858.282"
"1800","9939.487"
"1801","10038.64"
"1802","10037.05"
"1803","9912.915"
"1804","9799.424"
"1805","9828.735"
"1806","9966.073"
"1807","10073.57"
"1808","10056.78"
"1809","9977.906"
"1810","9931.593"
"1811","9952.934"
"1812","10002.43"
"1813","10037.9"
"1814","10033.73"
"1815","9972.122"
"1816","9862.188"
"1817","9781.096"
"1818","9811.697"
"1819","9934.073"
"1820","10033.09"
"1821","10015.76"
"1822","9926.942"
"1823","9856.631"
"1824","9852.841"
"1825","9889.391"
"1826","9932.784"
"1827","9952.988"
"1828","9922.167"
"1829","9833.875"
"1830","9754.808"
"1831","9764.886"
"1832","9863.427"
"1833","9955.169"
"1834","9955.048"
"1835","9884.723"
"1836","9809.94"
"1837","9774.38"
"1838","9774.723"
"1839","9801.489"
"1840","9842.337"
"1841","9882.788"
"1842","9910.223"
"1843","9919.541"
"1844","9907.783"
"1845","9884.663"
"1846","9875.867"
"1847","9903.467"
"1848","9956.264"
"1849","10008.71"
"1850","10044.21"
"1851","10065.34"
"1852","10075.99"
"1853","10064.53"
"1854","10008.07"
"1855","9902.965"
"1856","9816.055"
"1857","9827.408"
"1858","9930.968"
"1859","10021.39"
"1860","10008.49"
"1861","9929.868"
"1862","9871.081"
"1863","9875.367"
"1864","9909.265"
"1865","9933.932"
"1866","9939.327"
"1867","9932.573"
"1868","9919.834"
"1869","9903.875"
"1870","9887.254"
"1871","9879.493"
"1872","9896.381"
"1873","9944.057"
"1874","9985.184"
"1875","9971.627"
"1876","9904.601"
"1877","9849.865"
"1878","9864.674"
"1879","9918.394"
"1880","9944.419"
"1881","9918.799"
"1882","9897.89"
"1883","9939.601"
"1884","10024.84"
"1885","10088.96"
"1886","10088.63"
"1887","10039"
"1888","9965.559"
"1889","9903.914"
"1890","9897.916"
"1891","9966.491"
"1892","10034.26"
"1893","10007.42"
"1894","9894.914"
"1895","9817.254"
"1896","9871.175"
"1897","10001.04"
"1898","10103.29"
"1899","10122.47"
"1900","10071.38"
"1901","9970.79"
"1902","9860.482"
"1903","9788.171"
"1904","9781.536"
"1905","9831.884"
"1906","9922.707"
"1907","10001.32"
"1908","9995.722"
"1909","9889.226"
"1910","9790.959"
"1911","9816.228"
"1912","9942.418"
"1913","10055.64"
"1914","10075.92"
"1915","10022.87"
"1916","9933.688"
"1917","9851.093"
"1918","9822.181"
"1919","9871.651"
"1920","9948.543"
"1921","9988.27"
"1922","9973.106"
"1923","9928.466"
"1924","9879.657"
"1925","9844.925"
"1926","9839.937"
"1927","9857.502"
"1928","9866.534"
"1929","9844.035"
"1930","9808.557"
"1931","9789.538"
"1932","9791.638"
"1933","9790.821"
"1934","9771.153"
"1935","9765.229"
"1936","9819.027"
"1937","9915.748"
"1938","9959.916"
"1939","9877.52"
"1940","9737.682"
"1941","9655.795"
"1942","9675.067"
"1943","9743.093"
"1944","9806.91"
"1945","9848.346"
"1946","9861.489"
"1947","9846.461"
"1948","9811.58"
"1949","9766.248"
"1950","9722.488"
"1951","9693.251"
"1952","9689.357"
"1953","9718.701"
"1954","9781.089"
"1955","9831.389"
"1956","9809.698"
"1957","9710.735"
"1958","9602.755"
"1959","9549.316"
"1960","9558.359"
"1961","9618.255"
"1962","9696.475"
"1963","9733.629"
"1964","9686.508"
"1965","9605.569"
"1966","9569.93"
"1967","9602.59"
"1968","9658.805"
"1969","9695.56"
"1970","9697.716"
"1971","9659.309"
"1972","9601.985"
"1973","9577.827"
"1974","9619.167"
"1975","9668.349"
"1976","9647.229"
"1977","9552.313"
"1978","9453.589"
"1979","9408.381"
"1980","9415.929"
"1981","9461.586"
"1982","9518.552"
"1983","9549.598"
"1984","9533.853"
"1985","9501.955"
"1986","9491.17"
"1987","9492.694"
"1988","9464.157"
"1989","9395.058"
"1990","9357.786"
"1991","9425.953"
"1992","9545.6"
"1993","9585.991"
"1994","9493.396"
"1995","9374.915"
"1996","9343.44"
"1997","9394.935"
"1998","9468.525"
"1999","9513.291"
"2000","9495.396"
"2001","9395.588"
"2002","9275.077"
"2003","9224.002"
"2004","9264.099"
"2005","9329.43"
"2006","9360.98"
"2007","9358.498"
"2008","9337.91"
"2009","9301.882"
"2010","9240.059"
"2011","9154.092"
"2012","9087.43"
"2013","9087.938"
"2014","9141.651"
"2015","9189.167"
"2016","9192.75"
"2017","9169.22"
"2018","9141.5"
"2019","9115.04"
"2020","9086.08"
"2021","9060.342"
"2022","9059.769"
"2023","9099.654"
"2024","9145.292"
"2025","9144.586"
"2026","9090.879"
"2027","9031.995"
"2028","9009.842"
"2029","9029.345"
"2030","9084.974"
"2031","9150.528"
"2032","9182.668"
"2033","9151.33"
"2034","9062.679"
"2035","8932.013"
"2036","8806"
"2037","8748.394"
"2038","8782.232"
"2039","8860.945"
"2040","8934.037"
"2041","8968.508"
"2042","8939.052"
"2043","8863.769"
"2044","8808.801"
"2045","8817.514"
"2046","8844.579"
"2047","8830.741"
"2048","8790.346"
"2049","8789.575"
"2050","8846.041"
"2051","8872.514"
"2052","8789.396"
"2053","8668.163"
"2054","8643.008"
"2055","8729.301"
"2056","8789.143"
"2057","8719.895"
"2058","8602.479"
"2059","8557.49"
"2060","8603.737"
"2061","8680.808"
"2062","8737.046"
"2063","8745.723"
"2064","8691.492"
"2065","8619.18"
"2066","8599.307"
"2067","8635.137"
"2068","8642.134"
"2069","8562.17"
"2070","8465.378"
"2071","8446.547"
"2072","8497.288"
"2073","8532.459"
"2074","8508.733"
"2075","8474.824"
"2076","8481.76"
"2077","8517.631"
"2078","8545.415"
"2079","8546.818"
"2080","8525.185"
"2081","8485.139"
"2082","8431.525"
"2083","8371.44"
"2084","8335.834"
"2085","8369.905"
"2086","8467.793"
"2087","8536.653"
"2088","8499.669"
"2089","8405.221"
"2090","8338.121"
"2091","8322.213"
"2092","8327.233"
"2093","8330.619"
"2094","8333.132"
"2095","8336.602"
"2096","8325.39"
"2097","8277.034"
"2098","8203.63"
"2099","8158.856"
"2100","8177.144"
"2101","8220.328"
"2102","8239.094"
"2103","8226.516"
"2104","8200.874"
"2105","8175.545"
"2106","8155.715"
"2107","8147.362"
"2108","8162.91"
"2109","8212.952"
"2110","8256.397"
"2111","8213.909"
"2112","8072.898"
"2113","7951.43"
"2114","7952.957"
"2115","8017.643"
"2116","8035.017"
"2117","7990.73"
"2118","7956.345"
"2119","7968.864"
"2120","7979.011"
"2121","7938.736"
"2122","7886.892"
"2123","7893.932"
"2124","7954.635"
"2125","7986.676"
"2126","7942.263"
"2127","7872.471"
"2128","7835.005"
"2129","7819.163"
"2130","7785.499"
"2131","7740.705"
"2132","7742.67"
"2133","7816.514"
"2134","7888.199"
"2135","7878.091"
"2136","7799.291"
"2137","7707.691"
"2138","7635.149"
"2139","7585.585"
"2140","7560.259"
"2141","7557.181"
"2142","7572.065"
"2143","7587.259"
"2144","7579.62"
"2145","7551.873"
"2146","7536.267"
"2147","7557.078"
"2148","7611.687"
"2149","7686.34"
"2150","7719.113"
"2151","7630.446"
"2152","7456.802"
"2153","7359.692"
"2154","7421.637"
"2155","7504.553"
"2156","7464.846"
"2157","7362.201"
"2158","7335.304"
"2159","7404.956"
"2160","7476.688"
"2161","7480.381"
"2162","7412.832"
"2163","7290.595"
"2164","7190.718"
"2165","7205.069"
"2166","7301.876"
"2167","7345.482"
"2168","7272.042"
"2169","7162.545"
"2170","7099.788"
"2171","7096.023"
"2172","7140.5"
"2173","7193.51"
"2174","7195.911"
"2175","7141.057"
"2176","7104.751"
"2177","7138.538"
"2178","7177.892"
"2179","7142.536"
"2180","7057.067"
"2181","7002.112"
"2182","7003.214"
"2183","7018.399"
"2184","7008.396"
"2185","6952.784"
"2186","6844.255"
"2187","6741.906"
"2188","6727.779"
"2189","6798.628"
"2190","6874.124"
"2191","6899.179"
"2192","6874.054"
"2193","6813.103"
"2194","6765.502"
"2195","6782.199"
"2196","6817.343"
"2197","6764.901"
"2198","6620.196"
"2199","6518.812"
"2200","6549.611"
"2201","6629.192"
"2202","6656.458"
"2203","6636.704"
"2204","6619.313"
"2205","6612.868"
"2206","6588.136"
"2207","6523.45"
"2208","6414.645"
"2209","6276.97"
"2210","6200.758"
"2211","6279.309"
"2212","6422.19"
"2213","6434.936"
"2214","6304.404"
"2215","6240.724"
"2216","6358.333"
"2217","6490.708"
"2218","6465.639"
"2219","6336.115"
"2220","6229.808"
"2221","6193.272"
"2222","6212.067"
"2223","6247.922"
"2224","6229.032"
"2225","6122.967"
"2226","6030.531"
"2227","6052.446"
"2228","6102.972"
"2229","6027.044"
"2230","5862.621"
"2231","5813.486"
"2232","5937.91"
"2233","6034.344"
"2234","5953.377"
"2235","5825.587"
"2236","5817.649"
"2237","5884.278"
"2238","5885.119"
"2239","5787.875"
"2240","5661.65"
"2241","5564.958"
"2242","5529.648"
"2243","5566.088"
"2244","5614.61"
"2245","5609.415"
"2246","5569.072"
"2247","5549.876"
"2248","5545.446"
"2249","5491.153"
"2250","5382.939"
"2251","5329.317"
"2252","5399.8"
"2253","5480.98"
"2254","5440.447"
"2255","5315.343"
"2256","5216.036"
"2257","5174.706"
"2258","5155.016"
"2259","5118.945"
"2260","5029.61"
"2261","4881.321"
"2262","4767.382"
"2263","4778.268"
"2264","4856.559"
"2265","4890.874"
"2266","4845.736"
"2267","4743.408"
"2268","4621.229"
"2269","4535.352"
"2270","4509.248"
"2271","4477.277"
"2272","4377.256"
"2273","4239.753"
"2274","4121.69"
"2275","4042.19"
"2276","3997.113"
"2277","3973.094"
"2278","3947.057"
"2279","3906.766"
"2280","3862.716"
"2281","3820.432"
"2282","3756.375"
"2283","3646.928"
"2284","3519.551"
"2285","3422.948"
"2286","3375.032"
"2287","3367.988"
"2288","3364.544"
"2289","3286.37"
"2290","3102.969"
"2291","2916.488"
"2292","2823.595"
"2293","2788.621"
"2294","2742.219"
"2295","2680.688"
"2296","2634.963"
"2297","2593.99"
"2298","2506.029"
"2299","2361.836"
"2300","2226.762"
