,"Scan 01072"
"400","13033.33"
"401","12992.16"
"402","12942.53"
"403","12899.7"
"404","12878.84"
"405","12892.54"
"406","12932.05"
"407","12977.88"
"408","13010.6"
"409","13012.22"
"410","12981.97"
"411","12930.99"
"412","12870.62"
"413","12811.96"
"414","12763.45"
"415","12731"
"416","12720.39"
"417","12737.14"
"418","12777.89"
"419","12828.46"
"420","12874.09"
"421","12900.23"
"422","12900.53"
"423","12881.73"
"424","12851.71"
"425","12818.3"
"426","12786.72"
"427","12756.89"
"428","12728.06"
"429","12699.5"
"430","12671.63"
"431","12648.1"
"432","12633.04"
"433","12630.55"
"434","12642.67"
"435","12664.32"
"436","12688.94"
"437","12710"
"438","12721.61"
"439","12720.42"
"440","12703.81"
"441","12669.19"
"442","12615.91"
"443","12553.88"
"444","12496.57"
"445","12457.33"
"446","12447.06"
"447","12460.44"
"448","12485.5"
"449","12510.29"
"450","12524.07"
"451","12525.03"
"452","12515.81"
"453","12499.03"
"454","12476.91"
"455","12447.37"
"456","12405.93"
"457","12348.1"
"458","12270.5"
"459","12182.97"
"460","12104.05"
"461","12052.31"
"462","12044.55"
"463","12073.87"
"464","12115.61"
"465","12144.86"
"466","12138.34"
"467","12097.82"
"468","12045.94"
"469","12005.84"
"470","11999.39"
"471","12025.52"
"472","12062.24"
"473","12086.91"
"474","12077.95"
"475","12034.86"
"476","11978.07"
"477","11928.74"
"478","11907.26"
"479","11916.15"
"480","11939.08"
"481","11958.88"
"482","11958.93"
"483","11935.71"
"484","11900.24"
"485","11864.26"
"486","11839.18"
"487","11828.24"
"488","11825.2"
"489","11823.32"
"490","11816.03"
"491","11800.26"
"492","11777.21"
"493","11748.29"
"494","11714.94"
"495","11679.81"
"496","11646.95"
"497","11620.5"
"498","11604.42"
"499","11597.44"
"500","11592.02"
"501","11580.29"
"502","11554.75"
"503","11519.18"
"504","11490.68"
"505","11487.07"
"506","11526.08"
"507","11626.83"
"508","11810"
"509","12096.26"
"510","12505.59"
"511","13041.58"
"512","13689.73"
"513","14434.67"
"514","15259.67"
"515","16110.72"
"516","16894.91"
"517","17517.93"
"518","17888.57"
"519","17973.17"
"520","17794.25"
"521","17376.6"
"522","16746.35"
"523","15959.08"
"524","15096.76"
"525","14241.9"
"526","13473.53"
"527","12819.63"
"528","12266.43"
"529","11798.97"
"530","11403.04"
"531","11073.83"
"532","10813.44"
"533","10624.13"
"534","10506.53"
"535","10442.36"
"536","10401.08"
"537","10352.1"
"538","10268"
"539","10151.18"
"540","10020.95"
"541","9896.673"
"542","9795.95"
"543","9722.594"
"544","9673.729"
"545","9646.445"
"546","9637.484"
"547","9641.161"
"548","9650.82"
"549","9659.833"
"550","9662.329"
"551","9656.381"
"552","9641.4"
"553","9616.799"
"554","9582.689"
"555","9542.209"
"556","9499.318"
"557","9457.951"
"558","9420.882"
"559","9386.86"
"560","9353.771"
"561","9319.511"
"562","9284.647"
"563","9257.084"
"564","9245.934"
"565","9260.217"
"566","9299.855"
"567","9345.226"
"568","9374.245"
"569","9365.146"
"570","9311.739"
"571","9233.913"
"572","9153.964"
"573","9093.749"
"574","9061.813"
"575","9049.416"
"576","9046.705"
"577","9044.156"
"578","9038.974"
"579","9035.069"
"580","9036.638"
"581","9047.444"
"582","9065.281"
"583","9083.412"
"584","9095.014"
"585","9094.248"
"586","9084.619"
"587","9074.909"
"588","9073.931"
"589","9088.094"
"590","9107.869"
"591","9117.198"
"592","9100.071"
"593","9046.174"
"594","8971.533"
"595","8899.775"
"596","8854.431"
"597","8850.616"
"598","8876.638"
"599","8915.474"
"600","8950.205"
"601","8970.116"
"602","8978.137"
"603","8979.024"
"604","8977.456"
"605","8974.82"
"606","8967.457"
"607","8951.289"
"608","8922.532"
"609","8884.569"
"610","8848.431"
"611","8825.48"
"612","8825.939"
"613","8844.616"
"614","8865.037"
"615","8870.523"
"616","8847.297"
"617","8805.167"
"618","8765.536"
"619","8749.813"
"620","8773.063"
"621","8818.162"
"622","8857.76"
"623","8864.604"
"624","8823.581"
"625","8758.215"
"626","8699.669"
"627","8678.856"
"628","8707.929"
"629","8761.281"
"630","8808.868"
"631","8821.317"
"632","8791.485"
"633","8740.85"
"634","8692.721"
"635","8669.185"
"636","8673.273"
"637","8692.298"
"638","8713.137"
"639","8723.838"
"640","8722.302"
"641","8711.521"
"642","8694.522"
"643","8674.062"
"644","8651.572"
"645","8628.082"
"646","8604.615"
"647","8582.432"
"648","8563.482"
"649","8549.828"
"650","8543.504"
"651","8544.332"
"652","8548.419"
"653","8551.521"
"654","8549.576"
"655","8542.554"
"656","8534.501"
"657","8529.638"
"658","8531.694"
"659","8539.357"
"660","8548.279"
"661","8554.079"
"662","8552.572"
"663","8540.595"
"664","8515.331"
"665","8473.985"
"666","8418.927"
"667","8367.854"
"668","8341.258"
"669","8359.301"
"670","8423.431"
"671","8504.378"
"672","8570.101"
"673","8590.083"
"674","8563.366"
"675","8516.497"
"676","8477.004"
"677","8469.201"
"678","8489.643"
"679","8520.477"
"680","8543.774"
"681","8546.712"
"682","8538.661"
"683","8535.019"
"684","8551.105"
"685","8592.896"
"686","8645.504"
"687","8691.251"
"688","8712.937"
"689","8707.646"
"690","8689.531"
"691","8673.71"
"692","8673.949"
"693","8688.806"
"694","8707.079"
"695","8717.436"
"696","8711.394"
"697","8695.338"
"698","8680.507"
"699","8678.101"
"700","8693.598"
"701","8718.051"
"702","8740.276"
"703","8749.313"
"704","8741.623"
"705","8723.168"
"706","8700.531"
"707","8679.731"
"708","8660.319"
"709","8637.596"
"710","8606.79"
"711","8565.063"
"712","8519.468"
"713","8480.201"
"714","8457.424"
"715","8455.586"
"716","8465.679"
"717","8476.768"
"718","8478.235"
"719","8468.405"
"720","8455.882"
"721","8449.823"
"722","8457.926"
"723","8473.795"
"724","8483.098"
"725","8471.449"
"726","8430.535"
"727","8376.935"
"728","8333.577"
"729","8323.188"
"730","8352.581"
"731","8399.38"
"732","8438.122"
"733","8444.65"
"734","8417.771"
"735","8376.238"
"736","8339.436"
"737","8323.87"
"738","8327.517"
"739","8340.959"
"740","8354.777"
"741","8362.519"
"742","8365.731"
"743","8367.295"
"744","8370.016"
"745","8374.082"
"746","8376.538"
"747","8374.24"
"748","8364.65"
"749","8350.883"
"750","8339.158"
"751","8335.714"
"752","8344.304"
"753","8359.586"
"754","8374.147"
"755","8380.672"
"756","8376.83"
"757","8367.934"
"758","8359.934"
"759","8358.399"
"760","8364.179"
"761","8374.925"
"762","8388.229"
"763","8401.904"
"764","8414.7"
"765","8425.635"
"766","8433.729"
"767","8438.634"
"768","8441.116"
"769","8442.052"
"770","8442.444"
"771","8445.149"
"772","8454.427"
"773","8474.566"
"774","8508.225"
"775","8550.071"
"776","8592.352"
"777","8627.333"
"778","8650.208"
"779","8661.617"
"780","8662.798"
"781","8655.197"
"782","8643.493"
"783","8634.856"
"784","8636.52"
"785","8653.224"
"786","8677.721"
"787","8699.15"
"788","8706.745"
"789","8696.635"
"790","8677.329"
"791","8658.615"
"792","8649.517"
"793","8648.816"
"794","8647.936"
"795","8638.138"
"796","8613.977"
"797","8584.1"
"798","8560.949"
"799","8556.806"
"800","8574.886"
"801","8604.226"
"802","8632.631"
"803","8648.793"
"804","8650.848"
"805","8642.701"
"806","8628.332"
"807","8611.139"
"808","8592.503"
"809","8573.371"
"810","8554.75"
"811","8539.896"
"812","8534.872"
"813","8545.921"
"814","8577.575"
"815","8621.017"
"816","8661.152"
"817","8682.884"
"818","8679.073"
"819","8662.768"
"820","8650.151"
"821","8656.594"
"822","8681.427"
"823","8709.192"
"824","8723.894"
"825","8713.595"
"826","8687.565"
"827","8661.987"
"828","8652.899"
"829","8665.384"
"830","8685.678"
"831","8698.163"
"832","8688.935"
"833","8662.84"
"834","8636.354"
"835","8626.113"
"836","8641.785"
"837","8670.577"
"838","8695.183"
"839","8698.854"
"840","8679.604"
"841","8651.549"
"842","8629.613"
"843","8625.636"
"844","8632.834"
"845","8637.489"
"846","8625.985"
"847","8596.734"
"848","8570.491"
"849","8570.441"
"850","8616.695"
"851","8694.192"
"852","8765.446"
"853","8792.634"
"854","8754.257"
"855","8680.359"
"856","8611.114"
"857","8585.325"
"858","8609.006"
"859","8654.656"
"860","8693.264"
"861","8702.276"
"862","8693.353"
"863","8689.433"
"864","8713.176"
"865","8769.352"
"866","8834.438"
"867","8882.425"
"868","8890.864"
"869","8868.565"
"870","8840.508"
"871","8831.766"
"872","8856.65"
"873","8903.635"
"874","8957.395"
"875","9003.41"
"876","9039.012"
"877","9070.568"
"878","9104.687"
"879","9144.32"
"880","9179.308"
"881","9196.553"
"882","9183.535"
"883","9143.05"
"884","9094.369"
"885","9057.575"
"886","9048.638"
"887","9062.028"
"888","9085.21"
"889","9105.824"
"890","9120.63"
"891","9139.781"
"892","9174.494"
"893","9232.816"
"894","9299.334"
"895","9348.117"
"896","9353.343"
"897","9308.33"
"898","9243.646"
"899","9194.151"
"900","9191.194"
"901","9230.117"
"902","9285.126"
"903","9330.178"
"904","9347.666"
"905","9341.177"
"906","9317.585"
"907","9283.968"
"908","9250.322"
"909","9228.806"
"910","9231.614"
"911","9264.479"
"912","9312.7"
"913","9357.561"
"914","9380.967"
"915","9376.769"
"916","9349.431"
"917","9303.789"
"918","9246.898"
"919","9194.362"
"920","9163.824"
"921","9172.13"
"922","9216.182"
"923","9272.203"
"924","9315.449"
"925","9328.477"
"926","9326.712"
"927","9334.819"
"928","9376.666"
"929","9451.201"
"930","9528.168"
"931","9575.639"
"932","9569.428"
"933","9524.684"
"934","9469.012"
"935","9429.608"
"936","9417.681"
"937","9423.954"
"938","9437.814"
"939","9449.167"
"940","9450.818"
"941","9436.579"
"942","9400.521"
"943","9348.29"
"944","9301.226"
"945","9281.79"
"946","9307.365"
"947","9365.827"
"948","9434.444"
"949","9490.646"
"950","9520.026"
"951","9519.556"
"952","9487.031"
"953","9423.728"
"954","9351.275"
"955","9298.688"
"956","9294.456"
"957","9342.321"
"958","9411.884"
"959","9470.235"
"960","9490.239"
"961","9477.702"
"962","9450.09"
"963","9424.715"
"964","9411.951"
"965","9412.953"
"966","9428.233"
"967","9456.842"
"968","9489.954"
"969","9516.119"
"970","9524.203"
"971","9514.313"
"972","9500.473"
"973","9497.583"
"974","9515.523"
"975","9539.822"
"976","9548.63"
"977","9520.85"
"978","9457.184"
"979","9382.766"
"980","9324.038"
"981","9301.542"
"982","9310.726"
"983","9340.371"
"984","9379.263"
"985","9416.322"
"986","9440.617"
"987","9441.205"
"988","9413.649"
"989","9376.897"
"990","9355.163"
"991","9370.936"
"992","9417.035"
"993","9461.39"
"994","9471.145"
"995","9429.167"
"996","9364.786"
"997","9315.873"
"998","9317.369"
"999","9366.274"
"1000","9433.286"
"1001","9488.589"
"1002","9513.429"
"1003","9515.179"
"1004","9504.976"
"1005","9493.974"
"1006","9492.41"
"1007","9504.392"
"1008","9531.5"
"1009","9575.122"
"1010","9627.655"
"1011","9668.595"
"1012","9676.421"
"1013","9636.66"
"1014","9573.122"
"1015","9522.584"
"1016","9520.774"
"1017","9569.702"
"1018","9631.756"
"1019","9667.037"
"1020","9647.415"
"1021","9594.521"
"1022","9543.124"
"1023","9526.625"
"1024","9550.241"
"1025","9593.097"
"1026","9633.313"
"1027","9654.992"
"1028","9661.069"
"1029","9658.185"
"1030","9652.869"
"1031","9650.193"
"1032","9654.214"
"1033","9668.942"
"1034","9693.111"
"1035","9713.453"
"1036","9715.041"
"1037","9685.981"
"1038","9640.377"
"1039","9605.508"
"1040","9608.451"
"1041","9655.185"
"1042","9717.958"
"1043","9765.971"
"1044","9774.661"
"1045","9754.134"
"1046","9726.472"
"1047","9713.224"
"1048","9720.702"
"1049","9738.521"
"1050","9755.429"
"1051","9764.395"
"1052","9773.275"
"1053","9793.213"
"1054","9834.073"
"1055","9888.056"
"1056","9934.549"
"1057","9952.704"
"1058","9934.782"
"1059","9901.736"
"1060","9878.33"
"1061","9885.104"
"1062","9910.862"
"1063","9929.964"
"1064","9917.225"
"1065","9870.631"
"1066","9819.334"
"1067","9794.698"
"1068","9817.882"
"1069","9866.917"
"1070","9908.455"
"1071","9911.142"
"1072","9876.276"
"1073","9831.548"
"1074","9805.374"
"1075","9812.071"
"1076","9833.062"
"1077","9845.071"
"1078","9828.43"
"1079","9791.033"
"1080","9753.47"
"1081","9735.981"
"1082","9742.205"
"1083","9754.234"
"1084","9752.708"
"1085","9725.842"
"1086","9690.89"
"1087","9672.069"
"1088","9691.468"
"1089","9742.663"
"1090","9799.059"
"1091","9833.724"
"1092","9833.326"
"1093","9810.744"
"1094","9781.861"
"1095","9760.563"
"1096","9749.156"
"1097","9745.78"
"1098","9748.432"
"1099","9751.944"
"1100","9748.05"
"1101","9728.355"
"1102","9691.888"
"1103","9657.476"
"1104","9647.212"
"1105","9678.717"
"1106","9733.438"
"1107","9775.318"
"1108","9769.057"
"1109","9711.266"
"1110","9638.713"
"1111","9590.753"
"1112","9594.278"
"1113","9633.862"
"1114","9685.093"
"1115","9725.023"
"1116","9745.916"
"1117","9748.97"
"1118","9735.584"
"1119","9711.766"
"1120","9690.322"
"1121","9684.618"
"1122","9703.003"
"1123","9734.035"
"1124","9761.39"
"1125","9770.187"
"1126","9762.805"
"1127","9752.887"
"1128","9754.135"
"1129","9770.474"
"1130","9790.258"
"1131","9800.438"
"1132","9792.034"
"1133","9773.02"
"1134","9755.768"
"1135","9751.776"
"1136","9761.733"
"1137","9779.121"
"1138","9797.357"
"1139","9813.01"
"1140","9827.653"
"1141","9843.307"
"1142","9859.914"
"1143","9869.205"
"1144","9860.854"
"1145","9826.189"
"1146","9774.83"
"1147","9727.775"
"1148","9705.954"
"1149","9717.177"
"1150","9750.469"
"1151","9793.392"
"1152","9834.376"
"1153","9864.908"
"1154","9877.117"
"1155","9864.54"
"1156","9833.49"
"1157","9797.083"
"1158","9768.317"
"1159","9753.777"
"1160","9752.377"
"1161","9762.567"
"1162","9782.153"
"1163","9807.16"
"1164","9833.307"
"1165","9856.877"
"1166","9877.987"
"1167","9898.35"
"1168","9919.352"
"1169","9935.765"
"1170","9936.253"
"1171","9909.332"
"1172","9856.717"
"1173","9806.627"
"1174","9790.48"
"1175","9829.204"
"1176","9894.657"
"1177","9944.363"
"1178","9939.844"
"1179","9890.275"
"1180","9835.952"
"1181","9817.094"
"1182","9845.686"
"1183","9895.036"
"1184","9935.641"
"1185","9947.649"
"1186","9939.852"
"1187","9926.311"
"1188","9919.704"
"1189","9923.191"
"1190","9935.954"
"1191","9956.919"
"1192","9980.655"
"1193","9997.94"
"1194","9999.529"
"1195","9985.948"
"1196","9974.966"
"1197","9986.113"
"1198","10030.2"
"1199","10085.19"
"1200","10121.31"
"1201","10113.35"
"1202","10074.74"
"1203","10038.3"
"1204","10035.56"
"1205","10064.37"
"1206","10088.99"
"1207","10072.4"
"1208","10002.51"
"1209","9916.018"
"1210","9855.339"
"1211","9851.26"
"1212","9887.489"
"1213","9935.806"
"1214","9970.313"
"1215","9985.659"
"1216","9987.099"
"1217","9980.016"
"1218","9970.551"
"1219","9965.591"
"1220","9972.006"
"1221","9990.54"
"1222","10010.51"
"1223","10019.96"
"1224","10011.23"
"1225","9992.5"
"1226","9975.59"
"1227","9970.351"
"1228","9971.611"
"1229","9967.341"
"1230","9946.523"
"1231","9916.54"
"1232","9900.371"
"1233","9921.139"
"1234","9980.331"
"1235","10046.18"
"1236","10084.09"
"1237","10074.34"
"1238","10039.79"
"1239","10010.85"
"1240","10012.21"
"1241","10036.66"
"1242","10066.05"
"1243","10083.52"
"1244","10086.9"
"1245","10083.18"
"1246","10079.33"
"1247","10076.32"
"1248","10068.65"
"1249","10050.48"
"1250","10022.79"
"1251","9999.49"
"1252","9996.007"
"1253","10021.31"
"1254","10062.11"
"1255","10100.28"
"1256","10120.49"
"1257","10125.21"
"1258","10123.97"
"1259","10125.83"
"1260","10134.19"
"1261","10148.58"
"1262","10168.32"
"1263","10188.68"
"1264","10200.34"
"1265","10193.81"
"1266","10168.84"
"1267","10142.79"
"1268","10134.96"
"1269","10155.14"
"1270","10182.03"
"1271","10188.01"
"1272","10152.59"
"1273","10095.92"
"1274","10052.54"
"1275","10053.4"
"1276","10092.38"
"1277","10141.47"
"1278","10173.34"
"1279","10180.18"
"1280","10172.6"
"1281","10161.87"
"1282","10153.87"
"1283","10146.49"
"1284","10136.95"
"1285","10123.69"
"1286","10108.1"
"1287","10092.01"
"1288","10077.27"
"1289","10065.78"
"1290","10059.45"
"1291","10059.64"
"1292","10063.95"
"1293","10068.46"
"1294","10069.76"
"1295","10070.04"
"1296","10074.95"
"1297","10090"
"1298","10116.03"
"1299","10149.46"
"1300","10186.38"
"1301","10216.97"
"1302","10222.87"
"1303","10185.21"
"1304","10104.75"
"1305","10024.76"
"1306","9994.038"
"1307","10041.22"
"1308","10128.05"
"1309","10202.42"
"1310","10222.65"
"1311","10200.58"
"1312","10165.19"
"1313","10143.27"
"1314","10143.91"
"1315","10167.76"
"1316","10214.25"
"1317","10267.76"
"1318","10302.2"
"1319","10292.46"
"1320","10241.09"
"1321","10178.15"
"1322","10134.6"
"1323","10125.12"
"1324","10141.54"
"1325","10173.96"
"1326","10213.5"
"1327","10253.28"
"1328","10286.65"
"1329","10308.33"
"1330","10316.92"
"1331","10311.68"
"1332","10294.79"
"1333","10280.22"
"1334","10284.97"
"1335","10320.77"
"1336","10368.48"
"1337","10397.79"
"1338","10382.98"
"1339","10337.69"
"1340","10295.24"
"1341","10286.59"
"1342","10310.61"
"1343","10344.38"
"1344","10365.31"
"1345","10366.34"
"1346","10354.41"
"1347","10336.88"
"1348","10317.48"
"1349","10295.63"
"1350","10270.6"
"1351","10247.15"
"1352","10238.59"
"1353","10258.92"
"1354","10308.37"
"1355","10359.01"
"1356","10379.49"
"1357","10352.97"
"1358","10301.65"
"1359","10254.21"
"1360","10231.71"
"1361","10228.25"
"1362","10231.99"
"1363","10232.97"
"1364","10229.87"
"1365","10223.82"
"1366","10216.59"
"1367","10213.73"
"1368","10222.21"
"1369","10246.24"
"1370","10268.94"
"1371","10263.48"
"1372","10207.45"
"1373","10123.9"
"1374","10062.3"
"1375","10068.5"
"1376","10134.62"
"1377","10214.46"
"1378","10262.78"
"1379","10267.48"
"1380","10245.1"
"1381","10212.8"
"1382","10179.99"
"1383","10148.02"
"1384","10117.98"
"1385","10095.33"
"1386","10090.88"
"1387","10115.45"
"1388","10163.46"
"1389","10205.3"
"1390","10209.76"
"1391","10169.42"
"1392","10117.61"
"1393","10091.59"
"1394","10107.12"
"1395","10136.99"
"1396","10148.94"
"1397","10126.77"
"1398","10091.78"
"1399","10070.57"
"1400","10076.74"
"1401","10088.94"
"1402","10080.02"
"1403","10037.25"
"1404","9992.396"
"1405","9985.822"
"1406","10040.46"
"1407","10118.01"
"1408","10166.69"
"1409","10150.78"
"1410","10098.49"
"1411","10053.9"
"1412","10051.15"
"1413","10079.98"
"1414","10117.83"
"1415","10145"
"1416","10156.26"
"1417","10150.78"
"1418","10128.7"
"1419","10095.18"
"1420","10057.12"
"1421","10021.55"
"1422","9996.274"
"1423","9989.388"
"1424","10006.5"
"1425","10037.3"
"1426","10065.17"
"1427","10075.7"
"1428","10069.72"
"1429","10054.41"
"1430","10037.41"
"1431","10029.3"
"1432","10041.98"
"1433","10084.12"
"1434","10139.8"
"1435","10181.72"
"1436","10185.71"
"1437","10153.01"
"1438","10097.04"
"1439","10031.82"
"1440","9975.521"
"1441","9948.424"
"1442","9966.766"
"1443","10012.88"
"1444","10052.21"
"1445","10054.88"
"1446","10032.02"
"1447","10015.37"
"1448","10032.12"
"1449","10069.85"
"1450","10096.21"
"1451","10082.77"
"1452","10035.52"
"1453","9977.559"
"1454","9930.271"
"1455","9899.823"
"1456","9884.952"
"1457","9884.337"
"1458","9896.592"
"1459","9920.307"
"1460","9952.479"
"1461","9978.085"
"1462","9976.567"
"1463","9932.199"
"1464","9864.476"
"1465","9808.404"
"1466","9793.484"
"1467","9811.138"
"1468","9836.91"
"1469","9848.714"
"1470","9839.97"
"1471","9810.158"
"1472","9761.703"
"1473","9714.196"
"1474","9693.494"
"1475","9719.208"
"1476","9777.117"
"1477","9841.65"
"1478","9889.252"
"1479","9906.45"
"1480","9882.845"
"1481","9815.402"
"1482","9733.682"
"1483","9676.265"
"1484","9670.672"
"1485","9700.686"
"1486","9739.273"
"1487","9765.048"
"1488","9776.41"
"1489","9776.094"
"1490","9767.971"
"1491","9759.405"
"1492","9758.435"
"1493","9769.553"
"1494","9787.726"
"1495","9806.326"
"1496","9816.628"
"1497","9805.027"
"1498","9757.352"
"1499","9678.564"
"1500","9612.08"
"1501","9605.475"
"1502","9667.183"
"1503","9738.09"
"1504","9753.327"
"1505","9700.375"
"1506","9643.86"
"1507","9652.813"
"1508","9729.828"
"1509","9794.395"
"1510","9764.097"
"1511","9643.693"
"1512","9529.993"
"1513","9519.003"
"1514","9608.194"
"1515","9707.937"
"1516","9731.543"
"1517","9676.234"
"1518","9600.776"
"1519","9560.738"
"1520","9562.134"
"1521","9581.119"
"1522","9595.118"
"1523","9595.298"
"1524","9579.544"
"1525","9547.816"
"1526","9512.932"
"1527","9492.716"
"1528","9499.202"
"1529","9515.93"
"1530","9517.702"
"1531","9488.863"
"1532","9449.841"
"1533","9429.603"
"1534","9445.408"
"1535","9480.503"
"1536","9512.011"
"1537","9526.368"
"1538","9530.788"
"1539","9535.244"
"1540","9544.807"
"1541","9556.127"
"1542","9565.053"
"1543","9568.64"
"1544","9565.547"
"1545","9554.593"
"1546","9536.011"
"1547","9511.454"
"1548","9482.98"
"1549","9457.555"
"1550","9445.941"
"1551","9457.559"
"1552","9487.035"
"1553","9520.392"
"1554","9544.995"
"1555","9558.425"
"1556","9562.654"
"1557","9559.563"
"1558","9550.491"
"1559","9536.61"
"1560","9518.105"
"1561","9491.71"
"1562","9453.41"
"1563","9404.648"
"1564","9360.373"
"1565","9337.457"
"1566","9341.532"
"1567","9358.387"
"1568","9372.012"
"1569","9375.437"
"1570","9373.124"
"1571","9370.229"
"1572","9371.107"
"1573","9379.382"
"1574","9397.864"
"1575","9420.276"
"1576","9434.497"
"1577","9429.941"
"1578","9408.044"
"1579","9375.603"
"1580","9339.17"
"1581","9303.942"
"1582","9274.721"
"1583","9256.626"
"1584","9255.79"
"1585","9278.499"
"1586","9323.94"
"1587","9376.349"
"1588","9418.188"
"1589","9438.775"
"1590","9437.164"
"1591","9413.525"
"1592","9376.08"
"1593","9340.796"
"1594","9322.802"
"1595","9323.468"
"1596","9335.256"
"1597","9351.158"
"1598","9368.857"
"1599","9388.035"
"1600","9407.578"
"1601","9422.982"
"1602","9428.817"
"1603","9420.998"
"1604","9399.019"
"1605","9363.012"
"1606","9316.678"
"1607","9269.787"
"1608","9232.602"
"1609","9212.619"
"1610","9214.297"
"1611","9240.749"
"1612","9279.319"
"1613","9306.234"
"1614","9302.732"
"1615","9288.458"
"1616","9300.041"
"1617","9360.577"
"1618","9435.07"
"1619","9473.073"
"1620","9447.014"
"1621","9387.162"
"1622","9332.474"
"1623","9301.362"
"1624","9280.636"
"1625","9255.1"
"1626","9224.441"
"1627","9202.509"
"1628","9202.198"
"1629","9220.89"
"1630","9246.916"
"1631","9268.566"
"1632","9274.576"
"1633","9253.825"
"1634","9204.904"
"1635","9156.554"
"1636","9143.119"
"1637","9173.124"
"1638","9208.762"
"1639","9208.905"
"1640","9172.742"
"1641","9142.363"
"1642","9156.984"
"1643","9199.428"
"1644","9217.032"
"1645","9170.526"
"1646","9101.415"
"1647","9080.15"
"1648","9142.453"
"1649","9215.763"
"1650","9207.266"
"1651","9093.856"
"1652","8972.956"
"1653","8949.853"
"1654","9033.837"
"1655","9139.188"
"1656","9184.036"
"1657","9164.498"
"1658","9120.497"
"1659","9085.497"
"1660","9058.95"
"1661","9029.989"
"1662","8996.129"
"1663","8976.148"
"1664","8991.65"
"1665","9040.111"
"1666","9085.692"
"1667","9092.759"
"1668","9065.678"
"1669","9039.45"
"1670","9044.675"
"1671","9076.873"
"1672","9117.104"
"1673","9149.06"
"1674","9165.385"
"1675","9160.676"
"1676","9136.672"
"1677","9107.423"
"1678","9087.723"
"1679","9082.563"
"1680","9087.896"
"1681","9099.337"
"1682","9112.653"
"1683","9123.673"
"1684","9127.749"
"1685","9118.435"
"1686","9088.908"
"1687","9041.264"
"1688","8994.594"
"1689","8969.245"
"1690","8969.781"
"1691","8985.146"
"1692","9004.411"
"1693","9023.663"
"1694","9042.559"
"1695","9056.726"
"1696","9045.973"
"1697","8986.469"
"1698","8885.197"
"1699","8806.96"
"1700","8819.339"
"1701","8912.186"
"1702","9001.685"
"1703","9014.01"
"1704","8977.489"
"1705","8968.665"
"1706","9035.09"
"1707","9121.918"
"1708","9152.63"
"1709","9103.563"
"1710","9037.809"
"1711","9022.357"
"1712","9055.299"
"1713","9079.007"
"1714","9045.514"
"1715","8977.659"
"1716","8925.568"
"1717","8919.427"
"1718","8934.518"
"1719","8937.423"
"1720","8919.296"
"1721","8902.773"
"1722","8910.214"
"1723","8938.104"
"1724","8967.054"
"1725","8980.817"
"1726","8978.08"
"1727","8961.681"
"1728","8939.158"
"1729","8927.086"
"1730","8941.906"
"1731","8977.528"
"1732","9007.65"
"1733","9009.239"
"1734","8986.043"
"1735","8952.757"
"1736","8923.116"
"1737","8908.041"
"1738","8917.604"
"1739","8948.482"
"1740","8980.954"
"1741","8995.894"
"1742","8989.906"
"1743","8968.354"
"1744","8937.772"
"1745","8908.675"
"1746","8892.385"
"1747","8891.181"
"1748","8893.089"
"1749","8886.014"
"1750","8873.027"
"1751","8867.889"
"1752","8878.574"
"1753","8884.547"
"1754","8857.028"
"1755","8794.394"
"1756","8746.97"
"1757","8767.361"
"1758","8846.103"
"1759","8922.059"
"1760","8943.624"
"1761","8922.094"
"1762","8890.676"
"1763","8874.488"
"1764","8880.836"
"1765","8913.354"
"1766","8948.974"
"1767","8939.947"
"1768","8852.351"
"1769","8744.077"
"1770","8708.054"
"1771","8785.913"
"1772","8899.197"
"1773","8955.732"
"1774","8940.186"
"1775","8911.267"
"1776","8920.066"
"1777","8949.354"
"1778","8955.184"
"1779","8912.106"
"1780","8838.196"
"1781","8757.813"
"1782","8695.933"
"1783","8678.105"
"1784","8721.799"
"1785","8795.019"
"1786","8847.279"
"1787","8852.588"
"1788","8838.82"
"1789","8839.491"
"1790","8859.403"
"1791","8878.31"
"1792","8879.801"
"1793","8872.857"
"1794","8874.881"
"1795","8889.877"
"1796","8895.954"
"1797","8870.626"
"1798","8826.367"
"1799","8802.159"
"1800","8823.682"
"1801","8853.95"
"1802","8839.039"
"1803","8768.497"
"1804","8701.418"
"1805","8697.896"
"1806","8759.015"
"1807","8849.446"
"1808","8933.444"
"1809","8975.992"
"1810","8943.554"
"1811","8852.842"
"1812","8783.482"
"1813","8805.035"
"1814","8876.232"
"1815","8903.79"
"1816","8840.738"
"1817","8758.445"
"1818","8743.015"
"1819","8802.007"
"1820","8870.244"
"1821","8891.282"
"1822","8870.343"
"1823","8832.979"
"1824","8801.243"
"1825","8790.915"
"1826","8814.493"
"1827","8853.351"
"1828","8868.798"
"1829","8836.99"
"1830","8786.208"
"1831","8754.996"
"1832","8752.296"
"1833","8752.287"
"1834","8731.767"
"1835","8698.937"
"1836","8674.961"
"1837","8672.659"
"1838","8687.119"
"1839","8711.468"
"1840","8743.14"
"1841","8782.746"
"1842","8824.088"
"1843","8834.451"
"1844","8776.188"
"1845","8667.846"
"1846","8598.879"
"1847","8646.047"
"1848","8762.582"
"1849","8848.528"
"1850","8850.479"
"1851","8814.61"
"1852","8796.012"
"1853","8796.19"
"1854","8777.978"
"1855","8720.896"
"1856","8668.068"
"1857","8675.329"
"1858","8745.668"
"1859","8821.121"
"1860","8849.261"
"1861","8833.068"
"1862","8796.454"
"1863","8763.062"
"1864","8755.879"
"1865","8793.997"
"1866","8855.762"
"1867","8895.189"
"1868","8884.511"
"1869","8848.473"
"1870","8820.073"
"1871","8813.073"
"1872","8823.988"
"1873","8845.507"
"1874","8856.241"
"1875","8831.653"
"1876","8777.617"
"1877","8739.789"
"1878","8755.972"
"1879","8792.217"
"1880","8785.275"
"1881","8717.032"
"1882","8654.263"
"1883","8665.95"
"1884","8745.222"
"1885","8840.326"
"1886","8905.944"
"1887","8915.74"
"1888","8850.162"
"1889","8750.442"
"1890","8707.31"
"1891","8775.218"
"1892","8867.065"
"1893","8866.461"
"1894","8765.096"
"1895","8672.063"
"1896","8676.881"
"1897","8736.949"
"1898","8768.418"
"1899","8743.48"
"1900","8713.724"
"1901","8726.229"
"1902","8754.484"
"1903","8741.26"
"1904","8673.249"
"1905","8616.803"
"1906","8636.72"
"1907","8705.098"
"1908","8744.316"
"1909","8716.261"
"1910","8673.587"
"1911","8676.455"
"1912","8723.185"
"1913","8771.164"
"1914","8789.095"
"1915","8779.418"
"1916","8750.755"
"1917","8717.125"
"1918","8696.828"
"1919","8701.083"
"1920","8716.863"
"1921","8726.267"
"1922","8715.9"
"1923","8676.52"
"1924","8610.525"
"1925","8565.402"
"1926","8596.976"
"1927","8689.953"
"1928","8754.672"
"1929","8723.467"
"1930","8643.804"
"1931","8593.564"
"1932","8590.951"
"1933","8585.014"
"1934","8537.466"
"1935","8492.75"
"1936","8519.125"
"1937","8614.196"
"1938","8687.003"
"1939","8662.334"
"1940","8580.858"
"1941","8521.141"
"1942","8522.983"
"1943","8574.809"
"1944","8658.094"
"1945","8735.341"
"1946","8762.937"
"1947","8725.501"
"1948","8646.16"
"1949","8551.971"
"1950","8476.158"
"1951","8453.595"
"1952","8490.117"
"1953","8551.747"
"1954","8603.629"
"1955","8623.08"
"1956","8592.377"
"1957","8524.035"
"1958","8471.24"
"1959","8477.927"
"1960","8520.423"
"1961","8552.422"
"1962","8550.575"
"1963","8521.171"
"1964","8475.24"
"1965","8437.994"
"1966","8438.246"
"1967","8469.978"
"1968","8485.164"
"1969","8446.922"
"1970","8383.431"
"1971","8341.398"
"1972","8346.393"
"1973","8400.648"
"1974","8492.665"
"1975","8558.396"
"1976","8523.472"
"1977","8395.916"
"1978","8264.854"
"1979","8204.223"
"1980","8219.331"
"1981","8297.688"
"1982","8387.897"
"1983","8405.159"
"1984","8307.289"
"1985","8186.791"
"1986","8154.39"
"1987","8212.067"
"1988","8282.477"
"1989","8312.082"
"1990","8312.759"
"1991","8304.357"
"1992","8282.513"
"1993","8228.329"
"1994","8140.976"
"1995","8057.188"
"1996","8015.173"
"1997","8026.347"
"1998","8088.754"
"1999","8176.117"
"2000","8222.585"
"2001","8175.514"
"2002","8087.177"
"2003","8047.975"
"2004","8077.697"
"2005","8105.632"
"2006","8077.216"
"2007","8039.599"
"2008","8064.895"
"2009","8131.154"
"2010","8124.042"
"2011","7981.393"
"2012","7828.376"
"2013","7817.561"
"2014","7933.747"
"2015","8038.483"
"2016","8045.288"
"2017","7999.274"
"2018","7959.574"
"2019","7936.525"
"2020","7914.587"
"2021","7892.524"
"2022","7893.797"
"2023","7933.93"
"2024","7965.678"
"2025","7920.576"
"2026","7806.9"
"2027","7724.881"
"2028","7748.493"
"2029","7824.193"
"2030","7870.397"
"2031","7872.222"
"2032","7870.06"
"2033","7886.827"
"2034","7895.417"
"2035","7866.035"
"2036","7821.005"
"2037","7811.207"
"2038","7845.328"
"2039","7859.766"
"2040","7802.924"
"2041","7733.905"
"2042","7747.779"
"2043","7833.513"
"2044","7862.518"
"2045","7752.712"
"2046","7606.565"
"2047","7557.172"
"2048","7605.62"
"2049","7659.76"
"2050","7661.904"
"2051","7631.513"
"2052","7594.984"
"2053","7558.063"
"2054","7517.747"
"2055","7478.934"
"2056","7456.721"
"2057","7461.449"
"2058","7481.514"
"2059","7500.695"
"2060","7516.96"
"2061","7539.27"
"2062","7562.733"
"2063","7550.503"
"2064","7470.793"
"2065","7363.42"
"2066","7299.604"
"2067","7303.942"
"2068","7340.047"
"2069","7372.855"
"2070","7389.134"
"2071","7381.949"
"2072","7358.107"
"2073","7334.649"
"2074","7323.492"
"2075","7325.179"
"2076","7336.305"
"2077","7336.867"
"2078","7301.191"
"2079","7238.941"
"2080","7200.428"
"2081","7220.253"
"2082","7273.021"
"2083","7322.335"
"2084","7348.65"
"2085","7343.011"
"2086","7307.361"
"2087","7261.853"
"2088","7225.797"
"2089","7204.909"
"2090","7200.42"
"2091","7209.543"
"2092","7225.924"
"2093","7243.522"
"2094","7257.412"
"2095","7262.259"
"2096","7248.738"
"2097","7206.134"
"2098","7138.206"
"2099","7066.106"
"2100","7010.261"
"2101","6984.993"
"2102","7000.255"
"2103","7033.083"
"2104","7041.261"
"2105","7009.693"
"2106","6965.94"
"2107","6931.646"
"2108","6886.153"
"2109","6802.082"
"2110","6722.195"
"2111","6741.209"
"2112","6874.741"
"2113","6983.255"
"2114","6943.716"
"2115","6822.357"
"2116","6744.855"
"2117","6739.726"
"2118","6748.596"
"2119","6736.515"
"2120","6729.349"
"2121","6752.147"
"2122","6769.279"
"2123","6724.444"
"2124","6647.68"
"2125","6656.896"
"2126","6801.205"
"2127","6940.801"
"2128","6930.109"
"2129","6805.871"
"2130","6683.475"
"2131","6610.322"
"2132","6558.081"
"2133","6510.208"
"2134","6494.169"
"2135","6537.856"
"2136","6612.431"
"2137","6663.226"
"2138","6662.947"
"2139","6615.967"
"2140","6531.915"
"2141","6430.392"
"2142","6334.848"
"2143","6284.182"
"2144","6322.62"
"2145","6432.9"
"2146","6527.701"
"2147","6546.333"
"2148","6513.563"
"2149","6465.704"
"2150","6414.315"
"2151","6359.853"
"2152","6304.725"
"2153","6253.51"
"2154","6213.544"
"2155","6198.92"
"2156","6219.43"
"2157","6248.301"
"2158","6245.935"
"2159","6225.501"
"2160","6251.557"
"2161","6342.32"
"2162","6405.433"
"2163","6353.202"
"2164","6215.582"
"2165","6063.781"
"2166","5950.104"
"2167","5910.672"
"2168","5954.064"
"2169","6036.763"
"2170","6110.63"
"2171","6134.639"
"2172","6076.375"
"2173","5989.688"
"2174","5987.052"
"2175","6077.546"
"2176","6107.188"
"2177","5976.35"
"2178","5838.271"
"2179","5878.529"
"2180","6035.081"
"2181","6113.553"
"2182","6048.249"
"2183","5931.25"
"2184","5837.168"
"2185","5766.377"
"2186","5709.307"
"2187","5673.622"
"2188","5672.499"
"2189","5689.311"
"2190","5680.755"
"2191","5645.476"
"2192","5666.388"
"2193","5797.779"
"2194","5917.522"
"2195","5870.328"
"2196","5705.583"
"2197","5602.016"
"2198","5618.219"
"2199","5645.144"
"2200","5604.543"
"2201","5548.27"
"2202","5540.587"
"2203","5559.146"
"2204","5546.674"
"2205","5499.698"
"2206","5464.362"
"2207","5459.235"
"2208","5445.757"
"2209","5396.591"
"2210","5361.699"
"2211","5400.541"
"2212","5452.125"
"2213","5387.93"
"2214","5220.693"
"2215","5136.807"
"2216","5236.407"
"2217","5370.663"
"2218","5385.543"
"2219","5325.719"
"2220","5299.58"
"2221","5313.32"
"2222","5297.729"
"2223","5235.324"
"2224","5189.18"
"2225","5198.28"
"2226","5204.331"
"2227","5144.025"
"2228","5054.302"
"2229","5011.181"
"2230","5019.874"
"2231","5024.532"
"2232","5005.843"
"2233","5010.854"
"2234","5066.548"
"2235","5104.469"
"2236","5049.869"
"2237","4948.18"
"2238","4897.519"
"2239","4908.302"
"2240","4909.018"
"2241","4856.961"
"2242","4767.885"
"2243","4669.307"
"2244","4609.18"
"2245","4628.904"
"2246","4677.241"
"2247","4663.266"
"2248","4602.607"
"2249","4609.804"
"2250","4700.064"
"2251","4703.699"
"2252","4508.965"
"2253","4282.608"
"2254","4222.741"
"2255","4287.833"
"2256","4332.187"
"2257","4307.493"
"2258","4250.634"
"2259","4186.452"
"2260","4115.404"
"2261","4034.109"
"2262","3934.136"
"2263","3818.726"
"2264","3772.949"
"2265","3899.35"
"2266","4076.863"
"2267","4021.125"
"2268","3711.666"
"2269","3499.582"
"2270","3587.886"
"2271","3720.297"
"2272","3636.984"
"2273","3444.636"
"2274","3350.808"
"2275","3379.803"
"2276","3445.195"
"2277","3476.907"
"2278","3424.963"
"2279","3289.21"
"2280","3166.991"
"2281","3130.698"
"2282","3113.44"
"2283","3033.399"
"2284","2944.463"
"2285","2952.348"
"2286","3008.223"
"2287","2940.215"
"2288","2720.949"
"2289","2535.768"
"2290","2496.696"
"2291","2481.968"
"2292","2376.781"
"2293","2284.912"
"2294","2354.72"
"2295","2519.019"
"2296","2595.973"
"2297","2527.88"
"2298","2379.046"
"2299","2209.632"
"2300","2064.078"
