,"Scan 01037"
"400","8359.166"
"401","8322.04"
"402","8294.395"
"403","8276.872"
"404","8270.105"
"405","8274.425"
"406","8287.504"
"407","8305.693"
"408","8325.355"
"409","8342.747"
"410","8352.387"
"411","8347.594"
"412","8321.716"
"413","8268.871"
"414","8198.133"
"415","8132.492"
"416","8095.32"
"417","8109.177"
"418","8174.181"
"419","8262.854"
"420","8346.203"
"421","8395.68"
"422","8399.264"
"423","8371.415"
"424","8328.892"
"425","8288.299"
"426","8259.94"
"427","8241.098"
"428","8227.433"
"429","8214.646"
"430","8199.929"
"431","8184.479"
"432","8170.143"
"433","8158.757"
"434","8152.172"
"435","8152.333"
"436","8161.187"
"437","8180.672"
"438","8210.781"
"439","8243.03"
"440","8266.668"
"441","8271.023"
"442","8248.694"
"443","8209.897"
"444","8170.764"
"445","8147.322"
"446","8152.45"
"447","8178.355"
"448","8208.762"
"449","8227.473"
"450","8220.223"
"451","8187.927"
"452","8138.949"
"453","8081.645"
"454","8024.102"
"455","7972.188"
"456","7930.481"
"457","7903.515"
"458","7895.135"
"459","7901.257"
"460","7912.563"
"461","7919.709"
"462","7914.051"
"463","7896.316"
"464","7874.233"
"465","7855.645"
"466","7847.955"
"467","7851.79"
"468","7862.141"
"469","7873.852"
"470","7881.943"
"471","7884.245"
"472","7881.162"
"473","7873.188"
"474","7860.835"
"475","7845.026"
"476","7827.091"
"477","7808.369"
"478","7790.194"
"479","7773.945"
"480","7761.06"
"481","7752.963"
"482","7750.953"
"483","7752.807"
"484","7752.373"
"485","7743.323"
"486","7719.615"
"487","7682.652"
"488","7642.492"
"489","7609.629"
"490","7594.197"
"491","7596.751"
"492","7606.435"
"493","7611.78"
"494","7601.643"
"495","7573.433"
"496","7534.869"
"497","7494.248"
"498","7459.652"
"499","7433.804"
"500","7412.962"
"501","7393.023"
"502","7369.94"
"503","7340.751"
"504","7303.778"
"505","7257.426"
"506","7200.265"
"507","7135.587"
"508","7072.137"
"509","7018.915"
"510","6984.555"
"511","6968.967"
"512","6962.402"
"513","6954.659"
"514","6935.932"
"515","6904.823"
"516","6868.733"
"517","6835.444"
"518","6812.414"
"519","6800.859"
"520","6795.903"
"521","6792.435"
"522","6785.524"
"523","6773.229"
"524","6756.292"
"525","6735.547"
"526","6711.929"
"527","6688.1"
"528","6668.127"
"529","6656.104"
"530","6655.595"
"531","6663.056"
"532","6669.732"
"533","6666.79"
"534","6646.393"
"535","6611.98"
"536","6574.311"
"537","6544.209"
"538","6531.241"
"539","6533.02"
"540","6540.415"
"541","6544.262"
"542","6536.696"
"543","6520.096"
"544","6501.804"
"545","6489.155"
"546","6487.988"
"547","6494.319"
"548","6500.177"
"549","6497.613"
"550","6480.649"
"551","6453.842"
"552","6425.283"
"553","6403.029"
"554","6393.27"
"555","6394.15"
"556","6401.624"
"557","6411.664"
"558","6420.711"
"559","6426.784"
"560","6428.252"
"561","6423.496"
"562","6412.033"
"563","6396.517"
"564","6380.115"
"565","6365.979"
"566","6356.369"
"567","6351.646"
"568","6351.923"
"569","6357.292"
"570","6366.362"
"571","6375.245"
"572","6379.832"
"573","6376.143"
"574","6364.525"
"575","6350.95"
"576","6341.736"
"577","6342.871"
"578","6353.254"
"579","6364.713"
"580","6368.794"
"581","6357.613"
"582","6331.006"
"583","6294.671"
"584","6254.429"
"585","6216.25"
"586","6187.821"
"587","6177.782"
"588","6194.751"
"589","6244.046"
"590","6308.991"
"591","6363.901"
"592","6383.175"
"593","6349.184"
"594","6281.122"
"595","6208.815"
"596","6161.967"
"597","6159.53"
"598","6186.199"
"599","6219.862"
"600","6238.55"
"601","6230.266"
"602","6204.99"
"603","6175.619"
"604","6154.885"
"605","6148.933"
"606","6153.815"
"607","6164.743"
"608","6176.998"
"609","6187.224"
"610","6193.525"
"611","6194.082"
"612","6187.258"
"613","6173.937"
"614","6156.844"
"615","6138.738"
"616","6122.403"
"617","6110.921"
"618","6107.514"
"619","6115.392"
"620","6135.911"
"621","6160.954"
"622","6179.402"
"623","6180.178"
"624","6157.147"
"625","6119.908"
"626","6081.17"
"627","6053.549"
"628","6042.965"
"629","6041.894"
"630","6041.214"
"631","6032.041"
"632","6013.308"
"633","5994.016"
"634","5983.807"
"635","5991.682"
"636","6016.469"
"637","6048.608"
"638","6078.32"
"639","6096.939"
"640","6105.298"
"641","6109.137"
"642","6114.217"
"643","6124.346"
"644","6133.694"
"645","6133.463"
"646","6114.888"
"647","6074.857"
"648","6026.426"
"649","5985.491"
"650","5967.761"
"651","5978.239"
"652","6003.879"
"653","6029.935"
"654","6042.22"
"655","6038.86"
"656","6030.456"
"657","6028.131"
"658","6041.598"
"659","6065.849"
"660","6087.029"
"661","6091.201"
"662","6068.246"
"663","6028.939"
"664","5991.175"
"665","5972.798"
"666","5984.601"
"667","6016.557"
"668","6054.823"
"669","6085.685"
"670","6101.654"
"671","6105.444"
"672","6100.71"
"673","6091.004"
"674","6078.007"
"675","6061.65"
"676","6041.807"
"677","6018.709"
"678","5995.852"
"679","5978.411"
"680","5971.564"
"681","5979.146"
"682","5999.175"
"683","6028.084"
"684","6062.317"
"685","6097.33"
"686","6126.383"
"687","6142.45"
"688","6138.764"
"689","6116.434"
"690","6085.983"
"691","6058.459"
"692","6043.936"
"693","6041.47"
"694","6043.056"
"695","6040.596"
"696","6028.054"
"697","6010.166"
"698","5995.181"
"699","5991.318"
"700","6002.629"
"701","6022.628"
"702","6043.2"
"703","6056.375"
"704","6058.994"
"705","6054.053"
"706","6044.948"
"707","6034.873"
"708","6024.724"
"709","6013.89"
"710","6001.727"
"711","5988.351"
"712","5977.746"
"713","5975.128"
"714","5985.688"
"715","6010.6"
"716","6041.549"
"717","6068.871"
"718","6083.143"
"719","6081.729"
"720","6069.81"
"721","6052.981"
"722","6036.522"
"723","6022.716"
"724","6012.155"
"725","6005.41"
"726","6002.871"
"727","6004.186"
"728","6008.814"
"729","6016.213"
"730","6025.383"
"731","6034.488"
"732","6041.609"
"733","6045.002"
"734","6046.079"
"735","6048.988"
"736","6057.968"
"737","6076.095"
"738","6098.95"
"739","6119.126"
"740","6129.227"
"741","6125.063"
"742","6111.122"
"743","6093.332"
"744","6077.575"
"745","6068.311"
"746","6068.285"
"747","6080.138"
"748","6105.66"
"749","6138.658"
"750","6168.562"
"751","6184.773"
"752","6181.002"
"753","6166.686"
"754","6154.847"
"755","6158.362"
"756","6182.676"
"757","6221.833"
"758","6268.921"
"759","6316.942"
"760","6357.749"
"761","6382.411"
"762","6381.994"
"763","6351.488"
"764","6303.336"
"765","6254.843"
"766","6223.182"
"767","6216.385"
"768","6226.255"
"769","6242.935"
"770","6257.161"
"771","6268.206"
"772","6281.806"
"773","6303.854"
"774","6337.902"
"775","6376.069"
"776","6406.988"
"777","6419.372"
"778","6409.521"
"779","6387.916"
"780","6366.581"
"781","6357.129"
"782","6365.188"
"783","6391.755"
"784","6437.712"
"785","6500.71"
"786","6562.8"
"787","6601.341"
"788","6593.922"
"789","6537.204"
"790","6462.025"
"791","6402.749"
"792","6391.269"
"793","6426.444"
"794","6483.381"
"795","6536.685"
"796","6566.106"
"797","6573.443"
"798","6566.423"
"799","6552.74"
"800","6538.478"
"801","6527.211"
"802","6522.29"
"803","6526.502"
"804","6536.536"
"805","6545.369"
"806","6545.927"
"807","6534.54"
"808","6519.283"
"809","6510.766"
"810","6519.343"
"811","6546.442"
"812","6582.3"
"813","6616.459"
"814","6639.648"
"815","6651.853"
"816","6657.418"
"817","6660.703"
"818","6664.322"
"819","6666.469"
"820","6664.646"
"821","6656.624"
"822","6645.447"
"823","6639.024"
"824","6645.445"
"825","6670.461"
"826","6707.657"
"827","6746.65"
"828","6777.099"
"829","6791.654"
"830","6788.115"
"831","6764.788"
"832","6720.95"
"833","6666.542"
"834","6618.121"
"835","6592.325"
"836","6599.68"
"837","6630.99"
"838","6673.103"
"839","6713.113"
"840","6744.572"
"841","6768.087"
"842","6784.622"
"843","6795.17"
"844","6800.934"
"845","6803.192"
"846","6803.229"
"847","6802.872"
"848","6804.958"
"849","6812.438"
"850","6827.747"
"851","6847.484"
"852","6864.527"
"853","6871.696"
"854","6865.303"
"855","6852.696"
"856","6843.385"
"857","6846.555"
"858","6863.526"
"859","6887.578"
"860","6911.626"
"861","6929.489"
"862","6939.729"
"863","6942.48"
"864","6937.908"
"865","6928.45"
"866","6920.132"
"867","6919.293"
"868","6931.168"
"869","6951.283"
"870","6970.144"
"871","6978.236"
"872","6971.931"
"873","6961.737"
"874","6960.242"
"875","6978.998"
"876","7014.371"
"877","7051.131"
"878","7073.755"
"879","7072.09"
"880","7055.269"
"881","7036.752"
"882","7029.707"
"883","7039.517"
"884","7063.202"
"885","7097.359"
"886","7138.352"
"887","7181.286"
"888","7220.868"
"889","7251.872"
"890","7273.128"
"891","7289.418"
"892","7305.987"
"893","7326.778"
"894","7346.031"
"895","7353.635"
"896","7339.536"
"897","7302.695"
"898","7259.614"
"899","7228.813"
"900","7226.771"
"901","7248.981"
"902","7278.62"
"903","7298.725"
"904","7299.387"
"905","7288.424"
"906","7276.403"
"907","7273.346"
"908","7281.724"
"909","7298.451"
"910","7320.307"
"911","7343.609"
"912","7363.207"
"913","7373.659"
"914","7369.961"
"915","7355.319"
"916","7340.233"
"917","7335.463"
"918","7347.362"
"919","7365.375"
"920","7374.888"
"921","7361.927"
"922","7328.391"
"923","7292.641"
"924","7273.807"
"925","7286.385"
"926","7324.011"
"927","7374.459"
"928","7425.574"
"929","7467.402"
"930","7492.582"
"931","7493.896"
"932","7467.504"
"933","7426.705"
"934","7390.227"
"935","7376.45"
"936","7390.137"
"937","7418.617"
"938","7448.066"
"939","7466.981"
"940","7476.651"
"941","7482.768"
"942","7490.891"
"943","7500.907"
"944","7505"
"945","7494.798"
"946","7464.423"
"947","7422.383"
"948","7382.372"
"949","7357.899"
"950","7353.488"
"951","7361.181"
"952","7372.095"
"953","7378.803"
"954","7382.446"
"955","7387.267"
"956","7397.452"
"957","7414.24"
"958","7434.811"
"959","7456.042"
"960","7474.397"
"961","7483.97"
"962","7478.016"
"963","7450.054"
"964","7404.484"
"965","7360.166"
"966","7336.961"
"967","7349.223"
"968","7381.803"
"969","7409.717"
"970","7408.536"
"971","7373.845"
"972","7326.021"
"973","7286.985"
"974","7273.982"
"975","7281.52"
"976","7297.219"
"977","7308.896"
"978","7310.099"
"979","7300.801"
"980","7281.317"
"981","7254.309"
"982","7232.403"
"983","7230.883"
"984","7264.044"
"985","7323.987"
"986","7380.967"
"987","7404.301"
"988","7374.411"
"989","7311.71"
"990","7245.618"
"991","7204.479"
"992","7198.042"
"993","7220.455"
"994","7265.378"
"995","7325.253"
"996","7388.941"
"997","7444.632"
"998","7481.218"
"999","7496.583"
"1000","7494.855"
"1001","7480.293"
"1002","7458.536"
"1003","7438.489"
"1004","7429.524"
"1005","7441.025"
"1006","7479.127"
"1007","7528.124"
"1008","7563.313"
"1009","7560.351"
"1010","7515.154"
"1011","7452.69"
"1012","7400.188"
"1013","7380.059"
"1014","7388.456"
"1015","7412.65"
"1016","7440.037"
"1017","7462.337"
"1018","7476.352"
"1019","7479.174"
"1020","7470.662"
"1021","7462.387"
"1022","7469.009"
"1023","7504.145"
"1024","7560.177"
"1025","7609.813"
"1026","7625.007"
"1027","7591.074"
"1028","7535.423"
"1029","7493.741"
"1030","7498.74"
"1031","7543.976"
"1032","7595.521"
"1033","7618.938"
"1034","7597.445"
"1035","7554.365"
"1036","7518.588"
"1037","7515.878"
"1038","7545.299"
"1039","7592.367"
"1040","7642.528"
"1041","7683.783"
"1042","7708.221"
"1043","7708.292"
"1044","7680.036"
"1045","7639.447"
"1046","7609.412"
"1047","7612.056"
"1048","7648.003"
"1049","7694.321"
"1050","7726.852"
"1051","7728.662"
"1052","7708.32"
"1053","7680.025"
"1054","7657.295"
"1055","7644.163"
"1056","7637.771"
"1057","7635.125"
"1058","7635.18"
"1059","7641.187"
"1060","7656.955"
"1061","7685.016"
"1062","7718.276"
"1063","7745.248"
"1064","7754.646"
"1065","7744.682"
"1066","7726.337"
"1067","7711.509"
"1068","7709.436"
"1069","7718.165"
"1070","7732.78"
"1071","7748.516"
"1072","7762.983"
"1073","7775.714"
"1074","7786.299"
"1075","7793.814"
"1076","7796.152"
"1077","7791.031"
"1078","7776.997"
"1079","7758.883"
"1080","7744.421"
"1081","7741.2"
"1082","7750.603"
"1083","7765.951"
"1084","7780.028"
"1085","7787.527"
"1086","7790.478"
"1087","7792.674"
"1088","7797.542"
"1089","7803.772"
"1090","7806.685"
"1091","7801.559"
"1092","7787.73"
"1093","7772.347"
"1094","7763.449"
"1095","7767.046"
"1096","7777.315"
"1097","7784.179"
"1098","7778.016"
"1099","7759.556"
"1100","7739.748"
"1101","7729.973"
"1102","7737.461"
"1103","7758.404"
"1104","7787.166"
"1105","7817.783"
"1106","7841.708"
"1107","7849.133"
"1108","7830.595"
"1109","7789.558"
"1110","7745.744"
"1111","7719.935"
"1112","7724.928"
"1113","7746.451"
"1114","7764.478"
"1115","7760.895"
"1116","7737.359"
"1117","7707.151"
"1118","7683.637"
"1119","7676.583"
"1120","7690.429"
"1121","7729.184"
"1122","7791.188"
"1123","7852.438"
"1124","7883.404"
"1125","7857.893"
"1126","7789.402"
"1127","7717.345"
"1128","7681.234"
"1129","7695.448"
"1130","7734.31"
"1131","7768.54"
"1132","7775.554"
"1133","7760.616"
"1134","7736.241"
"1135","7714.308"
"1136","7698.967"
"1137","7689.219"
"1138","7684.003"
"1139","7683.655"
"1140","7690.735"
"1141","7707.994"
"1142","7735.843"
"1143","7765.371"
"1144","7785.34"
"1145","7785.518"
"1146","7766.894"
"1147","7737.429"
"1148","7705.182"
"1149","7677.364"
"1150","7659.971"
"1151","7658.906"
"1152","7676.566"
"1153","7703.185"
"1154","7726.363"
"1155","7735.15"
"1156","7731.83"
"1157","7725.72"
"1158","7726.03"
"1159","7735.759"
"1160","7750.468"
"1161","7765.28"
"1162","7776.155"
"1163","7781.372"
"1164","7779.599"
"1165","7770.377"
"1166","7759.144"
"1167","7753.795"
"1168","7761.676"
"1169","7778.917"
"1170","7791.292"
"1171","7784.269"
"1172","7756.248"
"1173","7731.624"
"1174","7737.922"
"1175","7793.841"
"1176","7876.758"
"1177","7951.987"
"1178","7987.434"
"1179","7982.037"
"1180","7954.997"
"1181","7925.658"
"1182","7903.823"
"1183","7886.213"
"1184","7868.608"
"1185","7849.854"
"1186","7837.88"
"1187","7842.292"
"1188","7870.095"
"1189","7910.511"
"1190","7945.339"
"1191","7957.227"
"1192","7944.698"
"1193","7920.084"
"1194","7896.158"
"1195","7882.848"
"1196","7885.071"
"1197","7907.236"
"1198","7949.49"
"1199","7995.938"
"1200","8026.9"
"1201","8026.192"
"1202","8007.194"
"1203","7998.135"
"1204","8026.037"
"1205","8087.238"
"1206","8147.493"
"1207","8171.38"
"1208","8145.02"
"1209","8096.758"
"1210","8059.852"
"1211","8058.845"
"1212","8082.909"
"1213","8112.253"
"1214","8128.651"
"1215","8127.615"
"1216","8111.761"
"1217","8083.912"
"1218","8050.148"
"1219","8019.776"
"1220","8002.197"
"1221","8001.574"
"1222","8012.295"
"1223","8027.667"
"1224","8042.02"
"1225","8053.47"
"1226","8060.994"
"1227","8064.249"
"1228","8067.98"
"1229","8079.255"
"1230","8104.441"
"1231","8137.4"
"1232","8161.4"
"1233","8159.647"
"1234","8132.317"
"1235","8105.667"
"1236","8108.174"
"1237","8154.75"
"1238","8221.506"
"1239","8277.642"
"1240","8298.271"
"1241","8291.232"
"1242","8275.594"
"1243","8269.185"
"1244","8275.77"
"1245","8290.277"
"1246","8307.45"
"1247","8320.762"
"1248","8322.291"
"1249","8304.12"
"1250","8267.607"
"1251","8231.894"
"1252","8218.146"
"1253","8240.277"
"1254","8287.055"
"1255","8341.806"
"1256","8388.96"
"1257","8420.047"
"1258","8429.391"
"1259","8412.538"
"1260","8380.235"
"1261","8353.595"
"1262","8353.234"
"1263","8379.2"
"1264","8408.121"
"1265","8415.478"
"1266","8392.665"
"1267","8361.326"
"1268","8346.494"
"1269","8363.5"
"1270","8396.051"
"1271","8421.409"
"1272","8421.12"
"1273","8401.108"
"1274","8375.922"
"1275","8359.102"
"1276","8353.603"
"1277","8356.156"
"1278","8363.502"
"1279","8374.276"
"1280","8388.915"
"1281","8407.885"
"1282","8429.754"
"1283","8450.24"
"1284","8464.834"
"1285","8470.828"
"1286","8469.854"
"1287","8464.181"
"1288","8457.06"
"1289","8455.602"
"1290","8467.873"
"1291","8498.948"
"1292","8534.402"
"1293","8551.993"
"1294","8532.14"
"1295","8485.274"
"1296","8440.617"
"1297","8426.466"
"1298","8444.948"
"1299","8473.308"
"1300","8488.099"
"1301","8481.034"
"1302","8465.501"
"1303","8456.522"
"1304","8461.279"
"1305","8470.037"
"1306","8470.855"
"1307","8457.719"
"1308","8444.269"
"1309","8448.213"
"1310","8481.948"
"1311","8530.607"
"1312","8570.605"
"1313","8581.268"
"1314","8565.349"
"1315","8536.833"
"1316","8509.113"
"1317","8486.849"
"1318","8468.603"
"1319","8453.111"
"1320","8445.905"
"1321","8459.282"
"1322","8505.469"
"1323","8579.67"
"1324","8653.12"
"1325","8695.35"
"1326","8689.912"
"1327","8648.304"
"1328","8585.346"
"1329","8517.159"
"1330","8463.555"
"1331","8445.003"
"1332","8474.16"
"1333","8531.757"
"1334","8590.387"
"1335","8626"
"1336","8634.32"
"1337","8618.23"
"1338","8581.645"
"1339","8537.071"
"1340","8501.339"
"1341","8489.786"
"1342","8498.617"
"1343","8511.027"
"1344","8510.753"
"1345","8497.124"
"1346","8483.584"
"1347","8483.734"
"1348","8499.494"
"1349","8518.84"
"1350","8529.057"
"1351","8525.649"
"1352","8516.956"
"1353","8512.403"
"1354","8515.731"
"1355","8519.036"
"1356","8512.992"
"1357","8493.32"
"1358","8469.276"
"1359","8452.376"
"1360","8448.752"
"1361","8445.582"
"1362","8425.866"
"1363","8380.134"
"1364","8333.561"
"1365","8321.288"
"1366","8369.44"
"1367","8450.098"
"1368","8515.327"
"1369","8523.944"
"1370","8487.745"
"1371","8443.307"
"1372","8423.792"
"1373","8426.01"
"1374","8425.605"
"1375","8400.143"
"1376","8356.563"
"1377","8322.773"
"1378","8325.583"
"1379","8363.564"
"1380","8410.877"
"1381","8441.614"
"1382","8448.548"
"1383","8443.826"
"1384","8440.174"
"1385","8438.704"
"1386","8426.206"
"1387","8388.894"
"1388","8329.524"
"1389","8275.003"
"1390","8253.919"
"1391","8275.589"
"1392","8316.28"
"1393","8349.086"
"1394","8359.58"
"1395","8358.357"
"1396","8358.967"
"1397","8369.354"
"1398","8384.395"
"1399","8397.11"
"1400","8402.558"
"1401","8401.258"
"1402","8394.645"
"1403","8385.268"
"1404","8379.1"
"1405","8382.78"
"1406","8400.145"
"1407","8425.164"
"1408","8449.649"
"1409","8466.475"
"1410","8472.803"
"1411","8466.854"
"1412","8449.337"
"1413","8432.004"
"1414","8429.694"
"1415","8453.083"
"1416","8492.304"
"1417","8531.148"
"1418","8554.521"
"1419","8553.373"
"1420","8520.71"
"1421","8454.074"
"1422","8377.945"
"1423","8326.69"
"1424","8327.794"
"1425","8364.507"
"1426","8402.639"
"1427","8412.912"
"1428","8400.172"
"1429","8383.566"
"1430","8380.412"
"1431","8394.234"
"1432","8422.464"
"1433","8461.556"
"1434","8500.769"
"1435","8526.026"
"1436","8525.36"
"1437","8503.777"
"1438","8474.396"
"1439","8450.261"
"1440","8443.311"
"1441","8464.944"
"1442","8523.597"
"1443","8602.845"
"1444","8673.866"
"1445","8710.99"
"1446","8716.066"
"1447","8704.781"
"1448","8691.346"
"1449","8676.513"
"1450","8654.273"
"1451","8619.921"
"1452","8580.001"
"1453","8546.675"
"1454","8530.095"
"1455","8523.572"
"1456","8512.201"
"1457","8484.023"
"1458","8451.097"
"1459","8436.902"
"1460","8459.672"
"1461","8497.103"
"1462","8508.234"
"1463","8458.9"
"1464","8364.885"
"1465","8263.947"
"1466","8190.488"
"1467","8155.204"
"1468","8158.919"
"1469","8198.327"
"1470","8244.096"
"1471","8256.684"
"1472","8205.946"
"1473","8117.246"
"1474","8036.173"
"1475","7999.912"
"1476","7999.993"
"1477","8012.627"
"1478","8017.563"
"1479","8012.065"
"1480","7998.747"
"1481","7980.875"
"1482","7964.572"
"1483","7956.759"
"1484","7960.975"
"1485","7967.403"
"1486","7962.919"
"1487","7938.476"
"1488","7899.299"
"1489","7853.741"
"1490","7811.246"
"1491","7784.608"
"1492","7787.243"
"1493","7820.792"
"1494","7855.259"
"1495","7855.447"
"1496","7806.114"
"1497","7738.502"
"1498","7690.362"
"1499","7682.016"
"1500","7698.74"
"1501","7721.655"
"1502","7736.439"
"1503","7736.642"
"1504","7716.788"
"1505","7681.846"
"1506","7652.175"
"1507","7648.881"
"1508","7674.868"
"1509","7710.261"
"1510","7734.215"
"1511","7738.333"
"1512","7727.354"
"1513","7706.688"
"1514","7682.296"
"1515","7660.64"
"1516","7647.981"
"1517","7647.507"
"1518","7660.145"
"1519","7685.336"
"1520","7707.248"
"1521","7700.838"
"1522","7646.583"
"1523","7571.12"
"1524","7523.647"
"1525","7543.458"
"1526","7606.068"
"1527","7662.128"
"1528","7672.248"
"1529","7646.252"
"1530","7609.026"
"1531","7580.005"
"1532","7557.928"
"1533","7536.655"
"1534","7513.917"
"1535","7498.701"
"1536","7501.983"
"1537","7525.285"
"1538","7549.029"
"1539","7550.931"
"1540","7522.566"
"1541","7479.313"
"1542","7438.827"
"1543","7415.25"
"1544","7418.079"
"1545","7455.564"
"1546","7513.899"
"1547","7556.873"
"1548","7550.02"
"1549","7500.491"
"1550","7447.628"
"1551","7428.29"
"1552","7445.331"
"1553","7481.843"
"1554","7521.6"
"1555","7554.996"
"1556","7575.263"
"1557","7577.894"
"1558","7569.581"
"1559","7560.486"
"1560","7555.873"
"1561","7543.815"
"1562","7508.66"
"1563","7448.628"
"1564","7396.28"
"1565","7389.09"
"1566","7435.374"
"1567","7492"
"1568","7511.378"
"1569","7476.388"
"1570","7408.457"
"1571","7331.521"
"1572","7269.599"
"1573","7246.799"
"1574","7283.552"
"1575","7357.598"
"1576","7419.252"
"1577","7425.314"
"1578","7383.787"
"1579","7325.483"
"1580","7277.819"
"1581","7251.196"
"1582","7250.926"
"1583","7278.122"
"1584","7320.623"
"1585","7363.65"
"1586","7395.905"
"1587","7413.421"
"1588","7413.265"
"1589","7397.519"
"1590","7375.387"
"1591","7356.382"
"1592","7344.59"
"1593","7338.874"
"1594","7338.066"
"1595","7343.136"
"1596","7356.429"
"1597","7379.258"
"1598","7405.58"
"1599","7426.222"
"1600","7434.929"
"1601","7438.024"
"1602","7445.198"
"1603","7461.335"
"1604","7478.442"
"1605","7486.411"
"1606","7477.109"
"1607","7445.771"
"1608","7388.703"
"1609","7322.761"
"1610","7287.32"
"1611","7319.034"
"1612","7403.086"
"1613","7488.355"
"1614","7529.602"
"1615","7530.304"
"1616","7515.49"
"1617","7505.448"
"1618","7499.778"
"1619","7492.591"
"1620","7482.296"
"1621","7478.178"
"1622","7491.013"
"1623","7519.287"
"1624","7542.576"
"1625","7540.084"
"1626","7517.665"
"1627","7506.526"
"1628","7535.147"
"1629","7593.737"
"1630","7650.195"
"1631","7677.345"
"1632","7676.902"
"1633","7660.493"
"1634","7638.952"
"1635","7620.595"
"1636","7613.185"
"1637","7617.704"
"1638","7622.951"
"1639","7617.161"
"1640","7606.972"
"1641","7618.619"
"1642","7676.055"
"1643","7766.617"
"1644","7854.586"
"1645","7908.969"
"1646","7928.364"
"1647","7921.958"
"1648","7900.992"
"1649","7883.033"
"1650","7886.676"
"1651","7913.141"
"1652","7933.599"
"1653","7917.533"
"1654","7864.587"
"1655","7804.273"
"1656","7764.928"
"1657","7750.751"
"1658","7752.385"
"1659","7759.748"
"1660","7760.066"
"1661","7739.75"
"1662","7695.621"
"1663","7650.93"
"1664","7632.591"
"1665","7644.689"
"1666","7659.781"
"1667","7649.959"
"1668","7615.248"
"1669","7577.062"
"1670","7553.57"
"1671","7537.339"
"1672","7510.372"
"1673","7462.545"
"1674","7410.101"
"1675","7374.652"
"1676","7365.727"
"1677","7372.047"
"1678","7380.268"
"1679","7377.26"
"1680","7350.095"
"1681","7289.764"
"1682","7219.256"
"1683","7177.192"
"1684","7187.815"
"1685","7219.281"
"1686","7226.365"
"1687","7187.335"
"1688","7125.358"
"1689","7068.107"
"1690","7029.984"
"1691","7012.246"
"1692","7014.15"
"1693","7022.585"
"1694","7018.122"
"1695","6986.974"
"1696","6937.739"
"1697","6884.52"
"1698","6841.06"
"1699","6820.417"
"1700","6834.568"
"1701","6874.102"
"1702","6909.333"
"1703","6913.138"
"1704","6885.149"
"1705","6837.618"
"1706","6785.383"
"1707","6751.965"
"1708","6762.435"
"1709","6815.161"
"1710","6864.687"
"1711","6864.441"
"1712","6816.792"
"1713","6763.68"
"1714","6741.509"
"1715","6744.61"
"1716","6751.102"
"1717","6746.106"
"1718","6734.084"
"1719","6722.677"
"1720","6715.485"
"1721","6710.944"
"1722","6706.924"
"1723","6698.958"
"1724","6681.132"
"1725","6650.961"
"1726","6621.131"
"1727","6608.413"
"1728","6616.596"
"1729","6624.527"
"1730","6609.766"
"1731","6579.979"
"1732","6569.836"
"1733","6606.996"
"1734","6665.732"
"1735","6698.489"
"1736","6677.774"
"1737","6631.62"
"1738","6596.936"
"1739","6588.526"
"1740","6594.114"
"1741","6600.612"
"1742","6603.267"
"1743","6601.957"
"1744","6597.401"
"1745","6593.237"
"1746","6593.776"
"1747","6601.776"
"1748","6617.552"
"1749","6640.605"
"1750","6662.669"
"1751","6669.999"
"1752","6651.343"
"1753","6607.925"
"1754","6544.784"
"1755","6480.313"
"1756","6458.406"
"1757","6521.474"
"1758","6637.014"
"1759","6710.156"
"1760","6665.89"
"1761","6552.261"
"1762","6460.118"
"1763","6441.938"
"1764","6466.163"
"1765","6491.178"
"1766","6497.342"
"1767","6485.29"
"1768","6457.282"
"1769","6420.897"
"1770","6385.781"
"1771","6363.996"
"1772","6373.212"
"1773","6430.403"
"1774","6519.483"
"1775","6592.506"
"1776","6608.368"
"1777","6578.25"
"1778","6533.8"
"1779","6497.83"
"1780","6472.257"
"1781","6456.269"
"1782","6454.04"
"1783","6474.456"
"1784","6521.637"
"1785","6569.62"
"1786","6581.206"
"1787","6540.729"
"1788","6479.857"
"1789","6434.988"
"1790","6413.202"
"1791","6395.989"
"1792","6369.461"
"1793","6349.399"
"1794","6361.4"
"1795","6410.411"
"1796","6461.5"
"1797","6477.601"
"1798","6458.066"
"1799","6429.84"
"1800","6415.945"
"1801","6418.561"
"1802","6433.963"
"1803","6452.75"
"1804","6456.452"
"1805","6428.428"
"1806","6381.313"
"1807","6345.85"
"1808","6342.408"
"1809","6354.326"
"1810","6357.471"
"1811","6349.055"
"1812","6353.019"
"1813","6390.182"
"1814","6443.448"
"1815","6477.911"
"1816","6470.834"
"1817","6430.678"
"1818","6371.161"
"1819","6313.405"
"1820","6285.396"
"1821","6306.795"
"1822","6351.495"
"1823","6378.445"
"1824","6368.257"
"1825","6339.782"
"1826","6314.5"
"1827","6298.76"
"1828","6289.171"
"1829","6283.04"
"1830","6280.642"
"1831","6282.563"
"1832","6279.547"
"1833","6250.784"
"1834","6183.223"
"1835","6120.854"
"1836","6131.07"
"1837","6231.56"
"1838","6334.984"
"1839","6347.728"
"1840","6278.696"
"1841","6212.73"
"1842","6211.419"
"1843","6239.131"
"1844","6237.928"
"1845","6195.461"
"1846","6156.924"
"1847","6163.463"
"1848","6200.773"
"1849","6230.662"
"1850","6232.585"
"1851","6223.779"
"1852","6225.019"
"1853","6238.884"
"1854","6254.825"
"1855","6264.348"
"1856","6267.515"
"1857","6266.17"
"1858","6257.737"
"1859","6234.542"
"1860","6193.706"
"1861","6163.421"
"1862","6183.313"
"1863","6257.385"
"1864","6325.271"
"1865","6326.305"
"1866","6269.137"
"1867","6203.768"
"1868","6167.333"
"1869","6158.853"
"1870","6170.691"
"1871","6195.526"
"1872","6226.313"
"1873","6255.248"
"1874","6271.237"
"1875","6262.669"
"1876","6234.194"
"1877","6211.735"
"1878","6216.512"
"1879","6227.931"
"1880","6208.374"
"1881","6151.112"
"1882","6107.489"
"1883","6128.134"
"1884","6188.639"
"1885","6220.208"
"1886","6181.172"
"1887","6103.878"
"1888","6032.546"
"1889","6004.661"
"1890","6052.265"
"1891","6183.035"
"1892","6314.077"
"1893","6344.438"
"1894","6262.974"
"1895","6156.087"
"1896","6099.836"
"1897","6090.83"
"1898","6100.337"
"1899","6104.838"
"1900","6088.246"
"1901","6040.415"
"1902","5988.671"
"1903","5975.957"
"1904","6017.746"
"1905","6079.686"
"1906","6125.569"
"1907","6151.158"
"1908","6169.362"
"1909","6186.722"
"1910","6194.953"
"1911","6184.405"
"1912","6153.948"
"1913","6108.084"
"1914","6054.846"
"1915","6011.737"
"1916","5996.52"
"1917","6004.605"
"1918","6013.707"
"1919","6010.267"
"1920","6011.689"
"1921","6040.317"
"1922","6087.101"
"1923","6114.07"
"1924","6093.015"
"1925","6038.582"
"1926","5975.897"
"1927","5927.772"
"1928","5914.59"
"1929","5949.542"
"1930","6013.85"
"1931","6079.862"
"1932","6123.781"
"1933","6126.303"
"1934","6077.042"
"1935","6008.907"
"1936","5967.342"
"1937","5962.25"
"1938","5958.955"
"1939","5928.499"
"1940","5888.163"
"1941","5870.189"
"1942","5884.62"
"1943","5912.083"
"1944","5934"
"1945","5947.938"
"1946","5957.04"
"1947","5961.703"
"1948","5958.563"
"1949","5945.554"
"1950","5929.619"
"1951","5920.885"
"1952","5926.574"
"1953","5949.915"
"1954","5987.981"
"1955","6004.432"
"1956","5952.382"
"1957","5844.568"
"1958","5773.939"
"1959","5815.364"
"1960","5911.525"
"1961","5961.416"
"1962","5931.51"
"1963","5875.377"
"1964","5843.223"
"1965","5837.283"
"1966","5844.512"
"1967","5857.543"
"1968","5875.874"
"1969","5896.084"
"1970","5899.113"
"1971","5862.435"
"1972","5796.63"
"1973","5748.779"
"1974","5753.405"
"1975","5783.849"
"1976","5798.519"
"1977","5783.08"
"1978","5750.033"
"1979","5714.4"
"1980","5696.093"
"1981","5714.407"
"1982","5756.866"
"1983","5783.734"
"1984","5772.254"
"1985","5754.773"
"1986","5770.216"
"1987","5801.273"
"1988","5789.635"
"1989","5710.919"
"1990","5629.394"
"1991","5615.233"
"1992","5651.533"
"1993","5668.931"
"1994","5635.852"
"1995","5600.107"
"1996","5610.694"
"1997","5645.624"
"1998","5648.818"
"1999","5603.37"
"2000","5556.928"
"2001","5551.909"
"2002","5561.045"
"2003","5532.023"
"2004","5468.993"
"2005","5448.446"
"2006","5524.502"
"2007","5626.562"
"2008","5652.338"
"2009","5592.644"
"2010","5529.696"
"2011","5522.483"
"2012","5539.171"
"2013","5532.581"
"2014","5506.386"
"2015","5501.604"
"2016","5535.857"
"2017","5568.713"
"2018","5556.825"
"2019","5508.896"
"2020","5461.297"
"2021","5437.243"
"2022","5437.047"
"2023","5457.843"
"2024","5491.025"
"2025","5525.646"
"2026","5545.665"
"2027","5528.965"
"2028","5463.247"
"2029","5377.056"
"2030","5308.044"
"2031","5273.778"
"2032","5275.172"
"2033","5307.596"
"2034","5353.327"
"2035","5393.566"
"2036","5420.084"
"2037","5430.579"
"2038","5427.082"
"2039","5418.887"
"2040","5413.749"
"2041","5406.335"
"2042","5387.033"
"2043","5358.131"
"2044","5335.1"
"2045","5329.25"
"2046","5334.88"
"2047","5342.543"
"2048","5342.738"
"2049","5325.978"
"2050","5293.524"
"2051","5269.31"
"2052","5274.386"
"2053","5288.247"
"2054","5273.127"
"2055","5223.582"
"2056","5175.863"
"2057","5159.49"
"2058","5165.492"
"2059","5175.923"
"2060","5183.764"
"2061","5190.499"
"2062","5196.378"
"2063","5198.392"
"2064","5192.753"
"2065","5173.444"
"2066","5134.012"
"2067","5091.064"
"2068","5091.235"
"2069","5159.843"
"2070","5229.781"
"2071","5217.723"
"2072","5137.751"
"2073","5076.438"
"2074","5085.221"
"2075","5137.704"
"2076","5196.986"
"2077","5222.421"
"2078","5173.605"
"2079","5067.23"
"2080","4985.649"
"2081","4987.348"
"2082","5038.888"
"2083","5089.768"
"2084","5112.873"
"2085","5095.868"
"2086","5047.801"
"2087","5013.59"
"2088","5029.617"
"2089","5070.778"
"2090","5094.069"
"2091","5086.245"
"2092","5060.486"
"2093","5027.359"
"2094","4988.846"
"2095","4948.957"
"2096","4935.854"
"2097","4986.649"
"2098","5073.925"
"2099","5092.671"
"2100","4983.613"
"2101","4855.455"
"2102","4837.131"
"2103","4900.141"
"2104","4923.172"
"2105","4856.532"
"2106","4764.095"
"2107","4709.187"
"2108","4708.89"
"2109","4765.319"
"2110","4846.108"
"2111","4893.233"
"2112","4876.615"
"2113","4821.478"
"2114","4758.081"
"2115","4709.206"
"2116","4694.269"
"2117","4715.394"
"2118","4759.224"
"2119","4813.115"
"2120","4867.389"
"2121","4910.456"
"2122","4916.038"
"2123","4854.11"
"2124","4746.565"
"2125","4668.157"
"2126","4665.775"
"2127","4707.555"
"2128","4751.495"
"2129","4774.499"
"2130","4762.563"
"2131","4722.903"
"2132","4686.19"
"2133","4673.594"
"2134","4676.134"
"2135","4678.901"
"2136","4661.92"
"2137","4604.109"
"2138","4524.279"
"2139","4487.068"
"2140","4527.663"
"2141","4589.443"
"2142","4606.975"
"2143","4575.523"
"2144","4519.184"
"2145","4465.882"
"2146","4447.663"
"2147","4480.605"
"2148","4535.474"
"2149","4578.552"
"2150","4602.125"
"2151","4610.113"
"2152","4603.242"
"2153","4578.751"
"2154","4537.963"
"2155","4493.183"
"2156","4456.8"
"2157","4429.645"
"2158","4408.201"
"2159","4398.544"
"2160","4416.069"
"2161","4462.37"
"2162","4506.701"
"2163","4518.053"
"2164","4490.579"
"2165","4429.162"
"2166","4368.127"
"2167","4366.266"
"2168","4431.308"
"2169","4471.196"
"2170","4413.333"
"2171","4331.891"
"2172","4334.577"
"2173","4399.098"
"2174","4413.604"
"2175","4343.622"
"2176","4278.226"
"2177","4287.063"
"2178","4328.222"
"2179","4339.293"
"2180","4307.713"
"2181","4248.365"
"2182","4179.644"
"2183","4123.844"
"2184","4100.637"
"2185","4121.666"
"2186","4188.676"
"2187","4246.494"
"2188","4221.179"
"2189","4129.144"
"2190","4068.251"
"2191","4083.667"
"2192","4111.026"
"2193","4092.154"
"2194","4056.265"
"2195","4054.384"
"2196","4099.916"
"2197","4181.439"
"2198","4261.194"
"2199","4266.017"
"2200","4161.869"
"2201","4040.754"
"2202","4003.594"
"2203","4043.826"
"2204","4108.71"
"2205","4154.228"
"2206","4144.821"
"2207","4073.399"
"2208","3987.512"
"2209","3934.708"
"2210","3934.591"
"2211","3994.705"
"2212","4075.065"
"2213","4108.668"
"2214","4073.675"
"2215","4003.957"
"2216","3938.235"
"2217","3918.623"
"2218","3972.061"
"2219","4034.622"
"2220","4017.204"
"2221","3936.348"
"2222","3886.31"
"2223","3894.579"
"2224","3885.331"
"2225","3812.251"
"2226","3749.307"
"2227","3775.204"
"2228","3834.411"
"2229","3819.337"
"2230","3722.631"
"2231","3623.731"
"2232","3577.593"
"2233","3591.913"
"2234","3660.232"
"2235","3742.068"
"2236","3791.434"
"2237","3780.38"
"2238","3692.343"
"2239","3570.367"
"2240","3512.434"
"2241","3545.64"
"2242","3563.866"
"2243","3492.132"
"2244","3425.703"
"2245","3477.795"
"2246","3583.175"
"2247","3596.648"
"2248","3504.651"
"2249","3416.85"
"2250","3397.974"
"2251","3423.435"
"2252","3459.484"
"2253","3473.167"
"2254","3437.498"
"2255","3370.248"
"2256","3308.335"
"2257","3264.178"
"2258","3228.792"
"2259","3195.398"
"2260","3162.01"
"2261","3129.324"
"2262","3105.167"
"2263","3097.378"
"2264","3104.547"
"2265","3119.677"
"2266","3108.689"
"2267","3018.497"
"2268","2863.251"
"2269","2750.95"
"2270","2748.716"
"2271","2798.406"
"2272","2828.305"
"2273","2801.908"
"2274","2700.994"
"2275","2583.635"
"2276","2551.112"
"2277","2614.758"
"2278","2686.393"
"2279","2700.005"
"2280","2644.417"
"2281","2530.118"
"2282","2424.936"
"2283","2394.984"
"2284","2390.825"
"2285","2318.128"
"2286","2202.006"
"2287","2162.904"
"2288","2221.155"
"2289","2249.287"
"2290","2169.22"
"2291","2061.271"
"2292","2010.023"
"2293","1995.627"
"2294","1967.902"
"2295","1892.284"
"2296","1746.892"
"2297","1598.193"
"2298","1596.658"
"2299","1747.87"
"2300","1806.977"
