,"Scan 01019"
"400","4060.954"
"401","3966.081"
"402","3795.075"
"403","3552.366"
"404","3242.37"
"405","2871.821"
"406","2467.64"
"407","2066.866"
"408","1706.346"
"409","1421.595"
"410","1234.122"
"411","1155.657"
"412","1197.648"
"413","1370.358"
"414","1661.312"
"415","2036.867"
"416","2462.802"
"417","2905.29"
"418","3335.771"
"419","3732.109"
"420","4072.716"
"421","4336.422"
"422","4519.991"
"423","4648.974"
"424","4751.359"
"425","4854.856"
"426","4974.491"
"427","5098.985"
"428","5213.84"
"429","5304.667"
"430","5361.988"
"431","5389.413"
"432","5392.702"
"433","5377.575"
"434","5353.732"
"435","5344.742"
"436","5377.019"
"437","5476.796"
"438","5658.384"
"439","5884.457"
"440","6103.809"
"441","6265.592"
"442","6329.407"
"443","6310.513"
"444","6242.951"
"445","6160.542"
"446","6093.473"
"447","6048.656"
"448","6023.389"
"449","6014.959"
"450","6020.697"
"451","6038.157"
"452","6065.012"
"453","6098.95"
"454","6137.766"
"455","6180.171"
"456","6225.408"
"457","6272.729"
"458","6321.629"
"459","6374.497"
"460","6435.617"
"461","6509.283"
"462","6598.817"
"463","6693.838"
"464","6773.754"
"465","6817.855"
"466","6807.075"
"467","6748.214"
"468","6669.597"
"469","6600.031"
"470","6566.794"
"471","6570.127"
"472","6585.549"
"473","6587.807"
"474","6552.993"
"475","6484.378"
"476","6412.175"
"477","6367.573"
"478","6380.724"
"479","6459.778"
"480","6589.588"
"481","6753.969"
"482","6936.717"
"483","7118.305"
"484","7275.474"
"485","7384.906"
"486","7424.045"
"487","7389.656"
"488","7300.94"
"489","7178.255"
"490","7041.597"
"491","6903.161"
"492","6765.865"
"493","6632.063"
"494","6504.042"
"495","6382.212"
"496","6264.733"
"497","6149.633"
"498","6035.108"
"499","5924.485"
"500","5827.261"
"501","5753.255"
"502","5712.089"
"503","5708.897"
"504","5743.505"
"505","5815.425"
"506","5923.691"
"507","6052.609"
"508","6169.489"
"509","6240.869"
"510","6234.542"
"511","6148.215"
"512","6012.668"
"513","5860.232"
"514","5722.27"
"515","5610.03"
"516","5513.733"
"517","5422.649"
"518","5326.359"
"519","5220.003"
"520","5104.158"
"521","4979.623"
"522","4847.38"
"523","4712.059"
"524","4581.564"
"525","4463.878"
"526","4366.998"
"527","4299.84"
"528","4272.066"
"529","4293.309"
"530","4371.757"
"531","4495.917"
"532","4639.861"
"533","4777.452"
"534","4884.266"
"535","4954.513"
"536","4994.521"
"537","5010.79"
"538","5008.758"
"539","4983.685"
"540","4925.089"
"541","4822.476"
"542","4667.515"
"543","4469.156"
"544","4244.702"
"545","4011.422"
"546","3786.359"
"547","3585.538"
"548","3424.522"
"549","3318.794"
"550","3278.292"
"551","3283.087"
"552","3303.251"
"553","3308.994"
"554","3279.519"
"555","3232.972"
"556","3198.075"
"557","3203.407"
"558","3266.177"
"559","3364.254"
"560","3467.035"
"561","3544.086"
"562","3577.523"
"563","3583.715"
"564","3584.786"
"565","3602.695"
"566","3647.99"
"567","3706.779"
"568","3762.065"
"569","3797.104"
"570","3808.796"
"571","3816.868"
"572","3843.15"
"573","3909.087"
"574","4024.941"
"575","4186.467"
"576","4388.467"
"577","4625.674"
"578","4890.741"
"579","5174.238"
"580","5466.689"
"581","5758.027"
"582","6028.957"
"583","6253.21"
"584","6404.45"
"585","6458.945"
"586","6417.521"
"587","6294.879"
"588","6105.819"
"589","5866.228"
"590","5599.691"
"591","5332.904"
"592","5092.459"
"593","4897.826"
"594","4735.665"
"595","4583.143"
"596","4417.529"
"597","4226.12"
"598","4028.254"
"599","3849.611"
"600","3715.7"
"601","3638.795"
"602","3601.96"
"603","3584.407"
"604","3565.538"
"605","3531.113"
"606","3476.612"
"607","3398.358"
"608","3292.985"
"609","3164.835"
"610","3026.474"
"611","2890.823"
"612","2770.408"
"613","2672.871"
"614","2602.269"
"615","2562.562"
"616","2557.002"
"617","2583.082"
"618","2635.463"
"619","2708.81"
"620","2797.172"
"621","2891.362"
"622","2981.185"
"623","3056.484"
"624","3109.831"
"625","3142.449"
"626","3157.285"
"627","3157.237"
"628","3139.901"
"629","3092.197"
"630","2999.799"
"631","2848.987"
"632","2647.338"
"633","2429.879"
"634","2233.338"
"635","2092.642"
"636","2014.57"
"637","1982.688"
"638","1979.921"
"639","1990.734"
"640","2012.645"
"641","2049.919"
"642","2106.862"
"643","2187.782"
"644","2297.056"
"645","2439.067"
"646","2618.182"
"647","2831.172"
"648","3053.068"
"649","3255.096"
"650","3408.806"
"651","3503.701"
"652","3559.554"
"653","3599"
"654","3643.551"
"655","3689.714"
"656","3708.664"
"657","3670.527"
"658","3549.995"
"659","3369.495"
"660","3180.155"
"661","3033.351"
"662","2969.765"
"663","2971.821"
"664","3002.055"
"665","3023.107"
"666","3011.605"
"667","2985.478"
"668","2970.223"
"669","2991.008"
"670","3054.602"
"671","3137.598"
"672","3213.845"
"673","3258.129"
"674","3262.959"
"675","3237.341"
"676","3190.89"
"677","3131.423"
"678","3051.15"
"679","2934.187"
"680","2764.621"
"681","2533.763"
"682","2264.377"
"683","1987.758"
"684","1735.105"
"685","1533.108"
"686","1398.471"
"687","1346.51"
"688","1391.789"
"689","1525.537"
"690","1711.116"
"691","1910.338"
"692","2087.427"
"693","2233.522"
"694","2357.028"
"695","2466.61"
"696","2567.777"
"697","2649.531"
"698","2695.497"
"699","2689.363"
"700","2626.73"
"701","2533.32"
"702","2439.496"
"703","2375.129"
"704","2354.029"
"705","2369.443"
"706","2413.29"
"707","2477.296"
"708","2550.694"
"709","2621.088"
"710","2676.077"
"711","2706.55"
"712","2720.191"
"713","2730.041"
"714","2749.094"
"715","2784.143"
"716","2827.366"
"717","2868.843"
"718","2898.728"
"719","2908.847"
"720","2892.945"
"721","2844.883"
"722","2760.042"
"723","2648.537"
"724","2528.77"
"725","2419.204"
"726","2336.335"
"727","2288.71"
"728","2282.825"
"729","2325.065"
"730","2411.781"
"731","2520.907"
"732","2628.44"
"733","2710.993"
"734","2755.58"
"735","2758.255"
"736","2715.379"
"737","2627.307"
"738","2520.309"
"739","2430.979"
"740","2395.843"
"741","2432.874"
"742","2509.881"
"743","2586.313"
"744","2622.412"
"745","2602.703"
"746","2541.057"
"747","2453.079"
"748","2353.999"
"749","2255.723"
"750","2168.321"
"751","2101.828"
"752","2062.544"
"753","2043.119"
"754","2033.092"
"755","2022.099"
"756","2004.575"
"757","1982.307"
"758","1957.699"
"759","1933.076"
"760","1909.73"
"761","1888.262"
"762","1869.254"
"763","1853.961"
"764","1846.629"
"765","1852.331"
"766","1876.063"
"767","1916.075"
"768","1958.647"
"769","1988.841"
"770","1992.945"
"771","1974.92"
"772","1952.12"
"773","1942.211"
"774","1957.349"
"775","1982.792"
"776","1995.587"
"777","1972.957"
"778","1907.856"
"779","1822.661"
"780","1742.957"
"781","1692.898"
"782","1675.575"
"783","1677.798"
"784","1685.971"
"785","1688.162"
"786","1680.449"
"787","1661.325"
"788","1629.354"
"789","1589.103"
"790","1555.902"
"791","1546.188"
"792","1574.751"
"793","1634.261"
"794","1701.484"
"795","1752.859"
"796","1768.865"
"797","1747.313"
"798","1690.668"
"799","1601.556"
"800","1492.536"
"801","1391.723"
"802","1328.565"
"803","1329.298"
"804","1385.693"
"805","1468.487"
"806","1548.145"
"807","1602.474"
"808","1634.642"
"809","1653.292"
"810","1666.914"
"811","1678.744"
"812","1685.435"
"813","1683.226"
"814","1668.977"
"815","1644.409"
"816","1613.521"
"817","1580.323"
"818","1547.509"
"819","1514.446"
"820","1479.98"
"821","1442.999"
"822","1403.197"
"823","1361.01"
"824","1316.904"
"825","1271.687"
"826","1227.97"
"827","1188.952"
"828","1157.838"
"829","1138.651"
"830","1136.822"
"831","1157.917"
"832","1206.002"
"833","1268.645"
"834","1323.191"
"835","1346.846"
"836","1327.028"
"837","1284.063"
"838","1244.887"
"839","1235.739"
"840","1264.418"
"841","1318.602"
"842","1384.957"
"843","1449.585"
"844","1495.148"
"845","1503.031"
"846","1454.806"
"847","1351.13"
"848","1228.148"
"849","1125.854"
"850","1081.119"
"851","1095.204"
"852","1146.651"
"853","1213.646"
"854","1275.499"
"855","1315.063"
"856","1315.895"
"857","1262.616"
"858","1165.352"
"859","1060.305"
"860","984.85"
"861","967.8982"
"862","993.5568"
"863","1031.159"
"864","1050.335"
"865","1039.829"
"866","1018.603"
"867","1008.289"
"868","1027.847"
"869","1072.859"
"870","1126.814"
"871","1173.114"
"872","1199.625"
"873","1204.917"
"874","1189.137"
"875","1153.244"
"876","1110.25"
"877","1082.363"
"878","1092.02"
"879","1151.908"
"880","1239.682"
"881","1325.135"
"882","1378.802"
"883","1390.762"
"884","1372.123"
"885","1335.035"
"886","1290.728"
"887","1245.647"
"888","1204.678"
"889","1172.644"
"890","1151.316"
"891","1137.983"
"892","1129.576"
"893","1122.957"
"894","1114.5"
"895","1100.354"
"896","1076.695"
"897","1042.921"
"898","1004.702"
"899","968.4312"
"900","939.9315"
"901","919.1855"
"902","902.7483"
"903","887.1424"
"904","873.3712"
"905","873.7028"
"906","902.1489"
"907","970.5256"
"908","1059.89"
"909","1128.654"
"910","1134.708"
"911","1056.704"
"912","938.85"
"913","838.2679"
"914","809.1547"
"915","850.6603"
"916","912.9826"
"917","944.606"
"918","910.8149"
"919","841.3925"
"920","781.597"
"921","775.1749"
"922","828.4587"
"923","908.9553"
"924","982.3622"
"925","1021.437"
"926","1030.706"
"927","1023.627"
"928","1013.456"
"929","1007.138"
"930","1004.221"
"931","1003.834"
"932","1004.11"
"933","998.1306"
"934","977.3792"
"935","933.6896"
"936","872.2595"
"937","815.4088"
"938","786.5834"
"939","802.3322"
"940","841.0586"
"941","868.056"
"942","849.3004"
"943","781.0399"
"944","700.5801"
"945","648.1638"
"946","655.4274"
"947","704.0681"
"948","757.8292"
"949","780.9518"
"950","761.9698"
"951","723.1919"
"952","689.4284"
"953","681.1106"
"954","692.9933"
"955","710.5137"
"956","719.3278"
"957","715.7246"
"958","710.669"
"959","716.2026"
"960","744.5379"
"961","808.8346"
"962","922.5921"
"963","1098.749"
"964","1327.092"
"965","1566.674"
"966","1774.407"
"967","1913.287"
"968","1978.944"
"969","1977.874"
"970","1916.672"
"971","1804.947"
"972","1656.043"
"973","1483.541"
"974","1299.913"
"975","1112.222"
"976","925.9008"
"977","746.3732"
"978","578.8477"
"979","428.2885"
"980","299.6499"
"981","197.5195"
"982","124.9187"
"983","84.45405"
"984","78.53362"
"985","105.0933"
"986","157.6674"
"987","229.6013"
"988","314.9603"
"989","410.4108"
"990","513.2025"
"991","619.9465"
"992","716.3763"
"993","779.0961"
"994","784.424"
"995","720.7358"
"996","612.0419"
"997","488.9122"
"998","380.816"
"999","302.8809"
"1000","260.2917"
"1001","258.0116"
"1002","293.9299"
"1003","349.2384"
"1004","402.7112"
"1005","433.1093"
"1006","423.5769"
"1007","386.7709"
"1008","347.5091"
"1009","330.3371"
"1010","343.8205"
"1011","373.5882"
"1012","403.4881"
"1013","421.0301"
"1014","433.6612"
"1015","455.5732"
"1016","500.6631"
"1017","573.1682"
"1018","665.9753"
"1019","771.3187"
"1020","886.5419"
"1021","1030.574"
"1022","1228.049"
"1023","1501.62"
"1024","1833.719"
"1025","2169.519"
"1026","2452.755"
"1027","2647.41"
"1028","2781.266"
"1029","2894.644"
"1030","3023.146"
"1031","3140.393"
"1032","3176.508"
"1033","3060.855"
"1034","2766.859"
"1035","2368.029"
"1036","1951.737"
"1037","1598.657"
"1038","1331.825"
"1039","1145.078"
"1040","1031.878"
"1041","976.1825"
"1042","946.7695"
"1043","911.0338"
"1044","842.236"
"1045","746.2941"
"1046","640.3988"
"1047","541.6295"
"1048","463.4116"
"1049","415.1644"
"1050","406.1082"
"1051","436.1858"
"1052","472.5934"
"1053","475.2871"
"1054","407.7711"
"1055","282.5223"
"1056","147.5534"
"1057","51.59417"
"1058","21.12204"
"1059","33.89736"
"1060","61.2203"
"1061","77.32678"
"1062","78.631"
"1063","71.62772"
"1064","62.8288"
"1065","57.13578"
"1066","57.28268"
"1067","65.85295"
"1068","83.59324"
"1069","103.4983"
"1070","116.5146"
"1071","114.2075"
"1072","98.21584"
"1073","78.32487"
"1074","64.54353"
"1075","62.48729"
"1076","67.51494"
"1077","73.52211"
"1078","75.1283"
"1079","72.49836"
"1080","68.3502"
"1081","65.37659"
"1082","64.69262"
"1083","65.36636"
"1084","66.3287"
"1085","66.74596"
"1086","66.68863"
"1087","66.44371"
"1088","66.28315"
"1089","66.27632"
"1090","66.34917"
"1091","66.42486"
"1092","66.45749"
"1093","66.46097"
"1094","66.456"
"1095","66.46034"
"1096","66.4746"
"1097","66.49323"
"1098","66.51083"
"1099","66.52538"
"1100","66.53823"
"1101","66.55089"
"1102","66.56436"
"1103","66.57847"
"1104","66.59281"
"1105","66.607"
"1106","66.62103"
"1107","66.63498"
"1108","66.64896"
"1109","66.66302"
"1110","66.67714"
"1111","66.69129"
"1112","66.70544"
"1113","66.71959"
"1114","66.73376"
"1115","66.74795"
"1116","66.76217"
"1117","66.7764"
"1118","66.79065"
"1119","66.80492"
"1120","66.81921"
"1121","66.83351"
"1122","66.84783"
"1123","66.86217"
"1124","66.87653"
"1125","66.8909"
"1126","66.90529"
"1127","66.91969"
"1128","66.93411"
"1129","66.94854"
"1130","66.963"
"1131","66.97746"
"1132","66.99194"
"1133","67.00643"
"1134","67.02094"
"1135","67.03547"
"1136","67.05001"
"1137","67.06455"
"1138","67.07912"
"1139","67.0937"
"1140","67.10829"
"1141","67.12289"
"1142","67.13751"
"1143","67.15215"
"1144","67.16678"
"1145","67.18143"
"1146","67.19611"
"1147","67.21078"
"1148","67.22546"
"1149","67.24017"
"1150","67.25488"
"1151","67.26962"
"1152","67.28434"
"1153","67.2991"
"1154","67.31384"
"1155","67.32861"
"1156","67.34338"
"1157","67.35816"
"1158","67.37298"
"1159","67.38779"
"1160","67.40261"
"1161","67.41741"
"1162","67.4322"
"1163","67.44701"
"1164","67.46192"
"1165","67.47694"
"1166","67.49194"
"1167","67.50673"
"1168","67.52112"
"1169","67.53542"
"1170","67.55034"
"1171","67.56663"
"1172","67.58392"
"1173","67.59972"
"1174","67.61125"
"1175","67.61762"
"1176","67.62663"
"1177","67.64863"
"1178","67.69159"
"1179","67.73544"
"1180","67.74179"
"1181","67.6736"
"1182","67.56745"
"1183","67.56081"
"1184","67.80506"
"1185","76.79124"
"1186","127.6987"
"1187","258.2804"
"1188","497.3246"
"1189","812.4258"
"1190","1145.648"
"1191","1440.096"
"1192","1660.086"
"1193","1788.361"
"1194","1808.385"
"1195","1714.218"
"1196","1518.617"
"1197","1236.251"
"1198","891.2194"
"1199","543.009"
"1200","259.4634"
"1201","99.77318"
"1202","49.68382"
"1203","58.0555"
"1204","74.66329"
"1205","77.46947"
"1206","72.52937"
"1207","67.09311"
"1208","65.52389"
"1209","66.52647"
"1210","68.14785"
"1211","68.84212"
"1212","68.71557"
"1213","68.29259"
"1214","68.05145"
"1215","68.06344"
"1216","68.18954"
"1217","68.29263"
"1218","68.32175"
"1219","68.31111"
"1220","68.29841"
"1221","68.30578"
"1222","68.32624"
"1223","68.34963"
"1224","68.36813"
"1225","68.38248"
"1226","68.3954"
"1227","68.40934"
"1228","68.42455"
"1229","68.44033"
"1230","68.45596"
"1231","68.47121"
"1232","68.48627"
"1233","68.50134"
"1234","68.51652"
"1235","68.53176"
"1236","68.54702"
"1237","68.56225"
"1238","68.57747"
"1239","68.59268"
"1240","68.60789"
"1241","68.62312"
"1242","68.63837"
"1243","68.6536"
"1244","68.66884"
"1245","68.68408"
"1246","68.69933"
"1247","68.71457"
"1248","68.72983"
"1249","68.74508"
"1250","68.76034"
"1251","68.7756"
"1252","68.79086"
"1253","68.80613"
"1254","68.8214"
"1255","68.83667"
"1256","68.85194"
"1257","68.86723"
"1258","68.88251"
"1259","68.8978"
"1260","68.91309"
"1261","68.92838"
"1262","68.94368"
"1263","68.95898"
"1264","68.97428"
"1265","68.98959"
"1266","69.0049"
"1267","69.02021"
"1268","69.03553"
"1269","69.05085"
"1270","69.06618"
"1271","69.08151"
"1272","69.09685"
"1273","69.11219"
"1274","69.12753"
"1275","69.14288"
"1276","69.15823"
"1277","69.17358"
"1278","69.18894"
"1279","69.20431"
"1280","69.21967"
"1281","69.23505"
"1282","69.25043"
"1283","69.26582"
"1284","69.2812"
"1285","69.29659"
"1286","69.31199"
"1287","69.3274"
"1288","69.3428"
"1289","69.35822"
"1290","69.37363"
"1291","69.38906"
"1292","69.4045"
"1293","69.41993"
"1294","69.43537"
"1295","69.45082"
"1296","69.46627"
"1297","69.48174"
"1298","69.4972"
"1299","69.51268"
"1300","69.52816"
"1301","69.54365"
"1302","69.55914"
"1303","69.57464"
"1304","69.59015"
"1305","69.60566"
"1306","69.62119"
"1307","69.63672"
"1308","69.65226"
"1309","69.6678"
"1310","69.68336"
"1311","69.69891"
"1312","69.71448"
"1313","69.73006"
"1314","69.74565"
"1315","69.76124"
"1316","69.77685"
"1317","69.79246"
"1318","69.80808"
"1319","69.82372"
"1320","69.83936"
"1321","69.855"
"1322","69.87066"
"1323","69.88634"
"1324","69.90201"
"1325","69.9177"
"1326","69.9334"
"1327","69.94911"
"1328","69.96483"
"1329","69.98057"
"1330","69.99632"
"1331","70.01207"
"1332","70.02783"
"1333","70.04361"
"1334","70.0594"
"1335","70.0752"
"1336","70.09102"
"1337","70.10684"
"1338","70.12268"
"1339","70.13853"
"1340","70.1544"
"1341","70.17028"
"1342","70.18616"
"1343","70.20208"
"1344","70.21799"
"1345","70.23392"
"1346","70.24989"
"1347","70.26583"
"1348","70.28181"
"1349","70.29781"
"1350","70.3138"
"1351","70.32983"
"1352","70.34586"
"1353","70.36192"
"1354","70.37798"
"1355","70.39407"
"1356","70.41017"
"1357","70.42629"
"1358","70.44243"
"1359","70.45858"
"1360","70.47475"
"1361","70.49094"
"1362","70.50714"
"1363","70.52336"
"1364","70.5396"
"1365","70.55588"
"1366","70.57215"
"1367","70.58845"
"1368","70.60477"
"1369","70.6211"
"1370","70.63747"
"1371","70.65384"
"1372","70.67024"
"1373","70.68666"
"1374","70.7031"
"1375","70.71957"
"1376","70.73605"
"1377","70.75255"
"1378","70.76907"
"1379","70.78563"
"1380","70.8022"
"1381","70.81879"
"1382","70.83541"
"1383","70.85205"
"1384","70.86871"
"1385","70.88541"
"1386","70.90212"
"1387","70.91886"
"1388","70.93562"
"1389","70.95241"
"1390","70.96923"
"1391","70.98606"
"1392","71.00293"
"1393","71.01983"
"1394","71.03674"
"1395","71.0537"
"1396","71.07066"
"1397","71.08767"
"1398","71.1047"
"1399","71.12175"
"1400","71.13885"
"1401","71.15596"
"1402","71.1731"
"1403","71.19028"
"1404","71.20748"
"1405","71.22473"
"1406","71.24199"
"1407","71.25928"
"1408","71.2766"
"1409","71.29396"
"1410","71.31136"
"1411","71.32878"
"1412","71.34624"
"1413","71.36373"
"1414","71.38126"
"1415","71.39881"
"1416","71.4164"
"1417","71.43402"
"1418","71.45168"
"1419","71.46938"
"1420","71.48711"
"1421","71.50488"
"1422","71.52268"
"1423","71.54052"
"1424","71.5584"
"1425","71.57631"
"1426","71.59426"
"1427","71.61225"
"1428","71.63029"
"1429","71.64835"
"1430","71.66646"
"1431","71.6846"
"1432","71.70278"
"1433","71.72102"
"1434","71.73928"
"1435","71.75759"
"1436","71.77594"
"1437","71.79433"
"1438","71.81277"
"1439","71.83125"
"1440","71.84976"
"1441","71.86832"
"1442","71.88693"
"1443","71.90558"
"1444","71.92428"
"1445","71.94302"
"1446","71.96181"
"1447","71.98064"
"1448","71.99952"
"1449","72.01846"
"1450","72.03742"
"1451","72.05645"
"1452","72.07551"
"1453","72.09463"
"1454","72.1138"
"1455","72.13301"
"1456","72.15229"
"1457","72.1716"
"1458","72.19096"
"1459","72.21039"
"1460","72.22986"
"1461","72.24938"
"1462","72.26896"
"1463","72.28858"
"1464","72.30827"
"1465","72.328"
"1466","72.34779"
"1467","72.36764"
"1468","72.38754"
"1469","72.40749"
"1470","72.4275"
"1471","72.44756"
"1472","72.46769"
"1473","72.48788"
"1474","72.50812"
"1475","72.52841"
"1476","72.54877"
"1477","72.56918"
"1478","72.58966"
"1479","72.6102"
"1480","72.63079"
"1481","72.65145"
"1482","72.67218"
"1483","72.69296"
"1484","72.71381"
"1485","72.73472"
"1486","72.75569"
"1487","72.77673"
"1488","72.79783"
"1489","72.819"
"1490","72.84023"
"1491","72.86153"
"1492","72.8829"
"1493","72.90434"
"1494","72.92584"
"1495","72.9474"
"1496","72.96905"
"1497","72.99075"
"1498","73.01254"
"1499","73.03438"
"1500","73.0563"
"1501","73.07829"
"1502","73.10036"
"1503","73.12249"
"1504","73.1447"
"1505","73.16698"
"1506","73.18933"
"1507","73.21177"
"1508","73.23427"
"1509","73.25685"
"1510","73.27951"
"1511","73.30225"
"1512","73.32506"
"1513","73.34795"
"1514","73.37092"
"1515","73.39396"
"1516","73.41709"
"1517","73.4403"
"1518","73.46358"
"1519","73.48695"
"1520","73.51041"
"1521","73.53394"
"1522","73.55756"
"1523","73.58125"
"1524","73.60503"
"1525","73.62891"
"1526","73.65287"
"1527","73.6769"
"1528","73.70102"
"1529","73.72523"
"1530","73.74953"
"1531","73.77393"
"1532","73.79842"
"1533","73.82297"
"1534","73.84756"
"1535","73.87231"
"1536","73.89724"
"1537","73.92235"
"1538","73.94738"
"1539","73.97209"
"1540","73.99664"
"1541","74.02198"
"1542","74.0491"
"1543","74.07697"
"1544","74.10194"
"1545","74.12051"
"1546","74.1379"
"1547","74.16807"
"1548","74.22301"
"1549","74.27797"
"1550","74.27988"
"1551","74.18984"
"1552","74.12016"
"1553","74.27114"
"1554","74.75793"
"1555","75.08872"
"1556","74.51099"
"1557","72.74754"
"1558","71.88486"
"1559","74.74253"
"1560","81.60285"
"1561","83.86423"
"1562","71.00932"
"1563","45.50532"
"1564","41.92826"
"1565","99.341"
"1566","219.1797"
"1567","336.517"
"1568","380.9581"
"1569","332.4198"
"1570","234.4582"
"1571","134.1847"
"1572","67.46807"
"1573","59.99692"
"1574","134.6398"
"1575","285.605"
"1576","488.7026"
"1577","719.7006"
"1578","956.4937"
"1579","1177.906"
"1580","1363.687"
"1581","1498.146"
"1582","1566.943"
"1583","1564.435"
"1584","1512.534"
"1585","1438.636"
"1586","1373.395"
"1587","1354.265"
"1588","1418.706"
"1589","1560.839"
"1590","1713.208"
"1591","1806.031"
"1592","1822.181"
"1593","1795.254"
"1594","1756.552"
"1595","1686.163"
"1596","1531.014"
"1597","1256.038"
"1598","955.2862"
"1599","777.651"
"1600","826.7062"
"1601","1010.217"
"1602","1183.448"
"1603","1260.133"
"1604","1310.533"
"1605","1430.441"
"1606","1682.181"
"1607","2071.158"
"1608","2595.456"
"1609","3204.082"
"1610","3792.258"
"1611","4254.554"
"1612","4515.043"
"1613","4518.55"
"1614","4227.823"
"1615","3733.252"
"1616","3181.745"
"1617","2692.071"
"1618","2261.416"
"1619","1854.688"
"1620","1469.893"
"1621","1188.65"
"1622","1104.457"
"1623","1238.558"
"1624","1501.025"
"1625","1794.612"
"1626","2070.013"
"1627","2323.53"
"1628","2550.877"
"1629","2723.586"
"1630","2799.074"
"1631","2749.709"
"1632","2631.518"
"1633","2529.278"
"1634","2498.539"
"1635","2503.754"
"1636","2492.008"
"1637","2439.645"
"1638","2375.544"
"1639","2333.289"
"1640","2325.584"
"1641","2342.917"
"1642","2373.844"
"1643","2397.564"
"1644","2387.37"
"1645","2322.96"
"1646","2221.712"
"1647","2114.507"
"1648","2030.644"
"1649","1994.321"
"1650","2028.489"
"1651","2131.513"
"1652","2259.271"
"1653","2364.179"
"1654","2417.416"
"1655","2408.736"
"1656","2330.001"
"1657","2186.012"
"1658","1988.843"
"1659","1750.013"
"1660","1477.86"
"1661","1179.786"
"1662","870.3314"
"1663","582.1153"
"1664","350.2338"
"1665","191.7763"
"1666","98.94959"
"1667","61.61004"
"1668","61.93316"
"1669","76.20356"
"1670","83.41035"
"1671","81.95502"
"1672","78.22917"
"1673","77.03599"
"1674","77.77684"
"1675","78.73717"
"1676","78.95333"
"1677","78.75545"
"1678","78.58794"
"1679","78.615"
"1680","78.74216"
"1681","78.86984"
"1682","78.93645"
"1683","78.89896"
"1684","78.76962"
"1685","78.77384"
"1686","79.18511"
"1687","79.84737"
"1688","79.7848"
"1689","78.03611"
"1690","76.08433"
"1691","77.83389"
"1692","85.93921"
"1693","91.38869"
"1694","79.21542"
"1695","46.50759"
"1696","37.80327"
"1697","108.9246"
"1698","271.0049"
"1699","451.2387"
"1700","570.8831"
"1701","623.2505"
"1702","669.9481"
"1703","765.8508"
"1704","891.2183"
"1705","991.0913"
"1706","1032.455"
"1707","1059.774"
"1708","1134.092"
"1709","1289.303"
"1710","1514.688"
"1711","1792.015"
"1712","2049.22"
"1713","2170.67"
"1714","2065.437"
"1715","1805.729"
"1716","1526.684"
"1717","1337.658"
"1718","1276.548"
"1719","1368.033"
"1720","1592.635"
"1721","1874.338"
"1722","2134.244"
"1723","2304.098"
"1724","2322.104"
"1725","2157.126"
"1726","1912.774"
"1727","1729.326"
"1728","1681.561"
"1729","1718.165"
"1730","1775.171"
"1731","1822.003"
"1732","1858.002"
"1733","1882.412"
"1734","1886.809"
"1735","1859.649"
"1736","1805.198"
"1737","1771.238"
"1738","1811.353"
"1739","1920.535"
"1740","2022.008"
"1741","2043.115"
"1742","1994.097"
"1743","1931.372"
"1744","1897.735"
"1745","1882.939"
"1746","1864.437"
"1747","1825.654"
"1748","1759.458"
"1749","1662.253"
"1750","1566.039"
"1751","1527.901"
"1752","1588.768"
"1753","1710.077"
"1754","1829.693"
"1755","1888.885"
"1756","1835.596"
"1757","1622.532"
"1758","1271.948"
"1759","863.9847"
"1760","479.5564"
"1761","192.9926"
"1762","76.2657"
"1763","161.3593"
"1764","392.8596"
"1765","703.7733"
"1766","1028.75"
"1767","1303.939"
"1768","1470.963"
"1769","1505.91"
"1770","1398.076"
"1771","1157.575"
"1772","843.0275"
"1773","520.1212"
"1774","254.6652"
"1775","112.5958"
"1776","148.9188"
"1777","348.2319"
"1778","667.5197"
"1779","1062.274"
"1780","1484.835"
"1781","1888.457"
"1782","2257.283"
"1783","2604.658"
"1784","2936.221"
"1785","3203.93"
"1786","3339.729"
"1787","3320.264"
"1788","3220.374"
"1789","3122.658"
"1790","3010.823"
"1791","2782.277"
"1792","2361.934"
"1793","1839.51"
"1794","1359.743"
"1795","1013.275"
"1796","785.9982"
"1797","651.3332"
"1798","575.4003"
"1799","518.7591"
"1800","452.8339"
"1801","398.5939"
"1802","390.9476"
"1803","467.3708"
"1804","669.3659"
"1805","1031.387"
"1806","1505.743"
"1807","1993.971"
"1808","2417.724"
"1809","2771.699"
"1810","3065.582"
"1811","3279.895"
"1812","3358.659"
"1813","3251.441"
"1814","2970.061"
"1815","2555.639"
"1816","2065.611"
"1817","1598.006"
"1818","1252.951"
"1819","1040.244"
"1820","886.0123"
"1821","724.3277"
"1822","549.0212"
"1823","373.8818"
"1824","232.7353"
"1825","194.6052"
"1826","323.0126"
"1827","574.2973"
"1828","835.7504"
"1829","1034.355"
"1830","1237.484"
"1831","1539.61"
"1832","1939.063"
"1833","2321.369"
"1834","2580.95"
"1835","2717.624"
"1836","2774.617"
"1837","2763.141"
"1838","2626.575"
"1839","2306.603"
"1840","1844.171"
"1841","1353.788"
"1842","944.2536"
"1843","694.5187"
"1844","672.8704"
"1845","814.056"
"1846","884.374"
"1847","683.0127"
"1848","322.4311"
"1849","49.9943"
"1850","20"
"1851","64.78931"
"1852","112.638"
"1853","109.113"
"1854","89.97253"
"1855","83.86206"
"1856","87.86602"
"1857","92.12352"
"1858","92.43903"
"1859","91.1515"
"1860","90.60293"
"1861","90.90876"
"1862","91.34665"
"1863","91.49924"
"1864","91.50383"
"1865","91.54236"
"1866","91.65048"
"1867","91.77676"
"1868","91.88399"
"1869","91.97868"
"1870","92.07453"
"1871","92.17618"
"1872","92.28008"
"1873","92.38316"
"1874","92.48557"
"1875","92.5883"
"1876","92.69184"
"1877","92.79598"
"1878","92.90047"
"1879","93.00529"
"1880","93.11045"
"1881","93.21603"
"1882","93.32214"
"1883","93.4289"
"1884","93.53597"
"1885","93.64281"
"1886","93.74953"
"1887","93.85793"
"1888","93.96976"
"1889","94.08159"
"1890","94.18568"
"1891","94.28084"
"1892","94.39065"
"1893","94.54217"
"1894","94.6983"
"1895","94.75228"
"1896","94.66101"
"1897","94.72685"
"1898","95.34728"
"1899","96.14784"
"1900","95.66228"
"1901","93.01743"
"1902","92.02914"
"1903","98.4072"
"1904","108.696"
"1905","102.8715"
"1906","65.95511"
"1907","45.56822"
"1908","122.7728"
"1909","307.9155"
"1910","450.3835"
"1911","395.1954"
"1912","206.6363"
"1913","94.08503"
"1914","177.2288"
"1915","317.9666"
"1916","343.5598"
"1917","241.5795"
"1918","126.4223"
"1919","83.73221"
"1920","90.51686"
"1921","102.3874"
"1922","102.2246"
"1923","98.01855"
"1924","96.75964"
"1925","97.7803"
"1926","98.60368"
"1927","98.51783"
"1928","98.65613"
"1929","99.71238"
"1930","100.0151"
"1931","97.37955"
"1932","94.27045"
"1933","98.53863"
"1934","115.0628"
"1935","132.3754"
"1936","134.2962"
"1937","118.7134"
"1938","101.1513"
"1939","95.2144"
"1940","97.98033"
"1941","101.1141"
"1942","101.0583"
"1943","100.588"
"1944","102.0384"
"1945","102.7806"
"1946","98.61462"
"1947","92.86871"
"1948","99.12864"
"1949","131.8501"
"1950","205.9541"
"1951","336.3531"
"1952","528.1909"
"1953","773.2055"
"1954","1063.123"
"1955","1395.282"
"1956","1768.082"
"1957","2141.601"
"1958","2424.415"
"1959","2542.171"
"1960","2536.041"
"1961","2486.505"
"1962","2458.526"
"1963","2496.926"
"1964","2633.254"
"1965","2836.599"
"1966","3055.317"
"1967","3221.889"
"1968","3249.726"
"1969","3092.335"
"1970","2898.833"
"1971","2870.59"
"1972","3044.35"
"1973","3275.345"
"1974","3446.061"
"1975","3594.368"
"1976","3795.633"
"1977","4048.919"
"1978","4278.184"
"1979","4426.058"
"1980","4515.352"
"1981","4584.875"
"1982","4632.731"
"1983","4622.1"
"1984","4539.729"
"1985","4448.369"
"1986","4422.337"
"1987","4491.628"
"1988","4653.875"
"1989","4888.021"
"1990","5127.581"
"1991","5305.46"
"1992","5426.312"
"1993","5537.997"
"1994","5657.627"
"1995","5737.761"
"1996","5738.977"
"1997","5752.628"
"1998","5932.291"
"1999","6310.215"
"2000","6719.209"
"2001","6997.79"
"2002","7136.467"
"2003","7183.247"
"2004","7179.188"
"2005","7156.245"
"2006","7150.721"
"2007","7220.735"
"2008","7425.958"
"2009","7717.709"
"2010","7940.901"
"2011","7983.526"
"2012","7893.263"
"2013","7749.721"
"2014","7611.99"
"2015","7524.127"
"2016","7518.218"
"2017","7598.305"
"2018","7759.417"
"2019","7951.866"
"2020","8102.746"
"2021","8202.183"
"2022","8347.857"
"2023","8620.455"
"2024","8933.369"
"2025","9139.875"
"2026","9179.99"
"2027","9097.819"
"2028","8956.092"
"2029","8866.581"
"2030","8942.209"
"2031","9103.393"
"2032","9111.014"
"2033","8831.872"
"2034","8422.331"
"2035","8067.613"
"2036","7777.917"
"2037","7466.919"
"2038","7122.226"
"2039","6858.938"
"2040","6784.707"
"2041","6890.472"
"2042","7125.284"
"2043","7435.184"
"2044","7762.961"
"2045","8052.817"
"2046","8255.282"
"2047","8326.372"
"2048","8278.891"
"2049","8165.763"
"2050","8021.988"
"2051","7842.76"
"2052","7625.041"
"2053","7414.177"
"2054","7275.859"
"2055","7244.233"
"2056","7312.701"
"2057","7470.358"
"2058","7699.92"
"2059","7978.754"
"2060","8229.08"
"2061","8330.422"
"2062","8247.197"
"2063","8138.859"
"2064","8159.635"
"2065","8219.823"
"2066","8123.458"
"2067","7853.357"
"2068","7626"
"2069","7609.366"
"2070","7715.783"
"2071","7801.528"
"2072","7827.434"
"2073","7832.175"
"2074","7837.696"
"2075","7826.743"
"2076","7771.946"
"2077","7612.296"
"2078","7276.021"
"2079","6786.428"
"2080","6276.202"
"2081","5853.128"
"2082","5520.965"
"2083","5255.644"
"2084","4963.658"
"2085","4510.009"
"2086","3909.549"
"2087","3432.331"
"2088","3302.985"
"2089","3386.808"
"2090","3445.173"
"2091","3425.661"
"2092","3441.082"
"2093","3565.952"
"2094","3767.903"
"2095","4007.883"
"2096","4315.011"
"2097","4744.826"
"2098","5214.727"
"2099","5475.979"
"2100","5377.493"
"2101","5127.29"
"2102","4988.074"
"2103","5006.144"
"2104","5099.157"
"2105","5206.006"
"2106","5301.493"
"2107","5373.505"
"2108","5453.935"
"2109","5579.379"
"2110","5680.311"
"2111","5608.599"
"2112","5338.295"
"2113","5083.029"
"2114","5035.602"
"2115","5121.834"
"2116","5181.881"
"2117","5157.194"
"2118","5079.951"
"2119","4992.358"
"2120","4951.978"
"2121","5006.288"
"2122","5122.063"
"2123","5237.096"
"2124","5367.685"
"2125","5610.068"
"2126","5999.974"
"2127","6406.78"
"2128","6690.853"
"2129","6844.937"
"2130","6918.261"
"2131","6897.312"
"2132","6698.868"
"2133","6285.435"
"2134","5757.713"
"2135","5247.976"
"2136","4943.672"
"2137","5050.12"
"2138","5514.167"
"2139","5985.584"
"2140","6248.288"
"2141","6518.916"
"2142","7036.682"
"2143","7608.64"
"2144","7847.246"
"2145","7670.585"
"2146","7346.303"
"2147","7073.114"
"2148","6802.914"
"2149","6456.066"
"2150","6037.17"
"2151","5590.182"
"2152","5188.781"
"2153","4938.403"
"2154","4908.189"
"2155","5068.842"
"2156","5367.005"
"2157","5693.933"
"2158","5923.396"
"2159","6057.731"
"2160","6224.609"
"2161","6483.442"
"2162","6725.828"
"2163","6839.39"
"2164","6825.752"
"2165","6728.036"
"2166","6599.354"
"2167","6500.826"
"2168","6442.235"
"2169","6334.003"
"2170","6109.889"
"2171","5868.356"
"2172","5747.688"
"2173","5767.501"
"2174","5864.248"
"2175","5955.509"
"2176","5932.381"
"2177","5738.398"
"2178","5519.101"
"2179","5447.312"
"2180","5510.437"
"2181","5595.188"
"2182","5627.933"
"2183","5584.574"
"2184","5484.193"
"2185","5455.631"
"2186","5611.978"
"2187","5834.81"
"2188","5921.26"
"2189","5872.826"
"2190","5875.186"
"2191","5979.588"
"2192","5960.008"
"2193","5631.101"
"2194","5143.892"
"2195","4732.779"
"2196","4478.542"
"2197","4362.306"
"2198","4330.193"
"2199","4282.781"
"2200","4200.329"
"2201","4313.378"
"2202","4842.067"
"2203","5592.799"
"2204","6204.183"
"2205","6559.866"
"2206","6770.218"
"2207","6907.724"
"2208","6954.694"
"2209","6891.944"
"2210","6738.577"
"2211","6524.449"
"2212","6282.424"
"2213","6045.428"
"2214","5785.324"
"2215","5399.493"
"2216","4858.967"
"2217","4335.353"
"2218","4003.516"
"2219","3871.317"
"2220","3885.814"
"2221","3974.447"
"2222","4051.157"
"2223","4097.041"
"2224","4194.786"
"2225","4406.575"
"2226","4702.873"
"2227","5040.333"
"2228","5405.988"
"2229","5796.71"
"2230","6154.061"
"2231","6372.463"
"2232","6418.206"
"2233","6383.983"
"2234","6356.775"
"2235","6357.372"
"2236","6383.813"
"2237","6371.146"
"2238","6229.191"
"2239","5965.015"
"2240","5676.318"
"2241","5422.333"
"2242","5185.55"
"2243","4952.365"
"2244","4754.235"
"2245","4627.864"
"2246","4566.438"
"2247","4541.483"
"2248","4512.367"
"2249","4427.813"
"2250","4294.493"
"2251","4223.634"
"2252","4303.736"
"2253","4501.399"
"2254","4755.965"
"2255","5008.763"
"2256","5203.628"
"2257","5317.448"
"2258","5356.259"
"2259","5349.469"
"2260","5362.961"
"2261","5409.325"
"2262","5320.768"
"2263","4952.587"
"2264","4544.853"
"2265","4465.533"
"2266","4699.369"
"2267","4944.113"
"2268","5025.224"
"2269","4955.707"
"2270","4802.063"
"2271","4733.931"
"2272","4881.85"
"2273","5086.818"
"2274","5114.674"
"2275","4928.02"
"2276","4610.914"
"2277","4300.426"
"2278","4188.984"
"2279","4332.253"
"2280","4506.69"
"2281","4536.455"
"2282","4554.116"
"2283","4723.088"
"2284","4890.643"
"2285","4779.781"
"2286","4418.703"
"2287","4081.365"
"2288","3891.743"
"2289","3747.715"
"2290","3559.06"
"2291","3312.394"
"2292","3025.466"
"2293","2808.067"
"2294","2782.058"
"2295","2911.573"
"2296","3076.711"
"2297","3244.268"
"2298","3465.369"
"2299","3719.792"
"2300","3861.159"
