,"Scan 01041"
"400","12010.13"
"401","12008.46"
"402","12006.88"
"403","12003.53"
"404","11996.51"
"405","11984.42"
"406","11969.41"
"407","11955.48"
"408","11946.61"
"409","11946.35"
"410","11953.06"
"411","11961.51"
"412","11966.42"
"413","11962.87"
"414","11952.03"
"415","11940.76"
"416","11936.1"
"417","11944.85"
"418","11966.96"
"419","11993.97"
"420","12016.95"
"421","12027.11"
"422","12019.58"
"423","11995.81"
"424","11957.82"
"425","11907.62"
"426","11849.99"
"427","11795.58"
"428","11755.66"
"429","11741.44"
"430","11758.34"
"431","11796.27"
"432","11842.65"
"433","11884.97"
"434","11912.95"
"435","11923.72"
"436","11916.04"
"437","11888.67"
"438","11842.77"
"439","11790.02"
"440","11744.87"
"441","11721.7"
"442","11731.11"
"443","11763.46"
"444","11802.29"
"445","11831.28"
"446","11836.34"
"447","11817.97"
"448","11782.69"
"449","11736.99"
"450","11687.39"
"451","11640.99"
"452","11605.19"
"453","11587.31"
"454","11593.08"
"455","11612.53"
"456","11626.72"
"457","11616.73"
"458","11565.9"
"459","11483.6"
"460","11396.34"
"461","11330.79"
"462","11311.43"
"463","11333.51"
"464","11370.53"
"465","11395.57"
"466","11383.56"
"467","11337.32"
"468","11282.91"
"469","11246.95"
"470","11254.5"
"471","11302.88"
"472","11364.02"
"473","11409.12"
"474","11410.62"
"475","11366.2"
"476","11298.54"
"477","11231.26"
"478","11187.21"
"479","11172.57"
"480","11175.95"
"481","11185.18"
"482","11188.4"
"483","11181.8"
"484","11170.45"
"485","11159.88"
"486","11155.42"
"487","11156.8"
"488","11157.32"
"489","11149.92"
"490","11127.79"
"491","11090.17"
"492","11043.55"
"493","10994.8"
"494","10950.58"
"495","10912.52"
"496","10876.14"
"497","10836.6"
"498","10789.25"
"499","10733.31"
"500","10672.72"
"501","10611.71"
"502","10554.41"
"503","10503.97"
"504","10462.32"
"505","10431.32"
"506","10412.63"
"507","10401.71"
"508","10386.89"
"509","10356.2"
"510","10298.2"
"511","10216.08"
"512","10129.12"
"513","10057.35"
"514","10019.97"
"515","10017.98"
"516","10033.39"
"517","10047.39"
"518","10041.96"
"519","10014.44"
"520","9977.175"
"521","9943.084"
"522","9924.383"
"523","9921.119"
"524","9922.378"
"525","9916.911"
"526","9894.231"
"527","9855.603"
"528","9811.895"
"529","9774.212"
"530","9752.768"
"531","9746.088"
"532","9744.105"
"533","9736.605"
"534","9714.344"
"535","9678.938"
"536","9639.045"
"537","9603.411"
"538","9579.542"
"539","9563.195"
"540","9543.499"
"541","9509.557"
"542","9452.982"
"543","9385.446"
"544","9328.305"
"545","9302.87"
"546","9325.739"
"547","9382.564"
"548","9446.414"
"549","9490.448"
"550","9493.023"
"551","9460.146"
"552","9407.113"
"553","9349.166"
"554","9299.321"
"555","9261.118"
"556","9235.497"
"557","9223.393"
"558","9224.388"
"559","9233.351"
"560","9244.143"
"561","9250.663"
"562","9249.104"
"563","9241.927"
"564","9232.65"
"565","9224.764"
"566","9220.125"
"567","9217.093"
"568","9213.577"
"569","9207.528"
"570","9199.137"
"571","9192.347"
"572","9191.442"
"573","9200.507"
"574","9216.542"
"575","9227.349"
"576","9220.16"
"577","9182.998"
"578","9120.825"
"579","9055.522"
"580","9009.607"
"581","9003.862"
"582","9034.784"
"583","9080.473"
"584","9118.656"
"585","9129.313"
"586","9113.66"
"587","9084.906"
"588","9056.353"
"589","9039.297"
"590","9031.938"
"591","9027.091"
"592","9017.58"
"593","8998.395"
"594","8974.488"
"595","8953.694"
"596","8943.813"
"597","8950.282"
"598","8971.013"
"599","9002.422"
"600","9040.927"
"601","9080.847"
"602","9111.822"
"603","9122.909"
"604","9103.375"
"605","9052.649"
"606","8985.763"
"607","8919.014"
"608","8868.292"
"609","8840.551"
"610","8833.213"
"611","8843.241"
"612","8867.419"
"613","8899.818"
"614","8932.538"
"615","8957.652"
"616","8968.276"
"617","8965.842"
"618","8955.891"
"619","8943.969"
"620","8934.591"
"621","8927.093"
"622","8919.157"
"623","8908.466"
"624","8893.59"
"625","8875.886"
"626","8857.269"
"627","8839.639"
"628","8824.466"
"629","8812.361"
"630","8803.821"
"631","8799.35"
"632","8799.354"
"633","8804.135"
"634","8813.985"
"635","8829.108"
"636","8848.254"
"637","8868.964"
"638","8888.76"
"639","8904.855"
"640","8911.719"
"641","8902.422"
"642","8870.035"
"643","8811.541"
"644","8743.244"
"645","8687.391"
"646","8666.147"
"647","8690.539"
"648","8739.78"
"649","8787.476"
"650","8807.524"
"651","8789.571"
"652","8749.813"
"653","8706.957"
"654","8679.171"
"655","8673.186"
"656","8684.131"
"657","8706.636"
"658","8735.315"
"659","8764.512"
"660","8788.407"
"661","8801.192"
"662","8798.243"
"663","8781.364"
"664","8754.546"
"665","8721.779"
"666","8687.619"
"667","8658.343"
"668","8640.534"
"669","8640.685"
"670","8660.672"
"671","8694.783"
"672","8736.623"
"673","8779.768"
"674","8817.15"
"675","8841.075"
"676","8843.851"
"677","8819.556"
"678","8777.788"
"679","8736.181"
"680","8712.393"
"681","8718.414"
"682","8741.611"
"683","8762.664"
"684","8762.353"
"685","8732.932"
"686","8692.313"
"687","8661.83"
"688","8662.221"
"689","8696.014"
"690","8744.014"
"691","8785.795"
"692","8802.62"
"693","8794.815"
"694","8774.922"
"695","8755.653"
"696","8747.118"
"697","8745.896"
"698","8744.143"
"699","8734.042"
"700","8713.004"
"701","8691.646"
"702","8682.624"
"703","8698.208"
"704","8737.235"
"705","8781.345"
"706","8811.088"
"707","8808.833"
"708","8778.257"
"709","8737.047"
"710","8703.1"
"711","8690.613"
"712","8694.943"
"713","8705.431"
"714","8711.447"
"715","8706.746"
"716","8695.403"
"717","8682.978"
"718","8674.977"
"719","8675.666"
"720","8687.886"
"721","8714.391"
"722","8756.636"
"723","8803.416"
"724","8836.408"
"725","8837.236"
"726","8795.448"
"727","8732.958"
"728","8679.949"
"729","8666.358"
"730","8703.137"
"731","8766.417"
"732","8828.648"
"733","8863.477"
"734","8865.51"
"735","8847.553"
"736","8823"
"737","8803.683"
"738","8791.42"
"739","8784.025"
"740","8779.309"
"741","8776.928"
"742","8781.543"
"743","8798.638"
"744","8833.403"
"745","8881.271"
"746","8925.88"
"747","8950.191"
"748","8939.912"
"749","8906.453"
"750","8875.314"
"751","8872.11"
"752","8912.104"
"753","8972.806"
"754","9023.107"
"755","9032.366"
"756","8993.925"
"757","8937.914"
"758","8897.548"
"759","8903.2"
"760","8950.408"
"761","9011.123"
"762","9056.876"
"763","9065.97"
"764","9046.735"
"765","9015.866"
"766","8989.963"
"767","8978.831"
"768","8980.224"
"769","8990.66"
"770","9006.786"
"771","9027.06"
"772","9051.315"
"773","9079.418"
"774","9110.89"
"775","9143.548"
"776","9174.699"
"777","9201.65"
"778","9222.501"
"779","9236.804"
"780","9244.279"
"781","9244.939"
"782","9243.332"
"783","9247.49"
"784","9265.536"
"785","9302.125"
"786","9345.168"
"787","9377.545"
"788","9382.276"
"789","9354.485"
"790","9310.959"
"791","9270.725"
"792","9251.725"
"793","9257.455"
"794","9281.011"
"795","9315.27"
"796","9352.986"
"797","9386.341"
"798","9407.374"
"799","9408.264"
"800","9389.329"
"801","9363.637"
"802","9345.354"
"803","9347.209"
"804","9366.512"
"805","9391.169"
"806","9408.956"
"807","9411.439"
"808","9403.246"
"809","9391.829"
"810","9384.549"
"811","9385.855"
"812","9396.535"
"813","9417.147"
"814","9447.571"
"815","9482.378"
"816","9513.642"
"817","9533.437"
"818","9538.1"
"819","9534.77"
"820","9532.262"
"821","9538.991"
"822","9555.521"
"823","9575.184"
"824","9591.043"
"825","9597.279"
"826","9593.923"
"827","9582.909"
"828","9566.185"
"829","9546.562"
"830","9528.351"
"831","9516.009"
"832","9513.706"
"833","9522.466"
"834","9541.372"
"835","9569.474"
"836","9604.824"
"837","9642.259"
"838","9675.961"
"839","9700.267"
"840","9713.37"
"841","9717.688"
"842","9715.847"
"843","9710.185"
"844","9701.313"
"845","9689.201"
"846","9673.859"
"847","9659.927"
"848","9660.649"
"849","9690.203"
"850","9760.509"
"851","9857.672"
"852","9951.331"
"853","10010.88"
"854","10016.64"
"855","9983.501"
"856","9933.119"
"857","9886.706"
"858","9854.688"
"859","9836.459"
"860","9830.919"
"861","9836.47"
"862","9848.89"
"863","9863.099"
"864","9874.083"
"865","9881.407"
"866","9891.873"
"867","9912.917"
"868","9950.522"
"869","9997.96"
"870","10041.91"
"871","10069.04"
"872","10073.24"
"873","10065.85"
"874","10060.75"
"875","10070.95"
"876","10096.92"
"877","10129.51"
"878","10159.31"
"879","10179.08"
"880","10189.27"
"881","10192.03"
"882","10189.55"
"883","10183.92"
"884","10177.15"
"885","10171.28"
"886","10168.55"
"887","10172.44"
"888","10186.85"
"889","10215.54"
"890","10256.89"
"891","10301.27"
"892","10338.45"
"893","10360.06"
"894","10371.44"
"895","10384.11"
"896","10409.54"
"897","10450.51"
"898","10492.89"
"899","10520.62"
"900","10519.49"
"901","10494.33"
"902","10461.15"
"903","10436.1"
"904","10429.61"
"905","10437.79"
"906","10454.52"
"907","10473.73"
"908","10489.76"
"909","10497.29"
"910","10491"
"911","10469.59"
"912","10444.45"
"913","10429.47"
"914","10437.77"
"915","10468.11"
"916","10506.47"
"917","10538.39"
"918","10552.13"
"919","10546.53"
"920","10522.92"
"921","10483.03"
"922","10438.04"
"923","10408.89"
"924","10416.99"
"925","10475.82"
"926","10562.97"
"927","10646.03"
"928","10693.28"
"929","10696.53"
"930","10675.12"
"931","10649.97"
"932","10638.55"
"933","10640.83"
"934","10651.26"
"935","10664.33"
"936","10676.47"
"937","10686.67"
"938","10694.07"
"939","10697.77"
"940","10696.81"
"941","10690.18"
"942","10676.92"
"943","10658.01"
"944","10637.08"
"945","10617.96"
"946","10603.57"
"947","10591.67"
"948","10578.15"
"949","10558.96"
"950","10532.95"
"951","10503.01"
"952","10472.35"
"953","10444.55"
"954","10425.59"
"955","10422.31"
"956","10441.37"
"957","10480.54"
"958","10525.38"
"959","10560.54"
"960","10573.59"
"961","10568.73"
"962","10556.04"
"963","10545.51"
"964","10542.26"
"965","10545.05"
"966","10552.14"
"967","10561.71"
"968","10571.33"
"969","10578.37"
"970","10580.19"
"971","10574.72"
"972","10560.53"
"973","10536.21"
"974","10502.08"
"975","10466.65"
"976","10440.94"
"977","10435.49"
"978","10447.17"
"979","10457.5"
"980","10447.21"
"981","10404.93"
"982","10352.99"
"983","10322.65"
"984","10343.65"
"985","10411.41"
"986","10487.55"
"987","10532.24"
"988","10519.14"
"989","10470.4"
"990","10419.07"
"991","10396.95"
"992","10413.74"
"993","10460.56"
"994","10527.98"
"995","10605.49"
"996","10679.48"
"997","10735.73"
"998","10761.32"
"999","10759.6"
"1000","10745.25"
"1001","10733.16"
"1002","10732.57"
"1003","10739.38"
"1004","10747.54"
"1005","10751.03"
"1006","10744.8"
"1007","10730.42"
"1008","10712.2"
"1009","10694.4"
"1010","10677.99"
"1011","10659.27"
"1012","10634.14"
"1013","10600.71"
"1014","10568.81"
"1015","10552.29"
"1016","10564.52"
"1017","10603.89"
"1018","10651.21"
"1019","10686.25"
"1020","10694.54"
"1021","10685.89"
"1022","10676.52"
"1023","10682.06"
"1024","10706.09"
"1025","10741"
"1026","10778.76"
"1027","10812.86"
"1028","10841.63"
"1029","10864.33"
"1030","10880.43"
"1031","10891.68"
"1032","10901.5"
"1033","10913.31"
"1034","10927.51"
"1035","10937.6"
"1036","10936.13"
"1037","10917.46"
"1038","10891.74"
"1039","10877.05"
"1040","10891.34"
"1041","10936.73"
"1042","10990.15"
"1043","11026.22"
"1044","11024.62"
"1045","10993.01"
"1046","10948.74"
"1047","10908.94"
"1048","10884.73"
"1049","10880.58"
"1050","10900.66"
"1051","10944.85"
"1052","10998.08"
"1053","11041.92"
"1054","11059.06"
"1055","11047.42"
"1056","11015.96"
"1057","10973.93"
"1058","10932.71"
"1059","10908.47"
"1060","10917.99"
"1061","10973.23"
"1062","11049.85"
"1063","11107"
"1064","11104.62"
"1065","11040.56"
"1066","10963.72"
"1067","10926.63"
"1068","10966.04"
"1069","11052.02"
"1070","11137.08"
"1071","11176.29"
"1072","11167.05"
"1073","11140.92"
"1074","11130.4"
"1075","11151"
"1076","11178.48"
"1077","11182.94"
"1078","11140.35"
"1079","11071.61"
"1080","11018.29"
"1081","11021.16"
"1082","11083.65"
"1083","11160.73"
"1084","11204.15"
"1085","11181.21"
"1086","11118.98"
"1087","11058.88"
"1088","11039.44"
"1089","11060.86"
"1090","11096.19"
"1091","11117.97"
"1092","11112.29"
"1093","11091.24"
"1094","11069.92"
"1095","11061.37"
"1096","11066.77"
"1097","11083.01"
"1098","11106.78"
"1099","11129.92"
"1100","11139.56"
"1101","11122.62"
"1102","11075.31"
"1103","11018.7"
"1104","10977.94"
"1105","10974.36"
"1106","10998.3"
"1107","11025.12"
"1108","11030.57"
"1109","11008.53"
"1110","10975.64"
"1111","10950.05"
"1112","10946.05"
"1113","10964.92"
"1114","11005.15"
"1115","11063.61"
"1116","11120.04"
"1117","11144.11"
"1118","11105.98"
"1119","11008.44"
"1120","10902.51"
"1121","10843.11"
"1122","10867.59"
"1123","10943.83"
"1124","11022.54"
"1125","11058.35"
"1126","11052.17"
"1127","11035.17"
"1128","11038.7"
"1129","11071.67"
"1130","11107.19"
"1131","11115.16"
"1132","11075.07"
"1133","11006.42"
"1134","10939.09"
"1135","10900.92"
"1136","10894.66"
"1137","10906.36"
"1138","10921.89"
"1139","10935.37"
"1140","10954"
"1141","10986.11"
"1142","11034.58"
"1143","11080.51"
"1144","11099.59"
"1145","11070.45"
"1146","11004.11"
"1147","10931.78"
"1148","10884.65"
"1149","10877.64"
"1150","10902.29"
"1151","10948.35"
"1152","11005.56"
"1153","11063.72"
"1154","11112.63"
"1155","11142.93"
"1156","11152.93"
"1157","11145.03"
"1158","11121.79"
"1159","11090.54"
"1160","11064.3"
"1161","11056.4"
"1162","11072.45"
"1163","11096.75"
"1164","11109.98"
"1165","11096.87"
"1166","11069.65"
"1167","11052"
"1168","11066.41"
"1169","11110.43"
"1170","11158.56"
"1171","11184.56"
"1172","11177.36"
"1173","11156.52"
"1174","11145.24"
"1175","11160.45"
"1176","11189.64"
"1177","11211.71"
"1178","11207.72"
"1179","11184.49"
"1180","11165.67"
"1181","11174.71"
"1182","11212.36"
"1183","11248.29"
"1184","11249.92"
"1185","11200.11"
"1186","11127.58"
"1187","11069.49"
"1188","11057.84"
"1189","11089.17"
"1190","11145.24"
"1191","11207.98"
"1192","11263.59"
"1193","11302.03"
"1194","11313.46"
"1195","11297.84"
"1196","11272.47"
"1197","11256.38"
"1198","11263.31"
"1199","11286.95"
"1200","11316.25"
"1201","11341.29"
"1202","11361.56"
"1203","11381.27"
"1204","11404.43"
"1205","11429.85"
"1206","11451.17"
"1207","11461.83"
"1208","11460.02"
"1209","11453.31"
"1210","11450.36"
"1211","11457.08"
"1212","11468.35"
"1213","11476.21"
"1214","11473.74"
"1215","11462.8"
"1216","11449.81"
"1217","11441.01"
"1218","11437.8"
"1219","11436.81"
"1220","11434.51"
"1221","11431.23"
"1222","11434.63"
"1223","11453.14"
"1224","11491.07"
"1225","11537.46"
"1226","11577.83"
"1227","11599.48"
"1228","11603.13"
"1229","11595.65"
"1230","11583.86"
"1231","11573.13"
"1232","11567.64"
"1233","11571.44"
"1234","11584.32"
"1235","11599.51"
"1236","11609.68"
"1237","11610.83"
"1238","11608.43"
"1239","11609.67"
"1240","11621.34"
"1241","11648.24"
"1242","11694.47"
"1243","11762.49"
"1244","11836.45"
"1245","11889.01"
"1246","11893.6"
"1247","11851.08"
"1248","11792.41"
"1249","11749.96"
"1250","11739.88"
"1251","11747.26"
"1252","11753.64"
"1253","11746.71"
"1254","11735.55"
"1255","11733.85"
"1256","11752.59"
"1257","11785.46"
"1258","11819.3"
"1259","11841.77"
"1260","11850.99"
"1261","11852.23"
"1262","11850.79"
"1263","11848.95"
"1264","11845.55"
"1265","11839.27"
"1266","11831.83"
"1267","11830.73"
"1268","11844.13"
"1269","11874.3"
"1270","11904.51"
"1271","11914.12"
"1272","11888.81"
"1273","11850.23"
"1274","11832.75"
"1275","11866.73"
"1276","11940.56"
"1277","12017.97"
"1278","12063.44"
"1279","12064.42"
"1280","12030.05"
"1281","11970.37"
"1282","11898.5"
"1283","11832.13"
"1284","11789.31"
"1285","11780.67"
"1286","11798.91"
"1287","11834.12"
"1288","11875.99"
"1289","11912.69"
"1290","11932"
"1291","11924.98"
"1292","11904.12"
"1293","11890.49"
"1294","11902.86"
"1295","11933.72"
"1296","11959.09"
"1297","11955.99"
"1298","11927.64"
"1299","11902.16"
"1300","11908.17"
"1301","11950.05"
"1302","11997.42"
"1303","12017.35"
"1304","11996.14"
"1305","11961.58"
"1306","11946.89"
"1307","11973.56"
"1308","12024.2"
"1309","12073.34"
"1310","12099.32"
"1311","12100.02"
"1312","12079.59"
"1313","12043.23"
"1314","12004.88"
"1315","11982.64"
"1316","11992.92"
"1317","12029.7"
"1318","12071.31"
"1319","12096.45"
"1320","12100"
"1321","12092.96"
"1322","12086.87"
"1323","12085.96"
"1324","12084.13"
"1325","12074.58"
"1326","12055.09"
"1327","12032.65"
"1328","12015.35"
"1329","12009.59"
"1330","12016.99"
"1331","12038.32"
"1332","12072.44"
"1333","12110.34"
"1334","12141.02"
"1335","12154.88"
"1336","12150.61"
"1337","12129.9"
"1338","12095.73"
"1339","12062.09"
"1340","12048.47"
"1341","12071.89"
"1342","12117.61"
"1343","12149.31"
"1344","12132.12"
"1345","12067.81"
"1346","11991.29"
"1347","11938.03"
"1348","11921.44"
"1349","11928.63"
"1350","11945.23"
"1351","11961.51"
"1352","11975.04"
"1353","11984.02"
"1354","11987.57"
"1355","11986.71"
"1356","11982.69"
"1357","11974.82"
"1358","11957.31"
"1359","11923.5"
"1360","11871.95"
"1361","11819.59"
"1362","11787.41"
"1363","11789.65"
"1364","11809.56"
"1365","11821.45"
"1366","11804.92"
"1367","11771.33"
"1368","11743.78"
"1369","11742.01"
"1370","11759.47"
"1371","11777.32"
"1372","11778.63"
"1373","11766.94"
"1374","11757.69"
"1375","11764.96"
"1376","11782.59"
"1377","11789.97"
"1378","11767.56"
"1379","11721.09"
"1380","11678.08"
"1381","11665.85"
"1382","11688.07"
"1383","11723.87"
"1384","11751.56"
"1385","11761.61"
"1386","11759.47"
"1387","11751.55"
"1388","11744.45"
"1389","11745.16"
"1390","11760.5"
"1391","11786.43"
"1392","11800.17"
"1393","11777.19"
"1394","11710.76"
"1395","11629.71"
"1396","11567.07"
"1397","11546.25"
"1398","11568.16"
"1399","11630.53"
"1400","11722.74"
"1401","11811.81"
"1402","11861.02"
"1403","11850.85"
"1404","11814.79"
"1405","11796.56"
"1406","11823.76"
"1407","11867.34"
"1408","11885.79"
"1409","11850.49"
"1410","11784.19"
"1411","11722.36"
"1412","11694.69"
"1413","11705"
"1414","11749.88"
"1415","11821.88"
"1416","11893.51"
"1417","11931.09"
"1418","11909.7"
"1419","11852.24"
"1420","11797.75"
"1421","11778.53"
"1422","11786.79"
"1423","11800.06"
"1424","11798.9"
"1425","11783.83"
"1426","11763.21"
"1427","11744.58"
"1428","11729.64"
"1429","11717.65"
"1430","11708.71"
"1431","11709.07"
"1432","11727.7"
"1433","11770.81"
"1434","11823.18"
"1435","11859.69"
"1436","11859.78"
"1437","11839.59"
"1438","11832.81"
"1439","11867.46"
"1440","11924.14"
"1441","11960.2"
"1442","11939.94"
"1443","11887.77"
"1444","11858.02"
"1445","11897.13"
"1446","11982.57"
"1447","12057.2"
"1448","12070.96"
"1449","12036.53"
"1450","11998.08"
"1451","11993.55"
"1452","12006.58"
"1453","11993.75"
"1454","11919.66"
"1455","11816.26"
"1456","11748.43"
"1457","11769.78"
"1458","11842.42"
"1459","11884.88"
"1460","11828.99"
"1461","11710.25"
"1462","11611.82"
"1463","11603.82"
"1464","11660.1"
"1465","11712.13"
"1466","11701.06"
"1467","11635.49"
"1468","11552.14"
"1469","11483.92"
"1470","11438.64"
"1471","11414.33"
"1472","11406.07"
"1473","11391.88"
"1474","11343.59"
"1475","11243.34"
"1476","11129.23"
"1477","11058.12"
"1478","11071.58"
"1479","11135.93"
"1480","11194.43"
"1481","11201.56"
"1482","11161.45"
"1483","11091.97"
"1484","11012.56"
"1485","10948.78"
"1486","10927.73"
"1487","10961.3"
"1488","11008.08"
"1489","11014.98"
"1490","10951.22"
"1491","10854.57"
"1492","10775.98"
"1493","10749.14"
"1494","10761.48"
"1495","10792.73"
"1496","10825.24"
"1497","10847.5"
"1498","10848.91"
"1499","10826.81"
"1500","10794.47"
"1501","10767.01"
"1502","10751.71"
"1503","10742.37"
"1504","10731.52"
"1505","10716.22"
"1506","10700.2"
"1507","10687.61"
"1508","10679.13"
"1509","10671.01"
"1510","10659.34"
"1511","10642.37"
"1512","10620.67"
"1513","10595.29"
"1514","10574.07"
"1515","10570.85"
"1516","10598.19"
"1517","10647.53"
"1518","10694.81"
"1519","10717.17"
"1520","10708.31"
"1521","10671.88"
"1522","10613.7"
"1523","10555.87"
"1524","10528.49"
"1525","10553.87"
"1526","10604.69"
"1527","10634.25"
"1528","10606.51"
"1529","10537.85"
"1530","10460.7"
"1531","10402.65"
"1532","10372.92"
"1533","10376.4"
"1534","10410.72"
"1535","10452.48"
"1536","10474.55"
"1537","10465.21"
"1538","10447.15"
"1539","10447.51"
"1540","10474.16"
"1541","10501.92"
"1542","10502.83"
"1543","10470.6"
"1544","10427.48"
"1545","10397.15"
"1546","10390.07"
"1547","10403.2"
"1548","10432.25"
"1549","10462.56"
"1550","10471.5"
"1551","10440.04"
"1552","10388.43"
"1553","10359.68"
"1554","10388.9"
"1555","10453.16"
"1556","10504.66"
"1557","10504.97"
"1558","10462.9"
"1559","10401.88"
"1560","10344.03"
"1561","10306.82"
"1562","10306.67"
"1563","10345.32"
"1564","10388.27"
"1565","10395.73"
"1566","10352.74"
"1567","10288.17"
"1568","10234.91"
"1569","10207.68"
"1570","10198.26"
"1571","10196.99"
"1572","10195.08"
"1573","10184.5"
"1574","10158.91"
"1575","10131.03"
"1576","10125.87"
"1577","10163.25"
"1578","10223.41"
"1579","10268.97"
"1580","10271.5"
"1581","10246.19"
"1582","10221.3"
"1583","10216.11"
"1584","10221.36"
"1585","10222.17"
"1586","10212.03"
"1587","10202.03"
"1588","10205.28"
"1589","10225.39"
"1590","10252.45"
"1591","10275.68"
"1592","10288.48"
"1593","10288.28"
"1594","10273.31"
"1595","10249.3"
"1596","10226.86"
"1597","10215.92"
"1598","10221.13"
"1599","10244.9"
"1600","10285.81"
"1601","10325.9"
"1602","10342.8"
"1603","10325.31"
"1604","10292.07"
"1605","10266.52"
"1606","10260.12"
"1607","10263.98"
"1608","10267.58"
"1609","10270.58"
"1610","10283.88"
"1611","10317.3"
"1612","10359.55"
"1613","10384.37"
"1614","10370.67"
"1615","10337.16"
"1616","10320.21"
"1617","10344.57"
"1618","10385.1"
"1619","10403.44"
"1620","10381.28"
"1621","10351.09"
"1622","10352.75"
"1623","10395"
"1624","10438.63"
"1625","10442.2"
"1626","10404.29"
"1627","10361.54"
"1628","10349.15"
"1629","10372.09"
"1630","10417.7"
"1631","10474.42"
"1632","10538.01"
"1633","10606.78"
"1634","10674.38"
"1635","10720.06"
"1636","10720.55"
"1637","10678.36"
"1638","10642.26"
"1639","10663.89"
"1640","10743.43"
"1641","10826.25"
"1642","10860.22"
"1643","10851.86"
"1644","10844.64"
"1645","10874.33"
"1646","10928.97"
"1647","10979.48"
"1648","11005.42"
"1649","11013.38"
"1650","11015.05"
"1651","11012.24"
"1652","10989.65"
"1653","10931.59"
"1654","10852.88"
"1655","10798.5"
"1656","10808.2"
"1657","10857.74"
"1658","10886.99"
"1659","10848.18"
"1660","10756.26"
"1661","10645.22"
"1662","10545.83"
"1663","10480.54"
"1664","10469.96"
"1665","10506.86"
"1666","10545.66"
"1667","10541.31"
"1668","10499.4"
"1669","10464.3"
"1670","10473.59"
"1671","10512.1"
"1672","10542.95"
"1673","10536.64"
"1674","10488.78"
"1675","10400.35"
"1676","10286.5"
"1677","10186.79"
"1678","10141.03"
"1679","10144.92"
"1680","10153.47"
"1681","10125.19"
"1682","10060.27"
"1683","9979.238"
"1684","9902.426"
"1685","9848.837"
"1686","9837.004"
"1687","9864.469"
"1688","9888.727"
"1689","9864.716"
"1690","9793.107"
"1691","9719.891"
"1692","9686.76"
"1693","9681.19"
"1694","9663.031"
"1695","9605.011"
"1696","9531.413"
"1697","9478.997"
"1698","9464.082"
"1699","9464.576"
"1700","9455.404"
"1701","9438.49"
"1702","9441.331"
"1703","9486.555"
"1704","9550.311"
"1705","9586.8"
"1706","9566.571"
"1707","9517.84"
"1708","9481.089"
"1709","9472.508"
"1710","9468.406"
"1711","9442.878"
"1712","9394.643"
"1713","9342.35"
"1714","9303.732"
"1715","9287.023"
"1716","9296.807"
"1717","9329.766"
"1718","9360.997"
"1719","9362.524"
"1720","9330.21"
"1721","9290.474"
"1722","9269.869"
"1723","9274.242"
"1724","9296.735"
"1725","9327.152"
"1726","9341.501"
"1727","9312.185"
"1728","9238.746"
"1729","9172.897"
"1730","9169.019"
"1731","9217.829"
"1732","9252.963"
"1733","9218.879"
"1734","9146.263"
"1735","9101.049"
"1736","9121.516"
"1737","9169.351"
"1738","9194.152"
"1739","9181.074"
"1740","9158.845"
"1741","9155.444"
"1742","9165.75"
"1743","9166.185"
"1744","9140.908"
"1745","9103.798"
"1746","9075.491"
"1747","9063.864"
"1748","9056.667"
"1749","9041.12"
"1750","9021.117"
"1751","9012.288"
"1752","9026.257"
"1753","9054.394"
"1754","9082.082"
"1755","9097.398"
"1756","9093.604"
"1757","9065.41"
"1758","9022.38"
"1759","8986.431"
"1760","8974.682"
"1761","8974.967"
"1762","8964.981"
"1763","8940.001"
"1764","8933.717"
"1765","8982.132"
"1766","9064.608"
"1767","9108.194"
"1768","9055.307"
"1769","8956.496"
"1770","8903.585"
"1771","8940.892"
"1772","9001.441"
"1773","9005.581"
"1774","8945.288"
"1775","8881.567"
"1776","8867.779"
"1777","8890.068"
"1778","8908.318"
"1779","8902.266"
"1780","8898.314"
"1781","8927.738"
"1782","8983.031"
"1783","9020.027"
"1784","9002.693"
"1785","8953.541"
"1786","8916.985"
"1787","8917.829"
"1788","8937.67"
"1789","8952.808"
"1790","8948.098"
"1791","8915.862"
"1792","8855.85"
"1793","8806.455"
"1794","8818.732"
"1795","8896.97"
"1796","8955.19"
"1797","8905.332"
"1798","8781.886"
"1799","8712.215"
"1800","8785.958"
"1801","8912.785"
"1802","8953.273"
"1803","8860.846"
"1804","8737.529"
"1805","8689.212"
"1806","8715.413"
"1807","8750.002"
"1808","8747.324"
"1809","8736.495"
"1810","8761.761"
"1811","8826.396"
"1812","8882.391"
"1813","8884.979"
"1814","8840.86"
"1815","8780.909"
"1816","8730.637"
"1817","8701.48"
"1818","8701.773"
"1819","8720.869"
"1820","8730.536"
"1821","8707.622"
"1822","8659.727"
"1823","8604.67"
"1824","8563.814"
"1825","8564.696"
"1826","8631.039"
"1827","8734.306"
"1828","8812.288"
"1829","8819.688"
"1830","8771.352"
"1831","8694.858"
"1832","8612.021"
"1833","8537.89"
"1834","8486.612"
"1835","8468.544"
"1836","8492.401"
"1837","8552.157"
"1838","8610.722"
"1839","8630.23"
"1840","8618.649"
"1841","8617.904"
"1842","8655.577"
"1843","8700.536"
"1844","8708.456"
"1845","8673.338"
"1846","8637.567"
"1847","8639.479"
"1848","8666.131"
"1849","8682.481"
"1850","8669.683"
"1851","8643.54"
"1852","8623.415"
"1853","8616.217"
"1854","8619.868"
"1855","8630.868"
"1856","8641.314"
"1857","8642.333"
"1858","8626.716"
"1859","8589.158"
"1860","8529.477"
"1861","8478.077"
"1862","8476.634"
"1863","8532.219"
"1864","8589.336"
"1865","8591.389"
"1866","8540.456"
"1867","8473.617"
"1868","8420.461"
"1869","8387.946"
"1870","8378.899"
"1871","8392.772"
"1872","8425.96"
"1873","8472.087"
"1874","8513.089"
"1875","8528.099"
"1876","8514.262"
"1877","8492.293"
"1878","8481.34"
"1879","8478.937"
"1880","8473.737"
"1881","8460.598"
"1882","8446.063"
"1883","8437.997"
"1884","8444.329"
"1885","8473.025"
"1886","8518.314"
"1887","8537.906"
"1888","8487.591"
"1889","8391.582"
"1890","8329.801"
"1891","8355.741"
"1892","8417.495"
"1893","8440.761"
"1894","8415.028"
"1895","8399.068"
"1896","8437.589"
"1897","8484.565"
"1898","8466.263"
"1899","8379.048"
"1900","8318.524"
"1901","8367.4"
"1902","8465.534"
"1903","8493.101"
"1904","8410.488"
"1905","8323.604"
"1906","8338.891"
"1907","8424.553"
"1908","8474.656"
"1909","8434.62"
"1910","8368.123"
"1911","8349.19"
"1912","8378.358"
"1913","8407.532"
"1914","8404.015"
"1915","8380.609"
"1916","8357.354"
"1917","8343.898"
"1918","8341.692"
"1919","8349.187"
"1920","8355.582"
"1921","8348.663"
"1922","8327.417"
"1923","8301.133"
"1924","8275.913"
"1925","8243.744"
"1926","8194.369"
"1927","8148.201"
"1928","8157.73"
"1929","8252.22"
"1930","8349.75"
"1931","8340.534"
"1932","8221.034"
"1933","8110.837"
"1934","8108.868"
"1935","8175.512"
"1936","8229.388"
"1937","8235.916"
"1938","8219.233"
"1939","8203.246"
"1940","8190.273"
"1941","8175.642"
"1942","8162.747"
"1943","8165.659"
"1944","8193.527"
"1945","8223.43"
"1946","8221.748"
"1947","8181.259"
"1948","8130.719"
"1949","8098.38"
"1950","8094.114"
"1951","8120.926"
"1952","8166.583"
"1953","8198.012"
"1954","8186.852"
"1955","8140.901"
"1956","8080.932"
"1957","8033.274"
"1958","8031.676"
"1959","8097.695"
"1960","8182.399"
"1961","8213.885"
"1962","8170.949"
"1963","8097.815"
"1964","8037.602"
"1965","8004.638"
"1966","8003.503"
"1967","8021.712"
"1968","8026.225"
"1969","7993.64"
"1970","7952.303"
"1971","7944.662"
"1972","7978.293"
"1973","8022.332"
"1974","8048.393"
"1975","8047.194"
"1976","8015.013"
"1977","7960.942"
"1978","7906.703"
"1979","7870.012"
"1980","7851.894"
"1981","7849.677"
"1982","7862.488"
"1983","7890.98"
"1984","7928.081"
"1985","7942.889"
"1986","7903.704"
"1987","7832.213"
"1988","7789.03"
"1989","7808.618"
"1990","7856.513"
"1991","7890.502"
"1992","7901.755"
"1993","7901.597"
"1994","7894.824"
"1995","7872.233"
"1996","7826.293"
"1997","7777.189"
"1998","7758.301"
"1999","7777.386"
"2000","7800.082"
"2001","7794.149"
"2002","7765.039"
"2003","7732.391"
"2004","7710.514"
"2005","7706.855"
"2006","7722.967"
"2007","7735.521"
"2008","7715.551"
"2009","7668.531"
"2010","7633.765"
"2011","7633.911"
"2012","7631.213"
"2013","7581.03"
"2014","7519.522"
"2015","7542.142"
"2016","7679.903"
"2017","7806.4"
"2018","7789.896"
"2019","7663.646"
"2020","7548.5"
"2021","7512.267"
"2022","7530.931"
"2023","7571.662"
"2024","7602.775"
"2025","7593.788"
"2026","7542.885"
"2027","7482.602"
"2028","7442.629"
"2029","7432.836"
"2030","7457.154"
"2031","7502.454"
"2032","7541.462"
"2033","7558.657"
"2034","7570.363"
"2035","7594.895"
"2036","7620.049"
"2037","7616.896"
"2038","7579.714"
"2039","7542.608"
"2040","7535.315"
"2041","7539.552"
"2042","7520.693"
"2043","7469.086"
"2044","7402.758"
"2045","7343.714"
"2046","7322.562"
"2047","7367.852"
"2048","7454.762"
"2049","7520.759"
"2050","7523.885"
"2051","7467.505"
"2052","7365.826"
"2053","7269.104"
"2054","7241.928"
"2055","7291.896"
"2056","7353.191"
"2057","7367.668"
"2058","7328.257"
"2059","7242.936"
"2060","7153.742"
"2061","7129.098"
"2062","7190.717"
"2063","7252.839"
"2064","7229.463"
"2065","7145.702"
"2066","7076.169"
"2067","7058.088"
"2068","7079.568"
"2069","7122.517"
"2070","7157.56"
"2071","7154.606"
"2072","7114.745"
"2073","7062.336"
"2074","7024.014"
"2075","7029.844"
"2076","7098.004"
"2077","7164.227"
"2078","7133.918"
"2079","7018.408"
"2080","6950.961"
"2081","7020.778"
"2082","7147.479"
"2083","7222.981"
"2084","7224.789"
"2085","7183.594"
"2086","7126.493"
"2087","7073.029"
"2088","7038.441"
"2089","7019.505"
"2090","7007.38"
"2091","6997.252"
"2092","6987.883"
"2093","6978.478"
"2094","6969.043"
"2095","6960.186"
"2096","6956.092"
"2097","6962.218"
"2098","6972.724"
"2099","6968.188"
"2100","6937.481"
"2101","6899.851"
"2102","6879.198"
"2103","6881.256"
"2104","6900.667"
"2105","6915.652"
"2106","6879.202"
"2107","6767.001"
"2108","6663.915"
"2109","6675.448"
"2110","6770.921"
"2111","6818.217"
"2112","6765.144"
"2113","6718.743"
"2114","6774.144"
"2115","6860.501"
"2116","6856.799"
"2117","6764.82"
"2118","6696.094"
"2119","6712.191"
"2120","6751.028"
"2121","6744.633"
"2122","6699.922"
"2123","6653.205"
"2124","6628.876"
"2125","6639.059"
"2126","6680.584"
"2127","6712.086"
"2128","6692.331"
"2129","6626.867"
"2130","6542.256"
"2131","6470.487"
"2132","6449.424"
"2133","6493.092"
"2134","6547.932"
"2135","6556.393"
"2136","6522.88"
"2137","6480.466"
"2138","6448.916"
"2139","6432.491"
"2140","6430.892"
"2141","6433.196"
"2142","6428.084"
"2143","6416.372"
"2144","6404.175"
"2145","6385.24"
"2146","6339.214"
"2147","6268.883"
"2148","6243.57"
"2149","6325.556"
"2150","6436.689"
"2151","6439.729"
"2152","6325.277"
"2153","6222.075"
"2154","6214.057"
"2155","6251.151"
"2156","6267.562"
"2157","6236.72"
"2158","6150.445"
"2159","6049.501"
"2160","6022.177"
"2161","6101.494"
"2162","6189.78"
"2163","6192.921"
"2164","6144.206"
"2165","6119.438"
"2166","6136.849"
"2167","6166.073"
"2168","6183.777"
"2169","6183.221"
"2170","6163.038"
"2171","6138.481"
"2172","6127.718"
"2173","6122.502"
"2174","6096.366"
"2175","6037.736"
"2176","5958.878"
"2177","5878.811"
"2178","5833.521"
"2179","5857.718"
"2180","5936.058"
"2181","6025.531"
"2182","6079.128"
"2183","6045.473"
"2184","5915.412"
"2185","5795.978"
"2186","5791.627"
"2187","5855.935"
"2188","5884.844"
"2189","5855.21"
"2190","5817.131"
"2191","5802.111"
"2192","5799.787"
"2193","5797.992"
"2194","5798.7"
"2195","5805.053"
"2196","5787.188"
"2197","5695.622"
"2198","5555.893"
"2199","5496.686"
"2200","5589.299"
"2201","5708.815"
"2202","5715.758"
"2203","5632.406"
"2204","5548.804"
"2205","5505.922"
"2206","5499.118"
"2207","5517.649"
"2208","5542.298"
"2209","5556.538"
"2210","5560.053"
"2211","5556.09"
"2212","5539.427"
"2213","5500.775"
"2214","5463.604"
"2215","5491.384"
"2216","5598.859"
"2217","5669.588"
"2218","5595.322"
"2219","5436.049"
"2220","5307.068"
"2221","5255.027"
"2222","5274.755"
"2223","5329.667"
"2224","5337.904"
"2225","5260.578"
"2226","5206.475"
"2227","5285.79"
"2228","5412.498"
"2229","5424.505"
"2230","5307.068"
"2231","5173.044"
"2232","5101.47"
"2233","5105.67"
"2234","5174.519"
"2235","5232.597"
"2236","5203.035"
"2237","5112.918"
"2238","5036.724"
"2239","5010.747"
"2240","5035.079"
"2241","5081.453"
"2242","5072.577"
"2243","4961.085"
"2244","4831.693"
"2245","4785.843"
"2246","4808.507"
"2247","4831.066"
"2248","4840.324"
"2249","4874.727"
"2250","4921.888"
"2251","4874.835"
"2252","4683.49"
"2253","4537.938"
"2254","4641.121"
"2255","4881.146"
"2256","5011.909"
"2257","4966.954"
"2258","4836.776"
"2259","4691.99"
"2260","4561.897"
"2261","4466.164"
"2262","4405.521"
"2263","4376.534"
"2264","4373.154"
"2265","4386.261"
"2266","4377.993"
"2267","4290.134"
"2268","4127.831"
"2269","3984.807"
"2270","3926.544"
"2271","3927.246"
"2272","3946.455"
"2273","3944.475"
"2274","3886.118"
"2275","3783.498"
"2276","3677.285"
"2277","3601.551"
"2278","3582.361"
"2279","3608.708"
"2280","3596.417"
"2281","3489.553"
"2282","3372.767"
"2283","3345.75"
"2284","3370.341"
"2285","3350.966"
"2286","3271.324"
"2287","3179.458"
"2288","3106.148"
"2289","3054.62"
"2290","3025.146"
"2291","3015.824"
"2292","3013.303"
"2293","2950.346"
"2294","2759.245"
"2295","2527.466"
"2296","2422.135"
"2297","2455.946"
"2298","2491.165"
"2299","2449.05"
"2300","2361.27"
