,"Scan 01080"
"400","23142.02"
"401","23060.16"
"402","22956.99"
"403","22859.29"
"404","22793.62"
"405","22782.33"
"406","22812.69"
"407","22854.33"
"408","22876.95"
"409","22852.86"
"410","22785.88"
"411","22701.67"
"412","22626.17"
"413","22584.17"
"414","22580.87"
"415","22603.2"
"416","22637.47"
"417","22670.26"
"418","22692.51"
"419","22700.62"
"420","22691.32"
"421","22661.45"
"422","22611.69"
"423","22548.97"
"424","22480.71"
"425","22414.28"
"426","22355.3"
"427","22305.85"
"428","22267.48"
"429","22241.8"
"430","22230"
"431","22232.28"
"432","22248.69"
"433","22279.26"
"434","22320.77"
"435","22358.82"
"436","22376.64"
"437","22357.61"
"438","22291.59"
"439","22196.64"
"440","22098.42"
"441","22022.4"
"442","21988.84"
"443","21990.39"
"444","22010.33"
"445","22032.07"
"446","22040.65"
"447","22031.46"
"448","22004.2"
"449","21958.56"
"450","21895.22"
"451","21822.96"
"452","21754.51"
"453","21702.52"
"454","21678.02"
"455","21676.3"
"456","21683.64"
"457","21686.29"
"458","21671.71"
"459","21640.76"
"460","21603.15"
"461","21568.69"
"462","21546.36"
"463","21534.14"
"464","21521.75"
"465","21498.81"
"466","21455.71"
"467","21395.26"
"468","21330.6"
"469","21275.1"
"470","21241.46"
"471","21230.49"
"472","21232.09"
"473","21235.82"
"474","21231.7"
"475","21217.91"
"476","21200.82"
"477","21187.1"
"478","21183.08"
"479","21187.51"
"480","21191.14"
"481","21184.38"
"482","21158.02"
"483","21112.35"
"484","21058.28"
"485","21007.16"
"486","20970.13"
"487","20951.72"
"488","20948.87"
"489","20958.1"
"490","20975.86"
"491","20995.01"
"492","21004.15"
"493","20991.73"
"494","20946.59"
"495","20869.95"
"496","20777.98"
"497","20687.59"
"498","20615.42"
"499","20570.17"
"500","20551.1"
"501","20556.89"
"502","20586.08"
"503","20632.46"
"504","20684.17"
"505","20729.08"
"506","20756.2"
"507","20786.65"
"508","20878.69"
"509","21092.29"
"510","21485.15"
"511","22060.57"
"512","22761.67"
"513","23528.73"
"514","24302.51"
"515","25027.28"
"516","25650.94"
"517","26121.84"
"518","26389.83"
"519","26432.25"
"520","26253.29"
"521","25858.2"
"522","25254.47"
"523","24492.8"
"524","23662.73"
"525","22854.77"
"526","22155.39"
"527","21591.8"
"528","21142.67"
"529","20785.36"
"530","20497.84"
"531","20264.96"
"532","20076.68"
"533","19923.13"
"534","19794.7"
"535","19684.28"
"536","19586.37"
"537","19495.55"
"538","19406.78"
"539","19318.42"
"540","19230.8"
"541","19144.28"
"542","19059.65"
"543","18981.54"
"544","18916.4"
"545","18870.67"
"546","18849.18"
"547","18846.29"
"548","18852.09"
"549","18856.7"
"550","18851.68"
"551","18836.13"
"552","18811.67"
"553","18779.96"
"554","18742.91"
"555","18703.71"
"556","18665.91"
"557","18633.01"
"558","18607.41"
"559","18587.6"
"560","18571.24"
"561","18556.02"
"562","18540.16"
"563","18523.49"
"564","18506.08"
"565","18487.99"
"566","18468.82"
"567","18447.1"
"568","18421.24"
"569","18389.66"
"570","18352.65"
"571","18313.57"
"572","18276.03"
"573","18243.62"
"574","18217.44"
"575","18195.52"
"576","18175.63"
"577","18155.61"
"578","18134.15"
"579","18110.78"
"580","18085.05"
"581","18056.6"
"582","18025.7"
"583","17993.21"
"584","17959.94"
"585","17927.15"
"586","17900"
"587","17885.91"
"588","17892.26"
"589","17923.62"
"590","17965.71"
"591","17996.51"
"592","17994.1"
"593","17944.01"
"594","17866.45"
"595","17791.58"
"596","17749.46"
"597","17758.45"
"598","17799.6"
"599","17846.6"
"600","17873.26"
"601","17864.67"
"602","17830.66"
"603","17784.37"
"604","17738.79"
"605","17702.25"
"606","17675.98"
"607","17660.56"
"608","17656.49"
"609","17661.84"
"610","17672.07"
"611","17682.53"
"612","17688.71"
"613","17687.8"
"614","17678.26"
"615","17658.56"
"616","17628.07"
"617","17593.42"
"618","17564.82"
"619","17552.46"
"620","17563.65"
"621","17591.15"
"622","17623.06"
"623","17647.54"
"624","17655.85"
"625","17649.1"
"626","17630.39"
"627","17602.79"
"628","17570.64"
"629","17540.88"
"630","17520.71"
"631","17517.15"
"632","17530.21"
"633","17550.92"
"634","17569.73"
"635","17577.61"
"636","17573.64"
"637","17563.61"
"638","17553.48"
"639","17548.16"
"640","17543.5"
"641","17530.68"
"642","17500.88"
"643","17448.25"
"644","17381.77"
"645","17314.98"
"646","17261.36"
"647","17229.67"
"648","17215.25"
"649","17211.01"
"650","17209.94"
"651","17207.39"
"652","17202.67"
"653","17195.46"
"654","17185.47"
"655","17172.83"
"656","17158.12"
"657","17141.89"
"658","17125"
"659","17111.18"
"660","17105.88"
"661","17114.59"
"662","17139.85"
"663","17168.34"
"664","17181.29"
"665","17160.02"
"666","17096.88"
"667","17016.95"
"668","16951.29"
"669","16930.51"
"670","16962.74"
"671","17019.07"
"672","17067.25"
"673","17076.45"
"674","17042.74"
"675","16987.29"
"676","16932.13"
"677","16897.44"
"678","16887.22"
"679","16897.09"
"680","16922.59"
"681","16958.61"
"682","16997.01"
"683","17028.91"
"684","17045.44"
"685","17042.95"
"686","17029.51"
"687","17014.73"
"688","17008.02"
"689","17012.22"
"690","17022.34"
"691","17032.96"
"692","17039.03"
"693","17039.59"
"694","17036.33"
"695","17030.98"
"696","17025.38"
"697","17022.02"
"698","17023.57"
"699","17032.7"
"700","17048.74"
"701","17062.59"
"702","17063.85"
"703","17042.41"
"704","16998.6"
"705","16946.06"
"706","16899.29"
"707","16871.59"
"708","16862.32"
"709","16861.67"
"710","16859.69"
"711","16848.42"
"712","16830.11"
"713","16810.26"
"714","16794.35"
"715","16783.57"
"716","16769.1"
"717","16740.64"
"718","16688.41"
"719","16616.56"
"720","16545.29"
"721","16495.62"
"722","16485.88"
"723","16507.98"
"724","16538.95"
"725","16555.73"
"726","16541.48"
"727","16504.9"
"728","16461.22"
"729","16425.55"
"730","16406.47"
"731","16400.48"
"732","16402.85"
"733","16408.93"
"734","16416.14"
"735","16423.67"
"736","16430.77"
"737","16436.49"
"738","16438.48"
"739","16433.89"
"740","16419.83"
"741","16396.26"
"742","16370.78"
"743","16352.26"
"744","16349.29"
"745","16362.19"
"746","16381.22"
"747","16396.06"
"748","16397.58"
"749","16387.62"
"750","16374.07"
"751","16364.85"
"752","16365.67"
"753","16374.16"
"754","16386.13"
"755","16397.42"
"756","16406.69"
"757","16416.96"
"758","16431.59"
"759","16453.41"
"760","16478.72"
"761","16499.38"
"762","16507.16"
"763","16496.25"
"764","16471.41"
"765","16440.39"
"766","16410.86"
"767","16387.29"
"768","16368.5"
"769","16352.69"
"770","16338.24"
"771","16325.87"
"772","16318.07"
"773","16317.38"
"774","16325.53"
"775","16340.23"
"776","16358"
"777","16375.36"
"778","16390.14"
"779","16402.61"
"780","16413.33"
"781","16422.82"
"782","16431.24"
"783","16438.47"
"784","16444.4"
"785","16448.68"
"786","16449.9"
"787","16446.3"
"788","16436.16"
"789","16418.61"
"790","16394.36"
"791","16364.25"
"792","16329.42"
"793","16294.55"
"794","16266.9"
"795","16253.78"
"796","16259.68"
"797","16277.05"
"798","16295.11"
"799","16303.21"
"800","16297.61"
"801","16285.39"
"802","16274.58"
"803","16272.38"
"804","16276.99"
"805","16281.13"
"806","16277.44"
"807","16261.47"
"808","16238.86"
"809","16217.42"
"810","16204.81"
"811","16204.12"
"812","16212.69"
"813","16227.47"
"814","16245.73"
"815","16266.95"
"816","16291.64"
"817","16320.33"
"818","16350.2"
"819","16370.04"
"820","16367.3"
"821","16330.42"
"822","16266.53"
"823","16200.08"
"824","16156.15"
"825","16154.25"
"826","16185"
"827","16229.56"
"828","16269.19"
"829","16291.04"
"830","16292.36"
"831","16271.43"
"832","16227.63"
"833","16172.69"
"834","16125.99"
"835","16107.02"
"836","16126.99"
"837","16170.54"
"838","16216.93"
"839","16245.92"
"840","16249.59"
"841","16233.45"
"842","16203.73"
"843","16166.68"
"844","16128.89"
"845","16097.09"
"846","16077.97"
"847","16074.51"
"848","16082.88"
"849","16098.47"
"850","16116.85"
"851","16135.32"
"852","16152.27"
"853","16166.15"
"854","16176.1"
"855","16183.63"
"856","16190.68"
"857","16199.1"
"858","16208"
"859","16213.7"
"860","16212.43"
"861","16202.05"
"862","16189.26"
"863","16183.65"
"864","16194.72"
"865","16224.08"
"866","16260.97"
"867","16293.51"
"868","16311.13"
"869","16314.8"
"870","16311.39"
"871","16307.87"
"872","16310.37"
"873","16323.22"
"874","16350.42"
"875","16395.17"
"876","16448.86"
"877","16493.84"
"878","16512.2"
"879","16493.65"
"880","16455.04"
"881","16419.37"
"882","16408.95"
"883","16429.25"
"884","16467.59"
"885","16510.35"
"886","16545.53"
"887","16569.37"
"888","16580.79"
"889","16578.82"
"890","16566.46"
"891","16552.64"
"892","16546.72"
"893","16556"
"894","16572.28"
"895","16580.42"
"896","16565.38"
"897","16524.68"
"898","16480.43"
"899","16457.54"
"900","16477.79"
"901","16530.72"
"902","16586.96"
"903","16616.92"
"904","16604.74"
"905","16569.05"
"906","16533.8"
"907","16521.33"
"908","16531.03"
"909","16545.42"
"910","16546.64"
"911","16523.76"
"912","16487.74"
"913","16453.86"
"914","16436.83"
"915","16440.78"
"916","16460.43"
"917","16490.2"
"918","16523.25"
"919","16548.18"
"920","16552.43"
"921","16524.21"
"922","16469.76"
"923","16414.12"
"924","16383.15"
"925","16395.95"
"926","16440.9"
"927","16497.82"
"928","16546.84"
"929","16579.34"
"930","16599.92"
"931","16613.89"
"932","16625.45"
"933","16633"
"934","16633.14"
"935","16622.59"
"936","16603.44"
"937","16584.63"
"938","16575.57"
"939","16583.13"
"940","16600.17"
"941","16614.78"
"942","16615.2"
"943","16598.7"
"944","16574.69"
"945","16553.51"
"946","16543.55"
"947","16542.29"
"948","16543.22"
"949","16539.94"
"950","16530.19"
"951","16517.48"
"952","16505.76"
"953","16498.39"
"954","16495.58"
"955","16496.3"
"956","16499.57"
"957","16503.09"
"958","16502.82"
"959","16494.6"
"960","16475.59"
"961","16450.56"
"962","16426.91"
"963","16411.99"
"964","16408.9"
"965","16415.13"
"966","16427.75"
"967","16444.05"
"968","16462.21"
"969","16480.71"
"970","16498.06"
"971","16512.92"
"972","16524.16"
"973","16530.69"
"974","16530.92"
"975","16520.98"
"976","16496.3"
"977","16452.68"
"978","16396.45"
"979","16345.72"
"980","16319.24"
"981","16330.31"
"982","16368.95"
"983","16419.01"
"984","16464.62"
"985","16496.12"
"986","16510.02"
"987","16503.06"
"988","16475.15"
"989","16437.6"
"990","16404.28"
"991","16388.35"
"992","16391.26"
"993","16404.56"
"994","16419.51"
"995","16430.67"
"996","16442.37"
"997","16460.74"
"998","16490.99"
"999","16526.49"
"1000","16552.44"
"1001","16553.86"
"1002","16525.02"
"1003","16482"
"1004","16444.03"
"1005","16430.33"
"1006","16456.03"
"1007","16508.42"
"1008","16563.35"
"1009","16596.93"
"1010","16601.82"
"1011","16594.4"
"1012","16592.9"
"1013","16612.11"
"1014","16648.13"
"1015","16690.73"
"1016","16729.79"
"1017","16757.58"
"1018","16769.25"
"1019","16760.12"
"1020","16729.49"
"1021","16693.46"
"1022","16672.6"
"1023","16686.31"
"1024","16731.03"
"1025","16781.85"
"1026","16813.05"
"1027","16808.41"
"1028","16781.66"
"1029","16752.39"
"1030","16738.9"
"1031","16741.97"
"1032","16750.13"
"1033","16751.66"
"1034","16740.41"
"1035","16722.94"
"1036","16707.54"
"1037","16702.01"
"1038","16709.61"
"1039","16731.36"
"1040","16768.17"
"1041","16815.98"
"1042","16862.78"
"1043","16895.83"
"1044","16905.02"
"1045","16894.71"
"1046","16874.26"
"1047","16852.88"
"1048","16834.75"
"1049","16818.53"
"1050","16802.64"
"1051","16786.95"
"1052","16776.64"
"1053","16778.03"
"1054","16796.54"
"1055","16824.87"
"1056","16846.57"
"1057","16844.98"
"1058","16814.72"
"1059","16775.03"
"1060","16748.41"
"1061","16753.95"
"1062","16784.92"
"1063","16822.86"
"1064","16849.5"
"1065","16857.7"
"1066","16855.29"
"1067","16851.16"
"1068","16852.05"
"1069","16855.73"
"1070","16857.58"
"1071","16853.08"
"1072","16839.75"
"1073","16816.7"
"1074","16783.08"
"1075","16740.19"
"1076","16694.3"
"1077","16652.4"
"1078","16620.82"
"1079","16601.21"
"1080","16592.99"
"1081","16595.51"
"1082","16605.12"
"1083","16614.25"
"1084","16615.1"
"1085","16603.26"
"1086","16587.45"
"1087","16579.53"
"1088","16590.26"
"1089","16615.78"
"1090","16641.87"
"1091","16654.15"
"1092","16646.26"
"1093","16627.33"
"1094","16608.23"
"1095","16598.23"
"1096","16597.06"
"1097","16601.05"
"1098","16606.48"
"1099","16608.92"
"1100","16603.28"
"1101","16584.39"
"1102","16551.32"
"1103","16514.2"
"1104","16485.05"
"1105","16474.61"
"1106","16483.64"
"1107","16508"
"1108","16543.44"
"1109","16580.98"
"1110","16605.8"
"1111","16602.67"
"1112","16565.48"
"1113","16519.13"
"1114","16495.05"
"1115","16520.71"
"1116","16582.29"
"1117","16641.68"
"1118","16660.99"
"1119","16630.23"
"1120","16580.68"
"1121","16546.96"
"1122","16553.37"
"1123","16583.44"
"1124","16610.64"
"1125","16610.79"
"1126","16587.44"
"1127","16562.3"
"1128","16557.19"
"1129","16578.58"
"1130","16608.58"
"1131","16627.08"
"1132","16619.14"
"1133","16591.42"
"1134","16556.13"
"1135","16525.24"
"1136","16507.16"
"1137","16507.97"
"1138","16533.56"
"1139","16580.42"
"1140","16630.2"
"1141","16663.24"
"1142","16665.88"
"1143","16648.48"
"1144","16627.37"
"1145","16617.49"
"1146","16618.55"
"1147","16620.71"
"1148","16614.19"
"1149","16598.22"
"1150","16584.97"
"1151","16587.61"
"1152","16613.91"
"1153","16652.94"
"1154","16689.75"
"1155","16710.38"
"1156","16710.42"
"1157","16690.46"
"1158","16651.48"
"1159","16603.78"
"1160","16568.91"
"1161","16569.05"
"1162","16613.63"
"1163","16676.91"
"1164","16727.16"
"1165","16737.85"
"1166","16717.96"
"1167","16691.21"
"1168","16680.34"
"1169","16687"
"1170","16693.37"
"1171","16680.99"
"1172","16646.16"
"1173","16614.72"
"1174","16616.13"
"1175","16669.98"
"1176","16749.81"
"1177","16815.72"
"1178","16831.04"
"1179","16797.63"
"1180","16742.5"
"1181","16692.86"
"1182","16664.01"
"1183","16655.04"
"1184","16663.8"
"1185","16686.11"
"1186","16711.65"
"1187","16728.96"
"1188","16728.92"
"1189","16718.32"
"1190","16710.59"
"1191","16718.49"
"1192","16741.68"
"1193","16768.54"
"1194","16787.09"
"1195","16791.19"
"1196","16784.99"
"1197","16773.71"
"1198","16762.21"
"1199","16753.99"
"1200","16752.25"
"1201","16759.56"
"1202","16773.26"
"1203","16788"
"1204","16798.59"
"1205","16802.87"
"1206","16801.72"
"1207","16796.15"
"1208","16787.24"
"1209","16776.18"
"1210","16764.17"
"1211","16752.19"
"1212","16740.32"
"1213","16728.43"
"1214","16716.76"
"1215","16708.9"
"1216","16710.21"
"1217","16725.75"
"1218","16754.33"
"1219","16788.58"
"1220","16820.83"
"1221","16843.76"
"1222","16850.7"
"1223","16835.03"
"1224","16795.1"
"1225","16747.56"
"1226","16713.27"
"1227","16710.03"
"1228","16732.16"
"1229","16763.29"
"1230","16787.64"
"1231","16801.03"
"1232","16809.09"
"1233","16817.74"
"1234","16828.5"
"1235","16836.21"
"1236","16835.17"
"1237","16821.78"
"1238","16798.54"
"1239","16769.08"
"1240","16737.94"
"1241","16715.06"
"1242","16712.2"
"1243","16739.47"
"1244","16788.76"
"1245","16840.43"
"1246","16875.09"
"1247","16884.52"
"1248","16872.82"
"1249","16844.75"
"1250","16809.11"
"1251","16782.44"
"1252","16782.17"
"1253","16817.62"
"1254","16869.91"
"1255","16914.1"
"1256","16928.94"
"1257","16916.92"
"1258","16889.87"
"1259","16859.47"
"1260","16834.69"
"1261","16822.7"
"1262","16830.24"
"1263","16852.91"
"1264","16873.62"
"1265","16874.7"
"1266","16851.6"
"1267","16824.81"
"1268","16817.59"
"1269","16842.36"
"1270","16876.12"
"1271","16888.67"
"1272","16857.26"
"1273","16801.67"
"1274","16756.69"
"1275","16753.6"
"1276","16786.93"
"1277","16829.57"
"1278","16855.09"
"1279","16856.7"
"1280","16846.19"
"1281","16835.97"
"1282","16831.81"
"1283","16829.53"
"1284","16824.17"
"1285","16812.94"
"1286","16798.33"
"1287","16783.63"
"1288","16771.97"
"1289","16765.96"
"1290","16768.03"
"1291","16779.99"
"1292","16799.38"
"1293","16821.97"
"1294","16843.51"
"1295","16858.99"
"1296","16862.94"
"1297","16850.36"
"1298","16826.35"
"1299","16805.65"
"1300","16803.04"
"1301","16816.65"
"1302","16820.81"
"1303","16788.14"
"1304","16714.6"
"1305","16646.63"
"1306","16637.27"
"1307","16715.5"
"1308","16830.7"
"1309","16915.77"
"1310","16918.78"
"1311","16865.86"
"1312","16808.05"
"1313","16790.57"
"1314","16811.46"
"1315","16846.16"
"1316","16870.89"
"1317","16874.42"
"1318","16854.23"
"1319","16808.69"
"1320","16751.97"
"1321","16714.01"
"1322","16724.83"
"1323","16785.25"
"1324","16854.99"
"1325","16890.85"
"1326","16873.63"
"1327","16831.87"
"1328","16799.81"
"1329","16800.89"
"1330","16827.88"
"1331","16868.13"
"1332","16909.59"
"1333","16942.63"
"1334","16958.23"
"1335","16949.83"
"1336","16925.3"
"1337","16897.73"
"1338","16879.07"
"1339","16871.49"
"1340","16872.22"
"1341","16878.24"
"1342","16883.54"
"1343","16880.08"
"1344","16860.48"
"1345","16831.13"
"1346","16810.82"
"1347","16818.23"
"1348","16852.39"
"1349","16888.88"
"1350","16902.18"
"1351","16884.74"
"1352","16857.1"
"1353","16842.22"
"1354","16850.6"
"1355","16867.46"
"1356","16874.85"
"1357","16861.49"
"1358","16833.79"
"1359","16801.17"
"1360","16771.7"
"1361","16748.83"
"1362","16735.02"
"1363","16731.24"
"1364","16731.68"
"1365","16728.56"
"1366","16716.57"
"1367","16705.14"
"1368","16709.14"
"1369","16740.15"
"1370","16783.98"
"1371","16814.37"
"1372","16807.96"
"1373","16771.61"
"1374","16729.8"
"1375","16705.57"
"1376","16699.77"
"1377","16697.37"
"1378","16683.92"
"1379","16660.87"
"1380","16643.46"
"1381","16646.57"
"1382","16665.06"
"1383","16672.98"
"1384","16644.22"
"1385","16580.75"
"1386","16519.21"
"1387","16497.85"
"1388","16524.77"
"1389","16564.12"
"1390","16576.85"
"1391","16548.08"
"1392","16504.47"
"1393","16476.62"
"1394","16479.04"
"1395","16493.93"
"1396","16499.68"
"1397","16483.78"
"1398","16454.93"
"1399","16424.81"
"1400","16401.68"
"1401","16384.43"
"1402","16370.44"
"1403","16360.18"
"1404","16363.6"
"1405","16392.51"
"1406","16450.67"
"1407","16513.52"
"1408","16550.3"
"1409","16540.58"
"1410","16505.15"
"1411","16475.06"
"1412","16473.49"
"1413","16488.76"
"1414","16499.46"
"1415","16488.77"
"1416","16462.43"
"1417","16433.18"
"1418","16411.97"
"1419","16400.11"
"1420","16395.63"
"1421","16395.44"
"1422","16389.83"
"1423","16366.67"
"1424","16318.58"
"1425","16268.88"
"1426","16252.94"
"1427","16297.89"
"1428","16373.73"
"1429","16426.47"
"1430","16411.44"
"1431","16352.12"
"1432","16302.17"
"1433","16306.71"
"1434","16344.38"
"1435","16363.14"
"1436","16319.13"
"1437","16235.68"
"1438","16168.19"
"1439","16164.57"
"1440","16209.57"
"1441","16256.94"
"1442","16265.07"
"1443","16233.13"
"1444","16180.66"
"1445","16126.9"
"1446","16087.35"
"1447","16075.65"
"1448","16101.6"
"1449","16142.76"
"1450","16160.45"
"1451","16122.02"
"1452","16046.47"
"1453","15978.48"
"1454","15957.23"
"1455","15974.98"
"1456","16001.08"
"1457","16008.8"
"1458","16004.03"
"1459","16008.21"
"1460","16038.89"
"1461","16083.07"
"1462","16113.74"
"1463","16107.14"
"1464","16063.69"
"1465","15994.44"
"1466","15912.05"
"1467","15839.68"
"1468","15804.88"
"1469","15828.14"
"1470","15884.73"
"1471","15932.28"
"1472","15936.28"
"1473","15909.28"
"1474","15880.91"
"1475","15875.54"
"1476","15888.77"
"1477","15906.57"
"1478","15915.72"
"1479","15907.12"
"1480","15872.93"
"1481","15811.53"
"1482","15748.89"
"1483","15718.58"
"1484","15742.52"
"1485","15796.3"
"1486","15844.09"
"1487","15859.28"
"1488","15847.66"
"1489","15822.07"
"1490","15794.31"
"1491","15772.84"
"1492","15765.49"
"1493","15773.48"
"1494","15780.24"
"1495","15766.27"
"1496","15723.35"
"1497","15669.4"
"1498","15626.04"
"1499","15605.71"
"1500","15602.46"
"1501","15608.11"
"1502","15616.84"
"1503","15626.84"
"1504","15636.66"
"1505","15644.03"
"1506","15645.46"
"1507","15637.46"
"1508","15620.13"
"1509","15598.08"
"1510","15576.27"
"1511","15561.61"
"1512","15563.04"
"1513","15588.59"
"1514","15627.71"
"1515","15653.37"
"1516","15640.19"
"1517","15594.21"
"1518","15544.5"
"1519","15518"
"1520","15513.5"
"1521","15512.75"
"1522","15499.33"
"1523","15473.44"
"1524","15443.39"
"1525","15417.16"
"1526","15400.03"
"1527","15396.26"
"1528","15408.42"
"1529","15430.86"
"1530","15455.41"
"1531","15474.69"
"1532","15484.36"
"1533","15480.81"
"1534","15463.3"
"1535","15439.6"
"1536","15418.93"
"1537","15406.46"
"1538","15398.13"
"1539","15388.72"
"1540","15375.65"
"1541","15361"
"1542","15347.35"
"1543","15339.93"
"1544","15347.48"
"1545","15378.21"
"1546","15422.46"
"1547","15452.45"
"1548","15441.71"
"1549","15396.38"
"1550","15347.81"
"1551","15325.56"
"1552","15334.22"
"1553","15363.85"
"1554","15403.29"
"1555","15434.1"
"1556","15434.69"
"1557","15390.42"
"1558","15321.3"
"1559","15258.02"
"1560","15224.25"
"1561","15218.8"
"1562","15235.04"
"1563","15262.05"
"1564","15278.35"
"1565","15261"
"1566","15203.98"
"1567","15131.07"
"1568","15068.71"
"1569","15029.32"
"1570","15007.49"
"1571","14996.97"
"1572","14997.02"
"1573","15011.95"
"1574","15045.25"
"1575","15088.97"
"1576","15127.79"
"1577","15148.26"
"1578","15151.27"
"1579","15144.14"
"1580","15132.71"
"1581","15115.46"
"1582","15088.69"
"1583","15055.03"
"1584","15037.27"
"1585","15062.05"
"1586","15131.37"
"1587","15195.4"
"1588","15198.74"
"1589","15134.98"
"1590","15067.39"
"1591","15061.42"
"1592","15113.67"
"1593","15154.46"
"1594","15118.47"
"1595","15023.86"
"1596","14942.82"
"1597","14936.59"
"1598","14983.6"
"1599","15027.16"
"1600","15025.19"
"1601","14999.09"
"1602","14987.26"
"1603","15008.98"
"1604","15032.23"
"1605","15016.9"
"1606","14954.51"
"1607","14890.26"
"1608","14873.21"
"1609","14913.89"
"1610","14980.55"
"1611","15040.32"
"1612","15074.18"
"1613","15072.91"
"1614","15031.85"
"1615","14978.05"
"1616","14952.67"
"1617","14982.81"
"1618","15035.4"
"1619","15061.36"
"1620","15034.37"
"1621","14985.54"
"1622","14954.53"
"1623","14954.81"
"1624","14959.53"
"1625","14939.88"
"1626","14898.04"
"1627","14865.69"
"1628","14872.3"
"1629","14912.82"
"1630","14962"
"1631","14995.73"
"1632","14997.49"
"1633","14953.39"
"1634","14863.77"
"1635","14773.4"
"1636","14735.27"
"1637","14767.66"
"1638","14826.44"
"1639","14862.2"
"1640","14857.61"
"1641","14829.54"
"1642","14796.02"
"1643","14769.74"
"1644","14759.99"
"1645","14773.01"
"1646","14797.63"
"1647","14816.44"
"1648","14815.42"
"1649","14791.1"
"1650","14742.18"
"1651","14677"
"1652","14620.62"
"1653","14598.83"
"1654","14615.86"
"1655","14654.65"
"1656","14697.02"
"1657","14723.49"
"1658","14713.83"
"1659","14655.73"
"1660","14575.83"
"1661","14512.58"
"1662","14491.63"
"1663","14506.03"
"1664","14543.69"
"1665","14588.82"
"1666","14620.58"
"1667","14619.55"
"1668","14592.93"
"1669","14568.33"
"1670","14569.26"
"1671","14587.94"
"1672","14603.67"
"1673","14599.64"
"1674","14572.13"
"1675","14520.32"
"1676","14457.03"
"1677","14418.58"
"1678","14441.27"
"1679","14512.65"
"1680","14575.35"
"1681","14578.67"
"1682","14540.75"
"1683","14513.36"
"1684","14532.03"
"1685","14568.6"
"1686","14579.72"
"1687","14547.88"
"1688","14504.91"
"1689","14486.8"
"1690","14496.94"
"1691","14506.39"
"1692","14488.77"
"1693","14451.95"
"1694","14421.29"
"1695","14415.76"
"1696","14428.78"
"1697","14447.51"
"1698","14461.62"
"1699","14465.5"
"1700","14454.54"
"1701","14434.08"
"1702","14418.85"
"1703","14421.46"
"1704","14434.52"
"1705","14441.23"
"1706","14432.76"
"1707","14428.43"
"1708","14453.4"
"1709","14510.64"
"1710","14566.71"
"1711","14586.37"
"1712","14560.85"
"1713","14502.77"
"1714","14426.97"
"1715","14358.13"
"1716","14324.73"
"1717","14338.79"
"1718","14367.18"
"1719","14369.85"
"1720","14336.73"
"1721","14296.21"
"1722","14277.24"
"1723","14287.16"
"1724","14320.08"
"1725","14366.17"
"1726","14399.25"
"1727","14388.79"
"1728","14331.17"
"1729","14274.49"
"1730","14269.78"
"1731","14310.94"
"1732","14340.67"
"1733","14311.39"
"1734","14252.92"
"1735","14226.76"
"1736","14268.4"
"1737","14341.34"
"1738","14397.33"
"1739","14408.06"
"1740","14369.67"
"1741","14283.78"
"1742","14190.02"
"1743","14149.24"
"1744","14200.21"
"1745","14298.02"
"1746","14378.57"
"1747","14406.24"
"1748","14390.28"
"1749","14344.23"
"1750","14285.48"
"1751","14234.21"
"1752","14206.83"
"1753","14201.68"
"1754","14211.7"
"1755","14231"
"1756","14255.93"
"1757","14282.79"
"1758","14303.25"
"1759","14305.09"
"1760","14280.06"
"1761","14242.9"
"1762","14216.39"
"1763","14212.5"
"1764","14219.59"
"1765","14223.55"
"1766","14223.24"
"1767","14229.54"
"1768","14250.05"
"1769","14269.39"
"1770","14263.41"
"1771","14225.99"
"1772","14193.19"
"1773","14205.04"
"1774","14255.76"
"1775","14295.48"
"1776","14281.63"
"1777","14230.19"
"1778","14180.06"
"1779","14157.94"
"1780","14161.73"
"1781","14184.92"
"1782","14214.67"
"1783","14232.14"
"1784","14222.59"
"1785","14197.92"
"1786","14179.96"
"1787","14179"
"1788","14179.83"
"1789","14165.02"
"1790","14138.04"
"1791","14120.63"
"1792","14129.86"
"1793","14154.21"
"1794","14172.61"
"1795","14173.94"
"1796","14166.25"
"1797","14159.38"
"1798","14156.58"
"1799","14156.12"
"1800","14155.89"
"1801","14152.59"
"1802","14142.6"
"1803","14125.41"
"1804","14105.38"
"1805","14087.76"
"1806","14082.28"
"1807","14101.47"
"1808","14147.73"
"1809","14188.13"
"1810","14183.2"
"1811","14135.69"
"1812","14101.3"
"1813","14128.77"
"1814","14185.92"
"1815","14202.52"
"1816","14143.82"
"1817","14065.44"
"1818","14034.43"
"1819","14060.3"
"1820","14099.26"
"1821","14113.74"
"1822","14110.39"
"1823","14110.25"
"1824","14116.55"
"1825","14101.17"
"1826","14037.53"
"1827","13954.82"
"1828","13918.16"
"1829","13965.79"
"1830","14041.4"
"1831","14070.16"
"1832","14033.85"
"1833","13980.71"
"1834","13956.28"
"1835","13961.67"
"1836","13979.64"
"1837","13997.08"
"1838","14009.77"
"1839","14014.77"
"1840","14011.96"
"1841","14003.29"
"1842","13991.69"
"1843","13983.74"
"1844","13986.78"
"1845","14003.68"
"1846","14031.72"
"1847","14066.56"
"1848","14095.23"
"1849","14101.05"
"1850","14078.44"
"1851","14045.4"
"1852","14022.36"
"1853","14020.75"
"1854","14045.52"
"1855","14093.65"
"1856","14133.89"
"1857","14129.67"
"1858","14079.76"
"1859","14023.62"
"1860","13997.34"
"1861","14001.9"
"1862","14025.02"
"1863","14052.23"
"1864","14065.22"
"1865","14047.5"
"1866","14006.2"
"1867","13962.61"
"1868","13934.14"
"1869","13926.81"
"1870","13944.1"
"1871","13979.06"
"1872","14015.45"
"1873","14040.23"
"1874","14056.38"
"1875","14071.01"
"1876","14083.27"
"1877","14081.88"
"1878","14057.75"
"1879","14021.86"
"1880","13993.36"
"1881","13981.62"
"1882","13977.56"
"1883","13971.53"
"1884","13969.32"
"1885","13985.83"
"1886","14024.23"
"1887","14056.15"
"1888","14050.3"
"1889","14014.25"
"1890","13987.2"
"1891","13995.69"
"1892","14015.27"
"1893","14010.64"
"1894","13977.46"
"1895","13945.02"
"1896","13936.89"
"1897","13938.42"
"1898","13923.14"
"1899","13886.57"
"1900","13855.35"
"1901","13853.73"
"1902","13872.56"
"1903","13888.64"
"1904","13888.53"
"1905","13876.56"
"1906","13860.34"
"1907","13860.2"
"1908","13903.23"
"1909","13987.41"
"1910","14044.63"
"1911","14005.47"
"1912","13896.74"
"1913","13808.89"
"1914","13800.77"
"1915","13839.57"
"1916","13878.23"
"1917","13896.08"
"1918","13893.33"
"1919","13873.46"
"1920","13849.02"
"1921","13833.73"
"1922","13825.41"
"1923","13807.23"
"1924","13768.05"
"1925","13721.2"
"1926","13685.51"
"1927","13665.69"
"1928","13651.71"
"1929","13637.83"
"1930","13640.63"
"1931","13681.82"
"1932","13745.9"
"1933","13774.33"
"1934","13723.96"
"1935","13640.92"
"1936","13597.69"
"1937","13613.92"
"1938","13643.06"
"1939","13642.88"
"1940","13617.59"
"1941","13586.85"
"1942","13566.29"
"1943","13566.22"
"1944","13593.55"
"1945","13638.1"
"1946","13683.6"
"1947","13711.91"
"1948","13702.32"
"1949","13642.08"
"1950","13565.4"
"1951","13522.67"
"1952","13532.41"
"1953","13569.36"
"1954","13606.76"
"1955","13627.79"
"1956","13619.41"
"1957","13581.39"
"1958","13530.76"
"1959","13482.77"
"1960","13435.72"
"1961","13382.57"
"1962","13332.23"
"1963","13314.19"
"1964","13348.44"
"1965","13398.24"
"1966","13409.78"
"1967","13372.38"
"1968","13327.41"
"1969","13310.27"
"1970","13313.08"
"1971","13315.51"
"1972","13306.88"
"1973","13287.16"
"1974","13257.36"
"1975","13220.52"
"1976","13180.02"
"1977","13135.04"
"1978","13080.63"
"1979","13019.48"
"1980","12982.56"
"1981","13004.06"
"1982","13058.54"
"1983","13069.41"
"1984","12993.62"
"1985","12896.63"
"1986","12859.33"
"1987","12886.01"
"1988","12925.09"
"1989","12937.49"
"1990","12919.53"
"1991","12874.83"
"1992","12826.27"
"1993","12808.23"
"1994","12825.9"
"1995","12823.98"
"1996","12750.8"
"1997","12645.77"
"1998","12592.04"
"1999","12622.95"
"2000","12689.58"
"2001","12740.22"
"2002","12753.7"
"2003","12721.04"
"2004","12656.6"
"2005","12604.64"
"2006","12597.95"
"2007","12607.58"
"2008","12588.55"
"2009","12534.83"
"2010","12478.53"
"2011","12442.95"
"2012","12416.33"
"2013","12381.11"
"2014","12340.68"
"2015","12313.88"
"2016","12306.76"
"2017","12294.08"
"2018","12250.39"
"2019","12191.35"
"2020","12154.3"
"2021","12154.36"
"2022","12168.39"
"2023","12175.29"
"2024","12188.96"
"2025","12235.19"
"2026","12299.18"
"2027","12317.61"
"2028","12249.09"
"2029","12152.04"
"2030","12105.61"
"2031","12115.39"
"2032","12126.07"
"2033","12104.66"
"2034","12081.47"
"2035","12089.8"
"2036","12093.29"
"2037","12017.64"
"2038","11858.44"
"2039","11730.87"
"2040","11735.14"
"2041","11815.78"
"2042","11863.94"
"2043","11839.78"
"2044","11779.94"
"2045","11719.1"
"2046","11670.81"
"2047","11642.54"
"2048","11621.51"
"2049","11580.71"
"2050","11516.52"
"2051","11475.36"
"2052","11499.82"
"2053","11559.07"
"2054","11591.21"
"2055","11571.19"
"2056","11521.53"
"2057","11462.59"
"2058","11393.27"
"2059","11308.94"
"2060","11233.09"
"2061","11210.98"
"2062","11253.63"
"2063","11293.04"
"2064","11262.4"
"2065","11186.63"
"2066","11131.14"
"2067","11114.14"
"2068","11092.11"
"2069","11037.16"
"2070","10999.91"
"2071","11043.41"
"2072","11129.71"
"2073","11145.85"
"2074","11049.19"
"2075","10948.9"
"2076","10950.97"
"2077","11010.09"
"2078","11021.87"
"2079","10966.45"
"2080","10921.43"
"2081","10937.23"
"2082","10955.61"
"2083","10904.31"
"2084","10806.97"
"2085","10746.35"
"2086","10754.21"
"2087","10774.21"
"2088","10752.07"
"2089","10688.03"
"2090","10599.96"
"2091","10512.49"
"2092","10456.27"
"2093","10448.42"
"2094","10472.74"
"2095","10508.88"
"2096","10543"
"2097","10564.17"
"2098","10561.81"
"2099","10525.85"
"2100","10457.42"
"2101","10394.74"
"2102","10378.16"
"2103","10388.49"
"2104","10371.6"
"2105","10314.14"
"2106","10266.97"
"2107","10270.25"
"2108","10292.43"
"2109","10285.1"
"2110","10239.78"
"2111","10177.96"
"2112","10124.68"
"2113","10110.32"
"2114","10152.35"
"2115","10193.95"
"2116","10157.51"
"2117","10052.86"
"2118","9967.964"
"2119","9950.073"
"2120","9946.592"
"2121","9903.958"
"2122","9853.594"
"2123","9857.721"
"2124","9902.6"
"2125","9897.109"
"2126","9796.579"
"2127","9686.076"
"2128","9654.83"
"2129","9668.639"
"2130","9641.169"
"2131","9563.736"
"2132","9513.889"
"2133","9540.331"
"2134","9598.254"
"2135","9631.206"
"2136","9619.699"
"2137","9562.278"
"2138","9478.931"
"2139","9414.147"
"2140","9392.547"
"2141","9377.806"
"2142","9330.718"
"2143","9275.563"
"2144","9264.743"
"2145","9293.043"
"2146","9289.427"
"2147","9217.79"
"2148","9149.637"
"2149","9162.199"
"2150","9234.392"
"2151","9301.486"
"2152","9325.499"
"2153","9297.575"
"2154","9220.676"
"2155","9124.58"
"2156","9039.139"
"2157","8965.002"
"2158","8891.868"
"2159","8834.116"
"2160","8830.162"
"2161","8892.772"
"2162","8973.917"
"2163","9023.963"
"2164","9033.897"
"2165","9009.535"
"2166","8961.45"
"2167","8904.201"
"2168","8847.893"
"2169","8793.75"
"2170","8741.067"
"2171","8684.796"
"2172","8620.81"
"2173","8573.873"
"2174","8588.23"
"2175","8663.903"
"2176","8731.36"
"2177","8734.756"
"2178","8691.462"
"2179","8633.519"
"2180","8572.27"
"2181","8507.747"
"2182","8441.059"
"2183","8374.753"
"2184","8315.022"
"2185","8277.744"
"2186","8275.951"
"2187","8292.541"
"2188","8298.166"
"2189","8266.205"
"2190","8172.827"
"2191","8030.867"
"2192","7924.866"
"2193","7920.97"
"2194","7961.884"
"2195","7961.097"
"2196","7904.519"
"2197","7824.591"
"2198","7747.902"
"2199","7691.928"
"2200","7670.198"
"2201","7686.162"
"2202","7734.677"
"2203","7763.192"
"2204","7703.404"
"2205","7586.26"
"2206","7533.882"
"2207","7591.65"
"2208","7649.348"
"2209","7610.512"
"2210","7516.924"
"2211","7443.753"
"2212","7422.518"
"2213","7457.57"
"2214","7508.795"
"2215","7482.29"
"2216","7339.198"
"2217","7190.489"
"2218","7145.86"
"2219","7169.729"
"2220","7179.542"
"2221","7162.255"
"2222","7156.215"
"2223","7169.961"
"2224","7165.351"
"2225","7115.062"
"2226","7038.286"
"2227","6962.983"
"2228","6913.87"
"2229","6911.352"
"2230","6921.921"
"2231","6866.164"
"2232","6732.691"
"2233","6629.721"
"2234","6636.618"
"2235","6686.326"
"2236","6691.125"
"2237","6660.149"
"2238","6646.14"
"2239","6656.284"
"2240","6655.099"
"2241","6617.568"
"2242","6540.892"
"2243","6432.8"
"2244","6331.482"
"2245","6274.452"
"2246","6235.289"
"2247","6159.659"
"2248","6055.477"
"2249","5988.617"
"2250","5980.008"
"2251","5965.934"
"2252","5897.16"
"2253","5808.668"
"2254","5747.471"
"2255","5707.827"
"2256","5661.067"
"2257","5599.896"
"2258","5535.786"
"2259","5482.442"
"2260","5456.131"
"2261","5459.626"
"2262","5451.99"
"2263","5391.314"
"2264","5286.686"
"2265","5165.858"
"2266","5031.892"
"2267","4870.021"
"2268","4703.045"
"2269","4606.375"
"2270","4616.424"
"2271","4657.469"
"2272","4648.083"
"2273","4571.974"
"2274","4436.827"
"2275","4283.873"
"2276","4172.62"
"2277","4102.249"
"2278","4005.56"
"2279","3856.805"
"2280","3719.921"
"2281","3644.404"
"2282","3584.14"
"2283","3483.924"
"2284","3390.223"
"2285","3388.879"
"2286","3458.341"
"2287","3490.503"
"2288","3426.868"
"2289","3284.031"
"2290","3094.214"
"2291","2914.882"
"2292","2800.994"
"2293","2774.187"
"2294","2834.603"
"2295","2873.537"
"2296","2730.741"
"2297","2450.93"
"2298","2277.006"
"2299","2304.372"
"2300","2365.186"
