,"Scan 01067"
"400","12498.72"
"401","12470.85"
"402","12445.54"
"403","12433.26"
"404","12444.4"
"405","12486.75"
"406","12546.49"
"407","12598.92"
"408","12619.41"
"409","12585.96"
"410","12508.41"
"411","12418.69"
"412","12348.95"
"413","12329.71"
"414","12362.26"
"415","12420.72"
"416","12478.3"
"417","12508.96"
"418","12504.22"
"419","12477.26"
"420","12442.53"
"421","12414.19"
"422","12396.93"
"423","12380.16"
"424","12352"
"425","12300.68"
"426","12224.37"
"427","12141.86"
"428","12074.38"
"429","12043.01"
"430","12059.29"
"431","12109.18"
"432","12174.52"
"433","12237.26"
"434","12283.1"
"435","12310.42"
"436","12320.31"
"437","12313.87"
"438","12292.99"
"439","12263.1"
"440","12230.57"
"441","12201.7"
"442","12181.55"
"443","12168.27"
"444","12157.74"
"445","12145.84"
"446","12129.06"
"447","12107.79"
"448","12084.01"
"449","12059.72"
"450","12036.98"
"451","12018.72"
"452","12008.27"
"453","12008.96"
"454","12023.06"
"455","12042.41"
"456","12052.93"
"457","12040.56"
"458","11993.1"
"459","11920.05"
"460","11845.16"
"461","11792.33"
"462","11783.26"
"463","11810.64"
"464","11845.49"
"465","11858.46"
"466","11822.27"
"467","11741.26"
"468","11646.11"
"469","11568.13"
"470","11537.13"
"471","11557.23"
"472","11609.02"
"473","11672.35"
"474","11727.61"
"475","11764.74"
"476","11783.18"
"477","11782.78"
"478","11763.61"
"479","11731.67"
"480","11699.22"
"481","11678.77"
"482","11682.3"
"483","11709.48"
"484","11746.19"
"485","11777.65"
"486","11789.53"
"487","11778.11"
"488","11751.96"
"489","11720.32"
"490","11692.21"
"491","11671.69"
"492","11656.91"
"493","11645.68"
"494","11635.85"
"495","11626.23"
"496","11616.75"
"497","11607.44"
"498","11598.42"
"499","11593.71"
"500","11602.04"
"501","11632.35"
"502","11693.29"
"503","11785.01"
"504","11897.64"
"505","12020.74"
"506","12145.18"
"507","12299.17"
"508","12554.04"
"509","12983.12"
"510","13657.53"
"511","14597.85"
"512","15768.79"
"513","17132.32"
"514","18648.41"
"515","20220.24"
"516","21691.58"
"517","22904.19"
"518","23704.58"
"519","24025.54"
"520","23884.17"
"521","23301.02"
"522","22300.2"
"523","20977.17"
"524","19491.58"
"525","18004.54"
"526","16670.4"
"527","15544.91"
"528","14603.01"
"529","13817.38"
"530","13161.34"
"531","12614.75"
"532","12162.39"
"533","11789.2"
"534","11480.54"
"535","11225.77"
"536","11016.82"
"537","10845.73"
"538","10704.86"
"539","10589.49"
"540","10496.55"
"541","10423.01"
"542","10365.29"
"543","10315.22"
"544","10262.43"
"545","10196.59"
"546","10110.31"
"547","10015.52"
"548","9931.985"
"549","9879.425"
"550","9872.158"
"551","9895.655"
"552","9925.693"
"553","9938.168"
"554","9914.652"
"555","9861.194"
"556","9790.52"
"557","9715.284"
"558","9646.896"
"559","9592.553"
"560","9558.509"
"561","9550.983"
"562","9569.799"
"563","9597.255"
"564","9612.741"
"565","9595.822"
"566","9539.561"
"567","9465.991"
"568","9400.803"
"569","9369.356"
"570","9380.765"
"571","9416.972"
"572","9457.4"
"573","9481.855"
"574","9481.682"
"575","9463.185"
"576","9433.648"
"577","9400.245"
"578","9368.285"
"579","9341.232"
"580","9322.445"
"581","9314.89"
"582","9315.831"
"583","9318.222"
"584","9314.938"
"585","9300.051"
"586","9279.111"
"587","9264.146"
"588","9267.21"
"589","9297.396"
"590","9344.162"
"591","9388.919"
"592","9413.126"
"593","9403.086"
"594","9367.402"
"595","9321.127"
"596","9279.249"
"597","9252.472"
"598","9237.851"
"599","9229.727"
"600","9222.473"
"601","9213.419"
"602","9206.391"
"603","9206.076"
"604","9217.049"
"605","9238.145"
"606","9259.402"
"607","9270.152"
"608","9260.243"
"609","9232.104"
"610","9201.573"
"611","9185.083"
"612","9197.637"
"613","9234.966"
"614","9278.677"
"615","9310.126"
"616","9313.332"
"617","9293.894"
"618","9268.033"
"619","9251.98"
"620","9258.269"
"621","9280.671"
"622","9306.998"
"623","9325.106"
"624","9327.118"
"625","9318.732"
"626","9308.339"
"627","9304.265"
"628","9310.048"
"629","9319.633"
"630","9325.815"
"631","9321.582"
"632","9305.95"
"633","9285.704"
"634","9268.13"
"635","9260.093"
"636","9261.914"
"637","9268.525"
"638","9274.703"
"639","9275.551"
"640","9268.801"
"641","9253.546"
"642","9228.897"
"643","9194.742"
"644","9154.798"
"645","9113.958"
"646","9077.109"
"647","9048.479"
"648","9030.463"
"649","9025.125"
"650","9034.46"
"651","9055.898"
"652","9079.151"
"653","9093.219"
"654","9087.528"
"655","9060.956"
"656","9021.943"
"657","8979.339"
"658","8941.674"
"659","8914.397"
"660","8901.096"
"661","8905.323"
"662","8928.578"
"663","8961.124"
"664","8989.391"
"665","8999.855"
"666","8985.156"
"667","8956.137"
"668","8926.975"
"669","8911.698"
"670","8916.75"
"671","8936.106"
"672","8962.62"
"673","8989.218"
"674","9010.207"
"675","9021.17"
"676","9017.75"
"677","8996.948"
"678","8967.638"
"679","8944.85"
"680","8943.626"
"681","8974.343"
"682","9027.114"
"683","9086.541"
"684","9137.294"
"685","9169.381"
"686","9184.747"
"687","9186.934"
"688","9179.554"
"689","9168.4"
"690","9161.891"
"691","9168.575"
"692","9195.821"
"693","9237.515"
"694","9278.904"
"695","9305.133"
"696","9305.167"
"697","9287.914"
"698","9268.776"
"699","9263.115"
"700","9278.896"
"701","9305.435"
"702","9329.162"
"703","9336.814"
"704","9325.689"
"705","9306.605"
"706","9291.247"
"707","9290.072"
"708","9299.245"
"709","9305.52"
"710","9295.51"
"711","9259.165"
"712","9203.432"
"713","9140.682"
"714","9083.245"
"715","9038.777"
"716","9003.906"
"717","8973.684"
"718","8943.307"
"719","8912.269"
"720","8884.997"
"721","8866.184"
"722","8859.827"
"723","8863.197"
"724","8869.78"
"725","8873.034"
"726","8867.925"
"727","8855.579"
"728","8838.703"
"729","8819.989"
"730","8801.654"
"731","8785.02"
"732","8771.327"
"733","8761.747"
"734","8756.421"
"735","8754.593"
"736","8755.477"
"737","8758.171"
"738","8760.975"
"739","8761.874"
"740","8758.864"
"741","8752.132"
"742","8747.809"
"743","8753.002"
"744","8774.555"
"745","8810.355"
"746","8847.479"
"747","8872.384"
"748","8873.307"
"749","8855.228"
"750","8832.305"
"751","8818.765"
"752","8823.832"
"753","8838.455"
"754","8849.409"
"755","8843.704"
"756","8820.349"
"757","8796.77"
"758","8791.932"
"759","8822.767"
"760","8881.173"
"761","8942.104"
"762","8980.223"
"763","8976.874"
"764","8943.127"
"765","8898.317"
"766","8861.669"
"767","8844.353"
"768","8843.26"
"769","8853.809"
"770","8871.493"
"771","8892.705"
"772","8914.523"
"773","8934.049"
"774","8949.112"
"775","8961.106"
"776","8972.515"
"777","8985.796"
"778","9001.939"
"779","9019.153"
"780","9035.352"
"781","9048.478"
"782","9056.957"
"783","9059.593"
"784","9055.2"
"785","9043.67"
"786","9030.114"
"787","9021.212"
"788","9023.579"
"789","9037.888"
"790","9054.167"
"791","9061.354"
"792","9049.357"
"793","9021.143"
"794","8989.068"
"795","8965.687"
"796","8960.605"
"797","8970.798"
"798","8989.846"
"799","9011.374"
"800","9031.177"
"801","9048.438"
"802","9062.646"
"803","9073.087"
"804","9076.898"
"805","9069.923"
"806","9047.975"
"807","9010.396"
"808","8968.703"
"809","8937.031"
"810","8929.221"
"811","8948.758"
"812","8986.161"
"813","9031.134"
"814","9073.855"
"815","9108.149"
"816","9129.562"
"817","9133.654"
"818","9119.306"
"819","9093.79"
"820","9065.679"
"821","9043.358"
"822","9031.567"
"823","9031.678"
"824","9044.936"
"825","9070.915"
"826","9100.446"
"827","9121.514"
"828","9122.217"
"829","9099.623"
"830","9066.221"
"831","9036.02"
"832","9021.9"
"833","9024.415"
"834","9036.473"
"835","9050.872"
"836","9062.669"
"837","9074.177"
"838","9089.167"
"839","9111.144"
"840","9136.302"
"841","9152.868"
"842","9148.672"
"843","9115.027"
"844","9064.232"
"845","9016.417"
"846","8991.621"
"847","9000.435"
"848","9035.866"
"849","9089.015"
"850","9150.824"
"851","9210.486"
"852","9256.068"
"853","9275.628"
"854","9263.297"
"855","9232.393"
"856","9200.005"
"857","9182.645"
"858","9183.243"
"859","9190.822"
"860","9193.784"
"861","9184.229"
"862","9173.832"
"863","9180.731"
"864","9222.797"
"865","9300.94"
"866","9389.269"
"867","9459.521"
"868","9486.944"
"869","9477.468"
"870","9452.894"
"871","9435.132"
"872","9439.349"
"873","9464.516"
"874","9507.23"
"875","9563.663"
"876","9623.755"
"877","9672.68"
"878","9695.496"
"879","9684.751"
"880","9659.899"
"881","9646.434"
"882","9668.882"
"883","9726.395"
"884","9790.813"
"885","9832.629"
"886","9829.165"
"887","9793.444"
"888","9750.123"
"889","9723.604"
"890","9725.17"
"891","9746.855"
"892","9779.151"
"893","9812.801"
"894","9840.388"
"895","9855.314"
"896","9851.041"
"897","9827.231"
"898","9795.632"
"899","9769.379"
"900","9760.415"
"901","9768.501"
"902","9786.231"
"903","9806.115"
"904","9820.411"
"905","9820.759"
"906","9798.706"
"907","9747.102"
"908","9677.125"
"909","9613.444"
"910","9581.042"
"911","9594.236"
"912","9633.682"
"913","9673.406"
"914","9688.731"
"915","9679.383"
"916","9666.784"
"917","9673.124"
"918","9711.491"
"919","9760.08"
"920","9788.708"
"921","9768.604"
"922","9705.872"
"923","9642.815"
"924","9623.429"
"925","9678.658"
"926","9780.771"
"927","9885.54"
"928","9949.715"
"929","9960.707"
"930","9941.874"
"931","9918.626"
"932","9912.019"
"933","9921.002"
"934","9937.521"
"935","9953.655"
"936","9966.748"
"937","9980.88"
"938","10000.58"
"939","10028.65"
"940","10058.42"
"941","10079.95"
"942","10083.53"
"943","10068.87"
"944","10048.52"
"945","10035.94"
"946","10041.82"
"947","10060.87"
"948","10082.04"
"949","10094.37"
"950","10091.82"
"951","10075.18"
"952","10045.74"
"953","10005.56"
"954","9961.278"
"955","9921.173"
"956","9893.448"
"957","9882.396"
"958","9886.932"
"959","9905.566"
"960","9935.414"
"961","9965.609"
"962","9982.457"
"963","9972.617"
"964","9937.52"
"965","9898.216"
"966","9877.117"
"967","9891.478"
"968","9930.917"
"969","9975.839"
"970","10006.97"
"971","10016.81"
"972","10012.4"
"973","10001.7"
"974","9991.331"
"975","9981.487"
"976","9970.391"
"977","9956.34"
"978","9939.72"
"979","9923.253"
"980","9909.787"
"981","9901.778"
"982","9900.027"
"983","9904.895"
"984","9916.659"
"985","9933.753"
"986","9952.797"
"987","9970.328"
"988","9983.968"
"989","9995.218"
"990","10006.45"
"991","10019.75"
"992","10032.21"
"993","10036.78"
"994","10026.24"
"995","9998.658"
"996","9967.615"
"997","9949.569"
"998","9959.534"
"999","9993.997"
"1000","10036.59"
"1001","10070.69"
"1002","10086.2"
"1003","10088.41"
"1004","10084.81"
"1005","10082.93"
"1006","10089.54"
"1007","10106.5"
"1008","10133.66"
"1009","10170.76"
"1010","10213.03"
"1011","10249.23"
"1012","10267.6"
"1013","10260.03"
"1014","10238.08"
"1015","10220"
"1016","10223.55"
"1017","10250.81"
"1018","10285.39"
"1019","10309.89"
"1020","10312.17"
"1021","10302.69"
"1022","10297.8"
"1023","10312.99"
"1024","10345.56"
"1025","10376.01"
"1026","10384.14"
"1027","10358.97"
"1028","10318.33"
"1029","10285.78"
"1030","10283.13"
"1031","10309.71"
"1032","10349.03"
"1033","10384.31"
"1034","10405.19"
"1035","10415.83"
"1036","10422.43"
"1037","10430.61"
"1038","10440.96"
"1039","10451.5"
"1040","10460.29"
"1041","10465.44"
"1042","10465.29"
"1043","10458.2"
"1044","10443.53"
"1045","10426.29"
"1046","10413.47"
"1047","10411.82"
"1048","10421.57"
"1049","10435.85"
"1050","10447.42"
"1051","10450.93"
"1052","10447.8"
"1053","10440.97"
"1054","10433.27"
"1055","10426.73"
"1056","10422.73"
"1057","10422.66"
"1058","10428.38"
"1059","10442.77"
"1060","10468.86"
"1061","10507.79"
"1062","10546.51"
"1063","10565.51"
"1064","10545.76"
"1065","10489.92"
"1066","10429.88"
"1067","10399.56"
"1068","10422.2"
"1069","10475.71"
"1070","10526.06"
"1071","10540.97"
"1072","10517.03"
"1073","10474.16"
"1074","10432.93"
"1075","10405.81"
"1076","10386.3"
"1077","10365.24"
"1078","10335.01"
"1079","10300.06"
"1080","10270.42"
"1081","10255.88"
"1082","10256.62"
"1083","10260.37"
"1084","10254.01"
"1085","10229.4"
"1086","10197.5"
"1087","10173.83"
"1088","10172.74"
"1089","10192.87"
"1090","10221.73"
"1091","10246.6"
"1092","10259.96"
"1093","10264.25"
"1094","10263.08"
"1095","10259.29"
"1096","10251.56"
"1097","10237.04"
"1098","10213.13"
"1099","10182.31"
"1100","10152.12"
"1101","10130.3"
"1102","10122.25"
"1103","10127.1"
"1104","10142.92"
"1105","10167.3"
"1106","10193.67"
"1107","10213.47"
"1108","10218.38"
"1109","10209.63"
"1110","10200.46"
"1111","10204.91"
"1112","10231.38"
"1113","10269.26"
"1114","10303.89"
"1115","10321.83"
"1116","10322.28"
"1117","10311.84"
"1118","10297.18"
"1119","10282.72"
"1120","10269.59"
"1121","10258.61"
"1122","10250.31"
"1123","10243.84"
"1124","10238.03"
"1125","10231.9"
"1126","10227.13"
"1127","10227.07"
"1128","10235.03"
"1129","10249.64"
"1130","10262.08"
"1131","10262.8"
"1132","10245.66"
"1133","10218.56"
"1134","10193.02"
"1135","10179.99"
"1136","10182.99"
"1137","10200.64"
"1138","10231.46"
"1139","10272.45"
"1140","10318.28"
"1141","10363.44"
"1142","10401.67"
"1143","10424.05"
"1144","10420.92"
"1145","10384.69"
"1146","10330.21"
"1147","10286.32"
"1148","10281.61"
"1149","10319.8"
"1150","10369.02"
"1151","10394.65"
"1152","10374.45"
"1153","10329.23"
"1154","10289.12"
"1155","10280.74"
"1156","10299.05"
"1157","10322.07"
"1158","10328.27"
"1159","10315.41"
"1160","10304.36"
"1161","10317.38"
"1162","10364.77"
"1163","10424.04"
"1164","10467.08"
"1165","10471.11"
"1166","10449.51"
"1167","10430.69"
"1168","10441.57"
"1169","10478.21"
"1170","10508.13"
"1171","10497.94"
"1172","10439.34"
"1173","10374.35"
"1174","10351.09"
"1175","10402.53"
"1176","10490.83"
"1177","10557.47"
"1178","10549.34"
"1179","10477.96"
"1180","10397.01"
"1181","10360.15"
"1182","10385.05"
"1183","10440.16"
"1184","10490.31"
"1185","10510.95"
"1186","10508.86"
"1187","10496.64"
"1188","10486.06"
"1189","10483.25"
"1190","10492.01"
"1191","10515.69"
"1192","10549.54"
"1193","10581.83"
"1194","10600.63"
"1195","10602.43"
"1196","10598.52"
"1197","10601.7"
"1198","10619.48"
"1199","10639.48"
"1200","10644.63"
"1201","10620.99"
"1202","10581.05"
"1203","10550.61"
"1204","10554.48"
"1205","10591.99"
"1206","10637.08"
"1207","10662.7"
"1208","10656.63"
"1209","10635.67"
"1210","10620.02"
"1211","10624.36"
"1212","10641.03"
"1213","10656.74"
"1214","10659.84"
"1215","10653.36"
"1216","10647.91"
"1217","10653.63"
"1218","10668.09"
"1219","10676.47"
"1220","10663.5"
"1221","10626.88"
"1222","10588.41"
"1223","10572.61"
"1224","10594.61"
"1225","10634.97"
"1226","10666.27"
"1227","10665.25"
"1228","10640.25"
"1229","10614"
"1230","10608.2"
"1231","10624.94"
"1232","10649.66"
"1233","10667.46"
"1234","10673.39"
"1235","10677.95"
"1236","10692.88"
"1237","10722.97"
"1238","10752.96"
"1239","10764.07"
"1240","10742.98"
"1241","10706.96"
"1242","10683.71"
"1243","10698.06"
"1244","10742.16"
"1245","10787.63"
"1246","10806.59"
"1247","10794.48"
"1248","10772.32"
"1249","10762.37"
"1250","10777.5"
"1251","10812.49"
"1252","10860.1"
"1253","10910.29"
"1254","10943.42"
"1255","10937.73"
"1256","10878.77"
"1257","10798.61"
"1258","10747.7"
"1259","10771.74"
"1260","10855.74"
"1261","10943.43"
"1262","10979.17"
"1263","10950.41"
"1264","10893.58"
"1265","10847.71"
"1266","10834.71"
"1267","10844.11"
"1268","10861.8"
"1269","10876.29"
"1270","10884.71"
"1271","10885.92"
"1272","10879.45"
"1273","10868.41"
"1274","10857.18"
"1275","10849.99"
"1276","10849"
"1277","10855.24"
"1278","10869.42"
"1279","10886.6"
"1280","10896.55"
"1281","10888.97"
"1282","10863.65"
"1283","10835.39"
"1284","10820.24"
"1285","10827.82"
"1286","10852.41"
"1287","10886.01"
"1288","10920.76"
"1289","10949.35"
"1290","10964.58"
"1291","10961.23"
"1292","10946.76"
"1293","10933.74"
"1294","10933.75"
"1295","10947.07"
"1296","10966.96"
"1297","10986.78"
"1298","11004.8"
"1299","11023.93"
"1300","11047.09"
"1301","11068.2"
"1302","11068.29"
"1303","11027.52"
"1304","10944.87"
"1305","10860.02"
"1306","10817.98"
"1307","10846.21"
"1308","10914.01"
"1309","10978.63"
"1310","11005.57"
"1311","11002.47"
"1312","10990.5"
"1313","10988.54"
"1314","10997.32"
"1315","11008.84"
"1316","11015.58"
"1317","11017.17"
"1318","11018.14"
"1319","11022.97"
"1320","11031.3"
"1321","11038"
"1322","11037.88"
"1323","11032.35"
"1324","11032.1"
"1325","11048.49"
"1326","11081.54"
"1327","11108.81"
"1328","11105.23"
"1329","11061.08"
"1330","11010.42"
"1331","10995.03"
"1332","11041.85"
"1333","11117.25"
"1334","11172.13"
"1335","11167.52"
"1336","11123.75"
"1337","11082.64"
"1338","11081.41"
"1339","11117.79"
"1340","11169.74"
"1341","11215.84"
"1342","11244.87"
"1343","11252.57"
"1344","11235.44"
"1345","11202.98"
"1346","11176.41"
"1347","11176.75"
"1348","11203.75"
"1349","11231.86"
"1350","11234.32"
"1351","11204.72"
"1352","11168.39"
"1353","11153.35"
"1354","11171.27"
"1355","11200.36"
"1356","11214.75"
"1357","11199.27"
"1358","11167.6"
"1359","11138.18"
"1360","11124"
"1361","11118.87"
"1362","11112.33"
"1363","11097.19"
"1364","11081.2"
"1365","11076.41"
"1366","11092.02"
"1367","11120.35"
"1368","11147.45"
"1369","11160.83"
"1370","11159.57"
"1371","11148.15"
"1372","11130.95"
"1373","11110.9"
"1374","11090.09"
"1375","11070.51"
"1376","11053.04"
"1377","11037.76"
"1378","11024.83"
"1379","11015.58"
"1380","11012.43"
"1381","11017.69"
"1382","11029.75"
"1383","11043.04"
"1384","11051.89"
"1385","11054.92"
"1386","11056.04"
"1387","11059.38"
"1388","11062.78"
"1389","11054.89"
"1390","11023.84"
"1391","10972.33"
"1392","10928.13"
"1393","10921.31"
"1394","10961.56"
"1395","11017.75"
"1396","11053.9"
"1397","11050.53"
"1398","11026.55"
"1399","11006.32"
"1400","11004.79"
"1401","11011.6"
"1402","11012.2"
"1403","10999.29"
"1404","10987.87"
"1405","10997.28"
"1406","11036.43"
"1407","11077.67"
"1408","11085.3"
"1409","11037.09"
"1410","10964.57"
"1411","10912.56"
"1412","10914.59"
"1413","10953.68"
"1414","10998.78"
"1415","11024"
"1416","11028.92"
"1417","11020.98"
"1418","11007.72"
"1419","10997.03"
"1420","10996.95"
"1421","11013.15"
"1422","11037.16"
"1423","11055.36"
"1424","11056.08"
"1425","11040.34"
"1426","11014.14"
"1427","10983.64"
"1428","10955.85"
"1429","10938.15"
"1430","10937.15"
"1431","10953.8"
"1432","10986.56"
"1433","11031.96"
"1434","11072.09"
"1435","11082.35"
"1436","11042.96"
"1437","10973.13"
"1438","10910.67"
"1439","10888.36"
"1440","10896.58"
"1441","10904.88"
"1442","10887.27"
"1443","10856.31"
"1444","10843.78"
"1445","10876.95"
"1446","10943.82"
"1447","11012.65"
"1448","11053.57"
"1449","11054.2"
"1450","11010.93"
"1451","10923.98"
"1452","10824.98"
"1453","10761.23"
"1454","10772.33"
"1455","10833.71"
"1456","10889.46"
"1457","10890.66"
"1458","10846.31"
"1459","10792.93"
"1460","10763.35"
"1461","10761.03"
"1462","10775.88"
"1463","10797.74"
"1464","10816.17"
"1465","10820.66"
"1466","10803.3"
"1467","10774.06"
"1468","10750.35"
"1469","10746.77"
"1470","10759.59"
"1471","10777.93"
"1472","10791.54"
"1473","10794.09"
"1474","10780.66"
"1475","10749.46"
"1476","10715.67"
"1477","10700.16"
"1478","10716.46"
"1479","10742.05"
"1480","10743.36"
"1481","10697.7"
"1482","10630.45"
"1483","10580.26"
"1484","10575.38"
"1485","10602.77"
"1486","10639.16"
"1487","10664.98"
"1488","10673.56"
"1489","10661.04"
"1490","10628.54"
"1491","10592.4"
"1492","10571.89"
"1493","10577.23"
"1494","10594.39"
"1495","10605.34"
"1496","10599.5"
"1497","10583.68"
"1498","10567.16"
"1499","10554.86"
"1500","10543.02"
"1501","10526.85"
"1502","10504.7"
"1503","10480.25"
"1504","10457.82"
"1505","10444.54"
"1506","10451.74"
"1507","10490.53"
"1508","10551.98"
"1509","10602.1"
"1510","10606.68"
"1511","10566.37"
"1512","10518.67"
"1513","10501.15"
"1514","10519.33"
"1515","10550.33"
"1516","10570.96"
"1517","10567.08"
"1518","10531.2"
"1519","10458.92"
"1520","10377.22"
"1521","10331.93"
"1522","10361.12"
"1523","10437.01"
"1524","10499.65"
"1525","10499.16"
"1526","10450.82"
"1527","10395.36"
"1528","10365.82"
"1529","10357.41"
"1530","10353.69"
"1531","10342.79"
"1532","10329.91"
"1533","10324.32"
"1534","10331.45"
"1535","10345.66"
"1536","10359.29"
"1537","10367.04"
"1538","10368.93"
"1539","10365.73"
"1540","10361.52"
"1541","10366.05"
"1542","10389.24"
"1543","10424.32"
"1544","10442.41"
"1545","10414.7"
"1546","10350.61"
"1547","10298.35"
"1548","10304.16"
"1549","10358.12"
"1550","10406.87"
"1551","10402.27"
"1552","10361.04"
"1553","10337.59"
"1554","10376.85"
"1555","10453.7"
"1556","10512.93"
"1557","10510.97"
"1558","10462.88"
"1559","10401.85"
"1560","10353.6"
"1561","10317.54"
"1562","10287.36"
"1563","10259.96"
"1564","10240.23"
"1565","10234.23"
"1566","10243.36"
"1567","10260.82"
"1568","10279.05"
"1569","10294.28"
"1570","10307.5"
"1571","10319.59"
"1572","10323.37"
"1573","10304.35"
"1574","10250.76"
"1575","10185.78"
"1576","10155.01"
"1577","10194.28"
"1578","10264.83"
"1579","10294.59"
"1580","10233.54"
"1581","10138.46"
"1582","10098.23"
"1583","10165.34"
"1584","10276.87"
"1585","10347.3"
"1586","10331.43"
"1587","10269.03"
"1588","10210.19"
"1589","10182.06"
"1590","10179.18"
"1591","10193.43"
"1592","10213.09"
"1593","10222.99"
"1594","10209.11"
"1595","10173.12"
"1596","10126.77"
"1597","10082.03"
"1598","10050.76"
"1599","10044.81"
"1600","10070.97"
"1601","10114.41"
"1602","10154.46"
"1603","10177.09"
"1604","10186.06"
"1605","10188.04"
"1606","10186.29"
"1607","10178.34"
"1608","10161.43"
"1609","10140.74"
"1610","10130.1"
"1611","10142.16"
"1612","10167.84"
"1613","10182.74"
"1614","10166.5"
"1615","10130.61"
"1616","10100.66"
"1617","10095.27"
"1618","10103.01"
"1619","10104.45"
"1620","10091.59"
"1621","10085.24"
"1622","10110.25"
"1623","10163.75"
"1624","10200.22"
"1625","10173.3"
"1626","10097.07"
"1627","10043.06"
"1628","10076.46"
"1629","10173.81"
"1630","10259.95"
"1631","10271.51"
"1632","10213.91"
"1633","10116.22"
"1634","10010.04"
"1635","9934.701"
"1636","9930.69"
"1637","9998.888"
"1638","10069.15"
"1639","10066.61"
"1640","9988.018"
"1641","9906.327"
"1642","9890.888"
"1643","9927.822"
"1644","9950.879"
"1645","9908.209"
"1646","9836.206"
"1647","9802.878"
"1648","9848.223"
"1649","9924.805"
"1650","9968.596"
"1651","9949.858"
"1652","9898.177"
"1653","9848.373"
"1654","9819.349"
"1655","9814.261"
"1656","9834.723"
"1657","9873.984"
"1658","9920.573"
"1659","9963.303"
"1660","9992.729"
"1661","9999.927"
"1662","9979.552"
"1663","9935.353"
"1664","9872.739"
"1665","9807.063"
"1666","9767.389"
"1667","9781.071"
"1668","9834.425"
"1669","9882.331"
"1670","9886.762"
"1671","9863.189"
"1672","9849.109"
"1673","9867.048"
"1674","9889.241"
"1675","9877.77"
"1676","9823.357"
"1677","9766.061"
"1678","9748.914"
"1679","9775.859"
"1680","9814.75"
"1681","9835.559"
"1682","9836.915"
"1683","9831.419"
"1684","9829.085"
"1685","9829.546"
"1686","9829.888"
"1687","9823.638"
"1688","9797.524"
"1689","9738.699"
"1690","9661.421"
"1691","9606.813"
"1692","9611.042"
"1693","9657.199"
"1694","9701.316"
"1695","9710.723"
"1696","9698.074"
"1697","9687.073"
"1698","9693.062"
"1699","9715.657"
"1700","9752.398"
"1701","9793.704"
"1702","9823.244"
"1703","9826.369"
"1704","9803.854"
"1705","9763.762"
"1706","9716.628"
"1707","9681.444"
"1708","9678.788"
"1709","9709.604"
"1710","9742.623"
"1711","9745.577"
"1712","9719.401"
"1713","9691.874"
"1714","9686.892"
"1715","9699.015"
"1716","9711.517"
"1717","9712.335"
"1718","9702.354"
"1719","9684.728"
"1720","9665.603"
"1721","9654.947"
"1722","9661.614"
"1723","9679.466"
"1724","9693.155"
"1725","9690.854"
"1726","9676.894"
"1727","9660.042"
"1728","9648.407"
"1729","9648.816"
"1730","9667.052"
"1731","9691.6"
"1732","9695.441"
"1733","9658.979"
"1734","9615.962"
"1735","9621.938"
"1736","9699.806"
"1737","9782.309"
"1738","9788.66"
"1739","9706.014"
"1740","9604.727"
"1741","9553.337"
"1742","9552.797"
"1743","9566.44"
"1744","9567.829"
"1745","9570.426"
"1746","9596.679"
"1747","9647.021"
"1748","9687.178"
"1749","9683.064"
"1750","9644.114"
"1751","9610.4"
"1752","9613.289"
"1753","9639.528"
"1754","9662.728"
"1755","9665.656"
"1756","9648.684"
"1757","9614.778"
"1758","9577.469"
"1759","9559.059"
"1760","9575.276"
"1761","9603.196"
"1762","9606.496"
"1763","9571.992"
"1764","9537.1"
"1765","9543.588"
"1766","9585.134"
"1767","9611"
"1768","9579.847"
"1769","9519.379"
"1770","9483.666"
"1771","9500.583"
"1772","9536.605"
"1773","9551.135"
"1774","9541.191"
"1775","9540.048"
"1776","9574.141"
"1777","9616.729"
"1778","9620.299"
"1779","9564.029"
"1780","9489.73"
"1781","9446.655"
"1782","9450.74"
"1783","9486.424"
"1784","9536.217"
"1785","9578.671"
"1786","9590.9"
"1787","9568.419"
"1788","9547.132"
"1789","9565.625"
"1790","9612.313"
"1791","9631.834"
"1792","9582.08"
"1793","9500.85"
"1794","9452.527"
"1795","9466.591"
"1796","9505.044"
"1797","9524.949"
"1798","9524.813"
"1799","9534.542"
"1800","9573.106"
"1801","9606.899"
"1802","9588.217"
"1803","9513.208"
"1804","9448.193"
"1805","9458.647"
"1806","9530.148"
"1807","9598.935"
"1808","9617.279"
"1809","9595.977"
"1810","9558.483"
"1811","9526.258"
"1812","9518.249"
"1813","9548.025"
"1814","9588.198"
"1815","9592.148"
"1816","9539.57"
"1817","9477.213"
"1818","9459.787"
"1819","9489.543"
"1820","9520.126"
"1821","9513.91"
"1822","9489.775"
"1823","9485.023"
"1824","9511.828"
"1825","9538.022"
"1826","9530.184"
"1827","9493.446"
"1828","9457.785"
"1829","9443.815"
"1830","9438.545"
"1831","9422.245"
"1832","9390.095"
"1833","9354.752"
"1834","9329.387"
"1835","9323.578"
"1836","9345.355"
"1837","9388.684"
"1838","9417.909"
"1839","9397.38"
"1840","9345.784"
"1841","9322.069"
"1842","9366.063"
"1843","9439.739"
"1844","9487.151"
"1845","9487.519"
"1846","9464.477"
"1847","9442.576"
"1848","9432.384"
"1849","9438.412"
"1850","9459.406"
"1851","9481.896"
"1852","9491.664"
"1853","9486.048"
"1854","9470.718"
"1855","9453.52"
"1856","9449.415"
"1857","9473.999"
"1858","9512.598"
"1859","9515.631"
"1860","9446.294"
"1861","9358.305"
"1862","9339.112"
"1863","9418.96"
"1864","9524.567"
"1865","9578.457"
"1866","9574.886"
"1867","9550.886"
"1868","9528.776"
"1869","9487.642"
"1870","9401.9"
"1871","9302.247"
"1872","9269.873"
"1873","9358.192"
"1874","9489.971"
"1875","9553.807"
"1876","9515.039"
"1877","9439.458"
"1878","9391.678"
"1879","9381.487"
"1880","9396.076"
"1881","9424.624"
"1882","9460.198"
"1883","9495.925"
"1884","9521.324"
"1885","9523.791"
"1886","9500.47"
"1887","9474.584"
"1888","9472.065"
"1889","9492.067"
"1890","9511.953"
"1891","9512.217"
"1892","9487.651"
"1893","9437.127"
"1894","9379.761"
"1895","9356.657"
"1896","9396.685"
"1897","9459.762"
"1898","9484.471"
"1899","9450.078"
"1900","9393.501"
"1901","9352.242"
"1902","9337.001"
"1903","9347.103"
"1904","9376.484"
"1905","9409.408"
"1906","9429.646"
"1907","9426.159"
"1908","9390.758"
"1909","9332.038"
"1910","9296.501"
"1911","9330.138"
"1912","9408.383"
"1913","9459.969"
"1914","9441.492"
"1915","9389.771"
"1916","9353.567"
"1917","9350.204"
"1918","9372.134"
"1919","9407.909"
"1920","9435.363"
"1921","9431.08"
"1922","9392.891"
"1923","9338.172"
"1924","9286.344"
"1925","9261.666"
"1926","9287.861"
"1927","9343.574"
"1928","9360.322"
"1929","9293.06"
"1930","9212.258"
"1931","9217.747"
"1932","9312.204"
"1933","9385.736"
"1934","9351.808"
"1935","9272.643"
"1936","9254.384"
"1937","9317.059"
"1938","9372.704"
"1939","9347.836"
"1940","9284.504"
"1941","9262.121"
"1942","9304.709"
"1943","9362.921"
"1944","9389.604"
"1945","9379.204"
"1946","9340.847"
"1947","9289.203"
"1948","9246.47"
"1949","9231.138"
"1950","9236.895"
"1951","9248.658"
"1952","9256.331"
"1953","9256.678"
"1954","9247.719"
"1955","9231.864"
"1956","9213.107"
"1957","9196.313"
"1958","9187.487"
"1959","9191.036"
"1960","9201.952"
"1961","9211.917"
"1962","9209.881"
"1963","9181.296"
"1964","9117.904"
"1965","9045.346"
"1966","8999.646"
"1967","8996.069"
"1968","9024.806"
"1969","9068.954"
"1970","9085.441"
"1971","9025.914"
"1972","8913.312"
"1973","8849.155"
"1974","8904.099"
"1975","9001.074"
"1976","9028.162"
"1977","8967.039"
"1978","8891.526"
"1979","8861.259"
"1980","8869.401"
"1981","8894.579"
"1982","8925.918"
"1983","8961.541"
"1984","8995.988"
"1985","9011.954"
"1986","8991.745"
"1987","8944.475"
"1988","8898.806"
"1989","8875.073"
"1990","8871.146"
"1991","8880.519"
"1992","8887.544"
"1993","8871.136"
"1994","8827.847"
"1995","8790.676"
"1996","8792.545"
"1997","8828.271"
"1998","8874.08"
"1999","8904.966"
"2000","8894.222"
"2001","8824.111"
"2002","8733.45"
"2003","8681.472"
"2004","8683.072"
"2005","8696.296"
"2006","8686.04"
"2007","8666"
"2008","8662.467"
"2009","8670.877"
"2010","8656.35"
"2011","8604.78"
"2012","8575.591"
"2013","8636.028"
"2014","8746.255"
"2015","8787.799"
"2016","8704.265"
"2017","8592.31"
"2018","8558.558"
"2019","8593.678"
"2020","8626.823"
"2021","8625.257"
"2022","8622.095"
"2023","8643.229"
"2024","8631.879"
"2025","8503.354"
"2026","8274.876"
"2027","8085.781"
"2028","8049.234"
"2029","8143.531"
"2030","8312.31"
"2031","8484.171"
"2032","8575.24"
"2033","8543.516"
"2034","8457.438"
"2035","8396.912"
"2036","8379.163"
"2037","8386.585"
"2038","8405.574"
"2039","8430.01"
"2040","8453.058"
"2041","8459.748"
"2042","8432.747"
"2043","8371.103"
"2044","8292.013"
"2045","8213.237"
"2046","8150.994"
"2047","8120.435"
"2048","8126.106"
"2049","8164.952"
"2050","8216.467"
"2051","8223.825"
"2052","8142.5"
"2053","8049.635"
"2054","8072.197"
"2055","8212.867"
"2056","8314.101"
"2057","8256.161"
"2058","8115.173"
"2059","8011.149"
"2060","7979.455"
"2061","7989.593"
"2062","8013.867"
"2063","8035.018"
"2064","8039.053"
"2065","8026.288"
"2066","8003.469"
"2067","7975.256"
"2068","7943.562"
"2069","7912.86"
"2070","7898.414"
"2071","7915.607"
"2072","7942.936"
"2073","7931.587"
"2074","7872.813"
"2075","7843.503"
"2076","7912.114"
"2077","8017.383"
"2078","8048.104"
"2079","7989.766"
"2080","7939.225"
"2081","7962.271"
"2082","8000.444"
"2083","7976.96"
"2084","7899.513"
"2085","7828.083"
"2086","7798.24"
"2087","7802.664"
"2088","7827.752"
"2089","7849.301"
"2090","7840.863"
"2091","7798.383"
"2092","7737.676"
"2093","7672.42"
"2094","7609.354"
"2095","7556.996"
"2096","7544.232"
"2097","7607.363"
"2098","7723.486"
"2099","7798.5"
"2100","7769.018"
"2101","7688.524"
"2102","7630.562"
"2103","7622.44"
"2104","7663.612"
"2105","7732.609"
"2106","7776.055"
"2107","7751.206"
"2108","7674.67"
"2109","7578.783"
"2110","7487.937"
"2111","7420.599"
"2112","7393.993"
"2113","7423.087"
"2114","7511.781"
"2115","7604.837"
"2116","7630.29"
"2117","7584.002"
"2118","7522.535"
"2119","7494.034"
"2120","7522.146"
"2121","7613.412"
"2122","7685.284"
"2123","7624.802"
"2124","7447.127"
"2125","7297.957"
"2126","7274.937"
"2127","7335.162"
"2128","7415.35"
"2129","7468.795"
"2130","7457.804"
"2131","7394.931"
"2132","7348.305"
"2133","7360.967"
"2134","7397.375"
"2135","7411.805"
"2136","7386.494"
"2137","7317.869"
"2138","7235.595"
"2139","7207.393"
"2140","7261.534"
"2141","7307.181"
"2142","7249.583"
"2143","7132.125"
"2144","7060.928"
"2145","7061.729"
"2146","7068.244"
"2147","7035.432"
"2148","6991.751"
"2149","6974.28"
"2150","6988.803"
"2151","7026.211"
"2152","7058.802"
"2153","7038.966"
"2154","6950.321"
"2155","6859.777"
"2156","6833.008"
"2157","6836.15"
"2158","6797.448"
"2159","6720.503"
"2160","6682.481"
"2161","6726.417"
"2162","6810.298"
"2163","6884.058"
"2164","6920.282"
"2165","6902.142"
"2166","6856.782"
"2167","6848.083"
"2168","6888.525"
"2169","6889.405"
"2170","6784.098"
"2171","6665.736"
"2172","6663.265"
"2173","6754.443"
"2174","6812.514"
"2175","6778.148"
"2176","6700.613"
"2177","6630.878"
"2178","6590.989"
"2179","6593.636"
"2180","6625.068"
"2181","6657.033"
"2182","6663.743"
"2183","6622.65"
"2184","6533.646"
"2185","6457.391"
"2186","6451.772"
"2187","6486.137"
"2188","6496.154"
"2189","6467.788"
"2190","6432.505"
"2191","6406.928"
"2192","6375.216"
"2193","6327.743"
"2194","6300.594"
"2195","6337.817"
"2196","6422.923"
"2197","6500.486"
"2198","6520.901"
"2199","6443.578"
"2200","6266.212"
"2201","6099.968"
"2202","6056.435"
"2203","6095.628"
"2204","6115.732"
"2205","6094.875"
"2206","6085.035"
"2207","6105.786"
"2208","6108.477"
"2209","6056.974"
"2210","6003.732"
"2211","6016.591"
"2212","6072.051"
"2213","6093.831"
"2214","6057.846"
"2215","6004.729"
"2216","5968.633"
"2217","5956.756"
"2218","5967.19"
"2219","5970.176"
"2220","5930.12"
"2221","5871.308"
"2222","5861.74"
"2223","5913.242"
"2224","5951.523"
"2225","5920.142"
"2226","5841.943"
"2227","5754.08"
"2228","5684.104"
"2229","5653.761"
"2230","5652.519"
"2231","5642.219"
"2232","5612.146"
"2233","5600.415"
"2234","5630.55"
"2235","5656.44"
"2236","5623.836"
"2237","5538.336"
"2238","5434.559"
"2239","5360.588"
"2240","5376.339"
"2241","5481.151"
"2242","5563.104"
"2243","5528.138"
"2244","5394.523"
"2245","5211.978"
"2246","5071.06"
"2247","5075.146"
"2248","5180.694"
"2249","5207.762"
"2250","5091.895"
"2251","4985.312"
"2252","5005.935"
"2253","5066.217"
"2254","5050.512"
"2255","4981.426"
"2256","4941.208"
"2257","4947.637"
"2258","4962.142"
"2259","4953.496"
"2260","4905.694"
"2261","4810.468"
"2262","4679.875"
"2263","4536.385"
"2264","4443.119"
"2265","4469.574"
"2266","4539.727"
"2267","4471.448"
"2268","4260.628"
"2269","4153.621"
"2270","4277.472"
"2271","4398.911"
"2272","4286.442"
"2273","4020.33"
"2274","3773.084"
"2275","3630.396"
"2276","3623.131"
"2277","3720.139"
"2278","3822.937"
"2279","3843.047"
"2280","3719.459"
"2281","3440.663"
"2282","3170.446"
"2283","3084.812"
"2284","3137.285"
"2285","3185.457"
"2286","3161.192"
"2287","3058.245"
"2288","2927.451"
"2289","2898.82"
"2290","3019.809"
"2291","3107.396"
"2292","2995.464"
"2293","2783.869"
"2294","2638.443"
"2295","2575.467"
"2296","2528.706"
"2297","2449.054"
"2298","2305.597"
"2299","2116.976"
"2300","1984.149"
