,"Scan 01024"
"400","9063.097"
"401","9068.364"
"402","9099.423"
"403","9136.197"
"404","9158.744"
"405","9149.981"
"406","9116.223"
"407","9075.604"
"408","9046.224"
"409","9044.549"
"410","9067.448"
"411","9098.199"
"412","9119.92"
"413","9116.605"
"414","9087.92"
"415","9048.118"
"416","9011.914"
"417","8993.618"
"418","8996.945"
"419","9012.59"
"420","9030.514"
"421","9040.801"
"422","9037.968"
"423","9023.593"
"424","8999.887"
"425","8969.055"
"426","8935.445"
"427","8907.898"
"428","8895.759"
"429","8908.296"
"430","8947.685"
"431","8997.066"
"432","9036.521"
"433","9046.266"
"434","9014.114"
"435","8953.797"
"436","8884.542"
"437","8825.444"
"438","8791.476"
"439","8780.011"
"440","8783.634"
"441","8794.988"
"442","8807.289"
"443","8816.677"
"444","8820.294"
"445","8815.309"
"446","8799.667"
"447","8776.487"
"448","8751.007"
"449","8728.428"
"450","8713.294"
"451","8704.871"
"452","8699.842"
"453","8694.894"
"454","8686.981"
"455","8675.545"
"456","8661.452"
"457","8645.584"
"458","8628.965"
"459","8614.408"
"460","8605.903"
"461","8607.435"
"462","8622.341"
"463","8644.938"
"464","8662.816"
"465","8663.479"
"466","8635.432"
"467","8582.94"
"468","8523.383"
"469","8474.434"
"470","8452.83"
"471","8458.877"
"472","8477.842"
"473","8494.524"
"474","8494.434"
"475","8477.237"
"476","8456.636"
"477","8446.848"
"478","8461.409"
"479","8498.342"
"480","8539.248"
"481","8565.032"
"482","8557.323"
"483","8515.055"
"484","8456.478"
"485","8400.762"
"486","8366.484"
"487","8357.528"
"488","8360.71"
"489","8361.957"
"490","8347.646"
"491","8315.878"
"492","8278.748"
"493","8249.096"
"494","8239.292"
"495","8248.567"
"496","8260.298"
"497","8257.003"
"498","8221.796"
"499","8154.152"
"500","8073.253"
"501","7999.348"
"502","7952.035"
"503","7933.631"
"504","7925.962"
"505","7909.75"
"506","7866.394"
"507","7794.51"
"508","7712.556"
"509","7639.998"
"510","7595.622"
"511","7582.174"
"512","7584.681"
"513","7587.321"
"514","7574.826"
"515","7543.619"
"516","7502.359"
"517","7460.238"
"518","7426.128"
"519","7402.966"
"520","7387.878"
"521","7377.762"
"522","7369.601"
"523","7361.678"
"524","7353.444"
"525","7344.399"
"526","7334.057"
"527","7322.212"
"528","7308.879"
"529","7294.088"
"530","7277.824"
"531","7259.585"
"532","7238.507"
"533","7213.72"
"534","7184.639"
"535","7154.015"
"536","7126.759"
"537","7107.791"
"538","7101.262"
"539","7103.923"
"540","7108.359"
"541","7107.139"
"542","7094.171"
"543","7073.963"
"544","7056.156"
"545","7050.368"
"546","7063.823"
"547","7087.94"
"548","7107.722"
"549","7108.22"
"550","7078.653"
"551","7030.541"
"552","6982.89"
"553","6954.619"
"554","6959.128"
"555","6985.934"
"556","7018.063"
"557","7038.631"
"558","7036.1"
"559","7017.413"
"560","6993.505"
"561","6975.25"
"562","6969.08"
"563","6969.299"
"564","6968.181"
"565","6958.058"
"566","6936.74"
"567","6913.768"
"568","6900.164"
"569","6906.773"
"570","6934.759"
"571","6969.074"
"572","6993.183"
"573","6990.956"
"574","6959.161"
"575","6911.317"
"576","6862.011"
"577","6825.345"
"578","6805.77"
"579","6798.105"
"580","6796.77"
"581","6796.372"
"582","6793.914"
"583","6788.225"
"584","6778.181"
"585","6763.197"
"586","6747.874"
"587","6739.738"
"588","6746.324"
"589","6772.874"
"590","6809.39"
"591","6839.639"
"592","6847.432"
"593","6821.919"
"594","6776.876"
"595","6733.194"
"596","6711.677"
"597","6725.059"
"598","6760.342"
"599","6799.422"
"600","6824.307"
"601","6824.798"
"602","6807.862"
"603","6782.744"
"604","6758.577"
"605","6740.044"
"606","6725.016"
"607","6710.788"
"608","6694.765"
"609","6676.958"
"610","6660.149"
"611","6647.246"
"612","6641.041"
"613","6642.887"
"614","6653.085"
"615","6671.902"
"616","6698.936"
"617","6728.199"
"618","6750.961"
"619","6758.514"
"620","6743.929"
"621","6709.354"
"622","6659.813"
"623","6600.316"
"624","6537.087"
"625","6480.272"
"626","6440.778"
"627","6429.414"
"628","6449.591"
"629","6489.826"
"630","6536.891"
"631","6577.762"
"632","6605.7"
"633","6622.047"
"634","6628.688"
"635","6627.471"
"636","6619.922"
"637","6607.295"
"638","6590.832"
"639","6571.939"
"640","6553.507"
"641","6539.179"
"642","6532.596"
"643","6536.226"
"644","6546.737"
"645","6559.018"
"646","6567.97"
"647","6569.654"
"648","6563.422"
"649","6549.206"
"650","6526.978"
"651","6499.544"
"652","6474.495"
"653","6459.861"
"654","6463.273"
"655","6483.346"
"656","6509.575"
"657","6531.076"
"658","6537.986"
"659","6531.02"
"660","6517.25"
"661","6503.821"
"662","6496.784"
"663","6496.29"
"664","6500.47"
"665","6507.46"
"666","6515.309"
"667","6521.804"
"668","6524.688"
"669","6521.757"
"670","6514.23"
"671","6508.931"
"672","6513.19"
"673","6533.722"
"674","6565.139"
"675","6590.777"
"676","6593.584"
"677","6559.427"
"678","6499.558"
"679","6438.388"
"680","6400.375"
"681","6403.431"
"682","6437.048"
"683","6482.986"
"684","6523.084"
"685","6545.669"
"686","6553.548"
"687","6551.476"
"688","6544.182"
"689","6535.612"
"690","6528.799"
"691","6526.711"
"692","6531.801"
"693","6540.647"
"694","6546.058"
"695","6540.801"
"696","6519.798"
"697","6489.235"
"698","6458.963"
"699","6438.807"
"700","6435.015"
"701","6444.818"
"702","6464.042"
"703","6488.526"
"704","6513.973"
"705","6535.926"
"706","6549.924"
"707","6551.926"
"708","6542.775"
"709","6526.538"
"710","6507.323"
"711","6488.966"
"712","6473.919"
"713","6464.192"
"714","6461.783"
"715","6466.778"
"716","6474.752"
"717","6480.632"
"718","6479.518"
"719","6471.286"
"720","6461.31"
"721","6455.253"
"722","6458.376"
"723","6472.059"
"724","6495.498"
"725","6527.862"
"726","6566.488"
"727","6601.147"
"728","6619.698"
"729","6610.112"
"730","6570.435"
"731","6517.168"
"732","6468.77"
"733","6442.861"
"734","6442.532"
"735","6458.247"
"736","6480.063"
"737","6498.945"
"738","6511.646"
"739","6517.234"
"740","6514.786"
"741","6505.481"
"742","6496.198"
"743","6494.751"
"744","6508.709"
"745","6537.469"
"746","6570.562"
"747","6596.945"
"748","6607.016"
"749","6604.62"
"750","6600.977"
"751","6607.366"
"752","6630.826"
"753","6662.927"
"754","6691.705"
"755","6705.355"
"756","6700.05"
"757","6684.202"
"758","6667.247"
"759","6658.004"
"760","6657.776"
"761","6662.775"
"762","6669.113"
"763","6673.528"
"764","6675.489"
"765","6675.231"
"766","6672.993"
"767","6669.196"
"768","6664.614"
"769","6660.049"
"770","6656.452"
"771","6656.986"
"772","6666.492"
"773","6689.841"
"774","6729.458"
"775","6775.793"
"776","6815.64"
"777","6835.897"
"778","6833.093"
"779","6821.739"
"780","6818.313"
"781","6838.046"
"782","6877.721"
"783","6919.862"
"784","6946.644"
"785","6945.105"
"786","6925.766"
"787","6906.215"
"788","6903.896"
"789","6923.928"
"790","6949.372"
"791","6961.001"
"792","6941.368"
"793","6896.81"
"794","6850.768"
"795","6827.037"
"796","6842.739"
"797","6886.32"
"798","6938.536"
"799","6980.298"
"800","7001.345"
"801","7005.211"
"802","6996.638"
"803","6980.328"
"804","6960.668"
"805","6941.848"
"806","6928.054"
"807","6922.767"
"808","6927.042"
"809","6941.412"
"810","6966.292"
"811","6998.021"
"812","7027.816"
"813","7046.583"
"814","7046.84"
"815","7033.74"
"816","7018.372"
"817","7011.841"
"818","7020.335"
"819","7037.589"
"820","7055.4"
"821","7065.835"
"822","7066.281"
"823","7059.027"
"824","7046.548"
"825","7031.729"
"826","7019.654"
"827","7016.105"
"828","7026.794"
"829","7051.02"
"830","7077.064"
"831","7092.122"
"832","7084.9"
"833","7060.621"
"834","7034.747"
"835","7022.886"
"836","7034.222"
"837","7057.25"
"838","7076.308"
"839","7076.299"
"840","7057.174"
"841","7035.301"
"842","7027.869"
"843","7048.595"
"844","7090.268"
"845","7137.866"
"846","7176.436"
"847","7198.294"
"848","7209.289"
"849","7216.735"
"850","7227.411"
"851","7241.926"
"852","7256.951"
"853","7269.1"
"854","7276.347"
"855","7280.949"
"856","7286.01"
"857","7294.417"
"858","7303.964"
"859","7307.219"
"860","7296.522"
"861","7266.815"
"862","7226.797"
"863","7189.714"
"864","7168.688"
"865","7169.067"
"866","7183.912"
"867","7205.199"
"868","7225.546"
"869","7243.189"
"870","7259.268"
"871","7274.944"
"872","7290.977"
"873","7307.154"
"874","7323.124"
"875","7338.565"
"876","7353.702"
"877","7369.164"
"878","7385.596"
"879","7402.826"
"880","7417.759"
"881","7426.647"
"882","7425.958"
"883","7417.998"
"884","7411.343"
"885","7414.884"
"886","7434.59"
"887","7461.165"
"888","7480.343"
"889","7478.144"
"890","7455.294"
"891","7434.12"
"892","7438.66"
"893","7487.799"
"894","7562.255"
"895","7625.632"
"896","7641.667"
"897","7599.436"
"898","7537.336"
"899","7499.444"
"900","7525.072"
"901","7604.588"
"902","7699.643"
"903","7771.553"
"904","7795.578"
"905","7782.034"
"906","7746.657"
"907","7704.737"
"908","7665.272"
"909","7632.636"
"910","7611.09"
"911","7603.753"
"912","7610.123"
"913","7628.985"
"914","7658.907"
"915","7694.36"
"916","7726.176"
"917","7745.06"
"918","7744.246"
"919","7726.717"
"920","7697.786"
"921","7662.802"
"922","7627.981"
"923","7600.436"
"924","7587.32"
"925","7594.167"
"926","7619.22"
"927","7658.664"
"928","7708.599"
"929","7762.319"
"930","7809.844"
"931","7840.994"
"932","7848.033"
"933","7835.568"
"934","7812.129"
"935","7786.191"
"936","7764.128"
"937","7749.635"
"938","7746.227"
"939","7755.974"
"940","7772.949"
"941","7788.474"
"942","7794.013"
"943","7787.449"
"944","7775.364"
"945","7764.956"
"946","7762.31"
"947","7767.048"
"948","7776.46"
"949","7787.845"
"950","7798.817"
"951","7807.441"
"952","7811.815"
"953","7810.429"
"954","7804.099"
"955","7794.48"
"956","7783.206"
"957","7770.662"
"958","7755.525"
"959","7736.343"
"960","7712.611"
"961","7689.216"
"962","7672.951"
"963","7670.439"
"964","7681.093"
"965","7694.753"
"966","7700.594"
"967","7690.379"
"968","7669.739"
"969","7648.931"
"970","7638.007"
"971","7639.81"
"972","7648.235"
"973","7656.629"
"974","7659.357"
"975","7655.811"
"976","7646.892"
"977","7633.596"
"978","7619.556"
"979","7611.354"
"980","7615.733"
"981","7637.479"
"982","7673.058"
"983","7716.73"
"984","7762.644"
"985","7802.686"
"986","7826.508"
"987","7823.661"
"988","7789.056"
"989","7736.879"
"990","7685.667"
"991","7653.312"
"992","7646.613"
"993","7663.071"
"994","7699.885"
"995","7752.015"
"996","7807.8"
"997","7854.353"
"998","7879.656"
"999","7882.973"
"1000","7871.374"
"1001","7852.098"
"1002","7831.866"
"1003","7816.195"
"1004","7810.426"
"1005","7819.905"
"1006","7847.511"
"1007","7879.54"
"1008","7895.447"
"1009","7875.043"
"1010","7817.032"
"1011","7747.247"
"1012","7693.624"
"1013","7679.086"
"1014","7699.189"
"1015","7740.242"
"1016","7788.63"
"1017","7833.763"
"1018","7868.601"
"1019","7886.299"
"1020","7882.441"
"1021","7862.862"
"1022","7836.106"
"1023","7810.708"
"1024","7794.89"
"1025","7796.585"
"1026","7823.714"
"1027","7877.716"
"1028","7939.603"
"1029","7986.366"
"1030","7997.151"
"1031","7979.401"
"1032","7960.434"
"1033","7967.907"
"1034","8012.122"
"1035","8063.918"
"1036","8088.669"
"1037","8057.378"
"1038","7989.226"
"1039","7927.816"
"1040","7916.495"
"1041","7967.124"
"1042","8041.241"
"1043","8095.852"
"1044","8096.907"
"1045","8060.175"
"1046","8018.621"
"1047","8004.421"
"1048","8027.041"
"1049","8071.058"
"1050","8119.761"
"1051","8158.597"
"1052","8180.642"
"1053","8180.649"
"1054","8154.354"
"1055","8110.999"
"1056","8069.626"
"1057","8049.456"
"1058","8059.196"
"1059","8084.538"
"1060","8108.113"
"1061","8115.181"
"1062","8110.784"
"1063","8108.953"
"1064","8123.518"
"1065","8157.137"
"1066","8197.452"
"1067","8231.039"
"1068","8247.781"
"1069","8251.562"
"1070","8249.951"
"1071","8250.266"
"1072","8255.603"
"1073","8265.637"
"1074","8279.942"
"1075","8295.87"
"1076","8305.594"
"1077","8300.543"
"1078","8274.048"
"1079","8233.945"
"1080","8194.758"
"1081","8170.844"
"1082","8168.597"
"1083","8184.071"
"1084","8212.626"
"1085","8248.845"
"1086","8284.361"
"1087","8310.093"
"1088","8317.398"
"1089","8303.58"
"1090","8270.148"
"1091","8218.749"
"1092","8156.752"
"1093","8102.545"
"1094","8075.79"
"1095","8091.063"
"1096","8133.455"
"1097","8177.445"
"1098","8198.376"
"1099","8191.69"
"1100","8172.648"
"1101","8157.351"
"1102","8156.659"
"1103","8167.476"
"1104","8184.399"
"1105","8202.099"
"1106","8215.865"
"1107","8221.28"
"1108","8214.013"
"1109","8192.867"
"1110","8160.589"
"1111","8120.185"
"1112","8077.224"
"1113","8045.986"
"1114","8042.612"
"1115","8080.438"
"1116","8143.942"
"1117","8200.633"
"1118","8218.251"
"1119","8189.465"
"1120","8143.778"
"1121","8113.683"
"1122","8122.007"
"1123","8153.415"
"1124","8183.161"
"1125","8188.638"
"1126","8172.739"
"1127","8155.012"
"1128","8155.113"
"1129","8180.163"
"1130","8217.291"
"1131","8251.833"
"1132","8271.479"
"1133","8273.76"
"1134","8258.748"
"1135","8227.276"
"1136","8189.277"
"1137","8160.748"
"1138","8157.605"
"1139","8182.996"
"1140","8219.916"
"1141","8249.58"
"1142","8257.162"
"1143","8243.683"
"1144","8214.091"
"1145","8173.544"
"1146","8129.442"
"1147","8090.568"
"1148","8065.627"
"1149","8057.779"
"1150","8062.231"
"1151","8073.573"
"1152","8087.656"
"1153","8104.724"
"1154","8125.963"
"1155","8152.296"
"1156","8182.215"
"1157","8212.921"
"1158","8241.553"
"1159","8263.674"
"1160","8272.966"
"1161","8263.003"
"1162","8233.078"
"1163","8198.209"
"1164","8176.099"
"1165","8181.563"
"1166","8209.767"
"1167","8247.715"
"1168","8282.604"
"1169","8306.258"
"1170","8314.76"
"1171","8304.4"
"1172","8277.476"
"1173","8248.349"
"1174","8232.846"
"1175","8242.394"
"1176","8267.858"
"1177","8294.098"
"1178","8307.123"
"1179","8306.697"
"1180","8301.566"
"1181","8300.498"
"1182","8306.036"
"1183","8312.211"
"1184","8312.434"
"1185","8304.071"
"1186","8296.25"
"1187","8300.25"
"1188","8324.911"
"1189","8362.322"
"1190","8397.585"
"1191","8416.51"
"1192","8418.271"
"1193","8413.678"
"1194","8413.862"
"1195","8424.338"
"1196","8440.719"
"1197","8457.6"
"1198","8470.131"
"1199","8475.543"
"1200","8471.562"
"1201","8456.774"
"1202","8437.112"
"1203","8422.195"
"1204","8421.333"
"1205","8435.935"
"1206","8459.534"
"1207","8485.328"
"1208","8506.719"
"1209","8517.552"
"1210","8511.71"
"1211","8488.033"
"1212","8465.442"
"1213","8467.947"
"1214","8514.71"
"1215","8582.366"
"1216","8625.548"
"1217","8600.952"
"1218","8516.628"
"1219","8431.383"
"1220","8405.866"
"1221","8462.212"
"1222","8550.542"
"1223","8613.054"
"1224","8609.012"
"1225","8560.773"
"1226","8505.251"
"1227","8475.521"
"1228","8475.508"
"1229","8495.824"
"1230","8527.17"
"1231","8563.049"
"1232","8599.343"
"1233","8631.993"
"1234","8655.96"
"1235","8664.717"
"1236","8651.606"
"1237","8617.575"
"1238","8585.289"
"1239","8581.287"
"1240","8625.261"
"1241","8699.03"
"1242","8771.418"
"1243","8813.587"
"1244","8823.331"
"1245","8815.159"
"1246","8803.52"
"1247","8793.985"
"1248","8782.377"
"1249","8764.06"
"1250","8739.407"
"1251","8718.419"
"1252","8712.187"
"1253","8726.607"
"1254","8749.604"
"1255","8765.202"
"1256","8760.845"
"1257","8745.903"
"1258","8738.382"
"1259","8754.824"
"1260","8792.962"
"1261","8837.732"
"1262","8874.055"
"1263","8894.058"
"1264","8898.083"
"1265","8886.939"
"1266","8864.477"
"1267","8840.317"
"1268","8824.731"
"1269","8824.289"
"1270","8833.473"
"1271","8844.306"
"1272","8849.372"
"1273","8844.449"
"1274","8826.434"
"1275","8793.506"
"1276","8756.919"
"1277","8735.631"
"1278","8747.556"
"1279","8786.488"
"1280","8823.454"
"1281","8828.971"
"1282","8795.323"
"1283","8747.379"
"1284","8712.663"
"1285","8708.409"
"1286","8727.13"
"1287","8757.708"
"1288","8790.797"
"1289","8824.035"
"1290","8856.779"
"1291","8887.664"
"1292","8910.614"
"1293","8917.67"
"1294","8902.05"
"1295","8870.26"
"1296","8837.127"
"1297","8817.247"
"1298","8817.473"
"1299","8837.287"
"1300","8875.731"
"1301","8924.385"
"1302","8964.186"
"1303","8975.295"
"1304","8949.556"
"1305","8904.021"
"1306","8859.041"
"1307","8831.712"
"1308","8828.331"
"1309","8852.964"
"1310","8905.507"
"1311","8964.499"
"1312","9001.644"
"1313","8992.933"
"1314","8948.777"
"1315","8896.103"
"1316","8860.634"
"1317","8850.985"
"1318","8863.828"
"1319","8895.382"
"1320","8937.145"
"1321","8975.918"
"1322","8998.521"
"1323","9002.523"
"1324","9000.617"
"1325","9006.575"
"1326","9025.181"
"1327","9043.329"
"1328","9045.797"
"1329","9025.879"
"1330","9001.065"
"1331","8993.114"
"1332","9016.004"
"1333","9051.915"
"1334","9074.925"
"1335","9064.144"
"1336","9028.248"
"1337","8986.617"
"1338","8957.256"
"1339","8946.172"
"1340","8953.371"
"1341","8978.216"
"1342","9012.682"
"1343","9043.715"
"1344","9058.758"
"1345","9056.857"
"1346","9047.559"
"1347","9040.589"
"1348","9038.849"
"1349","9037.076"
"1350","9029.567"
"1351","9012.265"
"1352","8983.688"
"1353","8942.625"
"1354","8893.523"
"1355","8852.428"
"1356","8836.784"
"1357","8853.32"
"1358","8879.965"
"1359","8889.854"
"1360","8865.763"
"1361","8824.396"
"1362","8789.939"
"1363","8781.013"
"1364","8790.586"
"1365","8804.255"
"1366","8810.262"
"1367","8812.761"
"1368","8821.795"
"1369","8844.919"
"1370","8870.272"
"1371","8876.903"
"1372","8846.884"
"1373","8793.639"
"1374","8748.844"
"1375","8741.619"
"1376","8763.554"
"1377","8779.443"
"1378","8755.7"
"1379","8698.569"
"1380","8648.721"
"1381","8646.499"
"1382","8695.376"
"1383","8760.57"
"1384","8806.092"
"1385","8816.444"
"1386","8801.447"
"1387","8772.46"
"1388","8739.261"
"1389","8709.32"
"1390","8689.886"
"1391","8684.81"
"1392","8692.132"
"1393","8709.298"
"1394","8731.588"
"1395","8749.95"
"1396","8754.836"
"1397","8744.475"
"1398","8735.177"
"1399","8745.807"
"1400","8783.687"
"1401","8825.104"
"1402","8841.181"
"1403","8815.399"
"1404","8769.401"
"1405","8732.176"
"1406","8724.31"
"1407","8736.827"
"1408","8754.256"
"1409","8763.596"
"1410","8761.722"
"1411","8747.949"
"1412","8724.478"
"1413","8706.292"
"1414","8711.947"
"1415","8753.026"
"1416","8806.639"
"1417","8839.266"
"1418","8825.181"
"1419","8781.064"
"1420","8737.935"
"1421","8721.892"
"1422","8729.709"
"1423","8747.405"
"1424","8762.514"
"1425","8772.396"
"1426","8778.297"
"1427","8781.725"
"1428","8785.972"
"1429","8795.073"
"1430","8812.212"
"1431","8834.315"
"1432","8855.537"
"1433","8870.378"
"1434","8876.057"
"1435","8871.051"
"1436","8855.408"
"1437","8841.585"
"1438","8847.975"
"1439","8889.771"
"1440","8955.466"
"1441","9020.465"
"1442","9062.005"
"1443","9073.623"
"1444","9056.976"
"1445","9015.541"
"1446","8967.679"
"1447","8939.236"
"1448","8951.502"
"1449","8986.594"
"1450","9006.952"
"1451","8980.454"
"1452","8921.826"
"1453","8869.127"
"1454","8855.657"
"1455","8874.142"
"1456","8897.48"
"1457","8901.212"
"1458","8883.035"
"1459","8851.204"
"1460","8813.961"
"1461","8778.974"
"1462","8753.643"
"1463","8743.75"
"1464","8743.33"
"1465","8741.247"
"1466","8728.018"
"1467","8705.619"
"1468","8680.805"
"1469","8658.92"
"1470","8636.212"
"1471","8605.363"
"1472","8560.688"
"1473","8506.149"
"1474","8449.233"
"1475","8397.373"
"1476","8357.718"
"1477","8337.324"
"1478","8339.919"
"1479","8352.926"
"1480","8358.77"
"1481","8344.084"
"1482","8314.18"
"1483","8279.521"
"1484","8248.566"
"1485","8221.797"
"1486","8197.729"
"1487","8174.423"
"1488","8148.349"
"1489","8115.63"
"1490","8077.581"
"1491","8051.47"
"1492","8057.618"
"1493","8104.438"
"1494","8168.339"
"1495","8220.44"
"1496","8240.475"
"1497","8228.255"
"1498","8186.515"
"1499","8126.77"
"1500","8078.161"
"1501","8071.648"
"1502","8112.031"
"1503","8158.956"
"1504","8168.148"
"1505","8126.442"
"1506","8066.514"
"1507","8024.102"
"1508","8011.725"
"1509","8012.847"
"1510","8009.596"
"1511","7997.306"
"1512","7985.259"
"1513","7982.747"
"1514","7986.904"
"1515","7984.106"
"1516","7961.785"
"1517","7927.375"
"1518","7902.99"
"1519","7908.709"
"1520","7939.234"
"1521","7973.976"
"1522","7994.407"
"1523","8000.626"
"1524","8001.838"
"1525","8004.688"
"1526","7999.24"
"1527","7969.084"
"1528","7905.216"
"1529","7834.968"
"1530","7796.804"
"1531","7814.899"
"1532","7859.28"
"1533","7887.168"
"1534","7870.707"
"1535","7825.443"
"1536","7774.745"
"1537","7738.382"
"1538","7728.034"
"1539","7754.106"
"1540","7811.213"
"1541","7866.846"
"1542","7886.365"
"1543","7858.097"
"1544","7800.754"
"1545","7735.053"
"1546","7679.481"
"1547","7650.253"
"1548","7661.938"
"1549","7705.482"
"1550","7753.584"
"1551","7781.078"
"1552","7789.512"
"1553","7795.966"
"1554","7814.279"
"1555","7834.075"
"1556","7834.577"
"1557","7801.682"
"1558","7754.649"
"1559","7723.069"
"1560","7725.66"
"1561","7742.995"
"1562","7747.313"
"1563","7725.06"
"1564","7697.829"
"1565","7692.382"
"1566","7718.462"
"1567","7755.798"
"1568","7781.386"
"1569","7785.444"
"1570","7774.909"
"1571","7757.42"
"1572","7733.321"
"1573","7696.356"
"1574","7641.691"
"1575","7583.803"
"1576","7549.565"
"1577","7560.996"
"1578","7602.735"
"1579","7642.776"
"1580","7655.546"
"1581","7646.888"
"1582","7632.085"
"1583","7623.369"
"1584","7623.264"
"1585","7632.367"
"1586","7648.994"
"1587","7666.667"
"1588","7678.356"
"1589","7680.137"
"1590","7672.486"
"1591","7656.378"
"1592","7636.286"
"1593","7620.03"
"1594","7614.625"
"1595","7615.899"
"1596","7612.436"
"1597","7595.713"
"1598","7578.184"
"1599","7581.213"
"1600","7617.497"
"1601","7662.338"
"1602","7681.011"
"1603","7655.39"
"1604","7611.734"
"1605","7583.442"
"1606","7585.406"
"1607","7601.064"
"1608","7611.402"
"1609","7614.37"
"1610","7626.51"
"1611","7663.412"
"1612","7715.472"
"1613","7755.31"
"1614","7759.538"
"1615","7736.74"
"1616","7709.639"
"1617","7696.82"
"1618","7698.833"
"1619","7711.45"
"1620","7732.773"
"1621","7766.812"
"1622","7818.224"
"1623","7875.452"
"1624","7902.008"
"1625","7861.693"
"1626","7770.179"
"1627","7692.5"
"1628","7688.8"
"1629","7748.919"
"1630","7821.739"
"1631","7862.977"
"1632","7869.154"
"1633","7850.798"
"1634","7822.255"
"1635","7809.654"
"1636","7841.168"
"1637","7920.19"
"1638","8005.636"
"1639","8052.896"
"1640","8047.44"
"1641","8006.749"
"1642","7950.361"
"1643","7903.206"
"1644","7893.612"
"1645","7942.284"
"1646","8025.486"
"1647","8103.541"
"1648","8147.973"
"1649","8165.309"
"1650","8168.771"
"1651","8163.269"
"1652","8139.321"
"1653","8087.101"
"1654","8021.25"
"1655","7980.639"
"1656","7998.856"
"1657","8047.795"
"1658","8064.66"
"1659","8004.84"
"1660","7914.459"
"1661","7867.173"
"1662","7902.146"
"1663","7970.849"
"1664","8011.755"
"1665","7998.043"
"1666","7950.847"
"1667","7894.227"
"1668","7843.119"
"1669","7805.477"
"1670","7788.362"
"1671","7794.003"
"1672","7822.63"
"1673","7864.608"
"1674","7877.475"
"1675","7812.429"
"1676","7666.234"
"1677","7514.088"
"1678","7435.538"
"1679","7439.74"
"1680","7470.875"
"1681","7477.199"
"1682","7460.758"
"1683","7449.815"
"1684","7462.181"
"1685","7474.475"
"1686","7453.532"
"1687","7387.763"
"1688","7306.813"
"1689","7244.164"
"1690","7214.023"
"1691","7211.516"
"1692","7230.127"
"1693","7256.343"
"1694","7273.068"
"1695","7265.193"
"1696","7225.623"
"1697","7149.367"
"1698","7048.516"
"1699","6967.212"
"1700","6951.026"
"1701","6999.91"
"1702","7070.573"
"1703","7121.777"
"1704","7142.345"
"1705","7135.245"
"1706","7105.483"
"1707","7064.811"
"1708","7026.438"
"1709","7001.478"
"1710","6997.575"
"1711","7020.762"
"1712","7055.967"
"1713","7071.052"
"1714","7041.177"
"1715","6990.43"
"1716","6961.751"
"1717","6977.53"
"1718","7003.644"
"1719","6997.246"
"1720","6950.268"
"1721","6899.204"
"1722","6880.221"
"1723","6893.586"
"1724","6917.538"
"1725","6932.795"
"1726","6932.545"
"1727","6913.445"
"1728","6878.926"
"1729","6845.432"
"1730","6830.004"
"1731","6832.25"
"1732","6836.152"
"1733","6827.867"
"1734","6811.864"
"1735","6800.105"
"1736","6800.284"
"1737","6808.268"
"1738","6817.988"
"1739","6826.524"
"1740","6834.817"
"1741","6843.497"
"1742","6848.036"
"1743","6841.019"
"1744","6818.932"
"1745","6792.955"
"1746","6777.565"
"1747","6776.834"
"1748","6778.439"
"1749","6769.534"
"1750","6749.689"
"1751","6727.224"
"1752","6709.18"
"1753","6695.657"
"1754","6684.729"
"1755","6678.314"
"1756","6685.665"
"1757","6715.854"
"1758","6760.719"
"1759","6797.744"
"1760","6807.088"
"1761","6786.65"
"1762","6740.561"
"1763","6682.986"
"1764","6649.947"
"1765","6677.712"
"1766","6748.408"
"1767","6794.144"
"1768","6759.19"
"1769","6675.52"
"1770","6608.624"
"1771","6600.749"
"1772","6639.547"
"1773","6704.357"
"1774","6763.829"
"1775","6776.308"
"1776","6710.692"
"1777","6606.068"
"1778","6529.001"
"1779","6519.756"
"1780","6556.77"
"1781","6609.984"
"1782","6657.226"
"1783","6683.776"
"1784","6678.657"
"1785","6652.044"
"1786","6622.023"
"1787","6601.604"
"1788","6592.565"
"1789","6594.649"
"1790","6597.632"
"1791","6582.585"
"1792","6539.694"
"1793","6509.921"
"1794","6550.905"
"1795","6667.049"
"1796","6759.985"
"1797","6727.984"
"1798","6594.478"
"1799","6477.732"
"1800","6468.024"
"1801","6518.963"
"1802","6546.636"
"1803","6517.577"
"1804","6479.119"
"1805","6480.596"
"1806","6512.72"
"1807","6530.021"
"1808","6505.112"
"1809","6475.455"
"1810","6491.348"
"1811","6556.111"
"1812","6614.271"
"1813","6614.677"
"1814","6569.922"
"1815","6522.514"
"1816","6500.346"
"1817","6493.678"
"1818","6487.48"
"1819","6478.814"
"1820","6475.942"
"1821","6484.987"
"1822","6498.427"
"1823","6504.312"
"1824","6498.961"
"1825","6493.285"
"1826","6498.501"
"1827","6511.904"
"1828","6521.817"
"1829","6519.289"
"1830","6505.265"
"1831","6482.834"
"1832","6455.62"
"1833","6427.89"
"1834","6404.337"
"1835","6392.232"
"1836","6399.875"
"1837","6426.507"
"1838","6452.291"
"1839","6457.06"
"1840","6450.933"
"1841","6466.478"
"1842","6519.717"
"1843","6560.669"
"1844","6525.112"
"1845","6415.1"
"1846","6316.335"
"1847","6306.13"
"1848","6363.099"
"1849","6423.293"
"1850","6445.313"
"1851","6436.21"
"1852","6408.988"
"1853","6373.246"
"1854","6336.13"
"1855","6306.338"
"1856","6298.279"
"1857","6327.028"
"1858","6387.992"
"1859","6453.887"
"1860","6497.788"
"1861","6503.144"
"1862","6457.543"
"1863","6373.581"
"1864","6308.923"
"1865","6318.756"
"1866","6381.039"
"1867","6427.654"
"1868","6416.415"
"1869","6380.332"
"1870","6363.669"
"1871","6372.553"
"1872","6378.923"
"1873","6361.852"
"1874","6337.354"
"1875","6331.16"
"1876","6349.946"
"1877","6375.443"
"1878","6389.466"
"1879","6386.038"
"1880","6364.281"
"1881","6330.622"
"1882","6305.136"
"1883","6306.952"
"1884","6329.16"
"1885","6349.451"
"1886","6352.59"
"1887","6342.784"
"1888","6327.459"
"1889","6314.124"
"1890","6310.354"
"1891","6320.46"
"1892","6336.452"
"1893","6347.627"
"1894","6348.146"
"1895","6337.45"
"1896","6316.621"
"1897","6293.775"
"1898","6279.155"
"1899","6275.706"
"1900","6276.051"
"1901","6271.94"
"1902","6254.749"
"1903","6215.847"
"1904","6163.133"
"1905","6134.362"
"1906","6164.535"
"1907","6233.559"
"1908","6291.777"
"1909","6309.877"
"1910","6305.436"
"1911","6300.643"
"1912","6295.058"
"1913","6273.26"
"1914","6229.697"
"1915","6187.06"
"1916","6171.339"
"1917","6182.904"
"1918","6201.834"
"1919","6212.536"
"1920","6215.865"
"1921","6216.027"
"1922","6215.469"
"1923","6215.013"
"1924","6214.852"
"1925","6212.952"
"1926","6206.812"
"1927","6196.097"
"1928","6182.744"
"1929","6169.485"
"1930","6162.105"
"1931","6166.663"
"1932","6171.161"
"1933","6142.695"
"1934","6060.85"
"1935","5973.432"
"1936","5948.062"
"1937","5998.887"
"1938","6073.01"
"1939","6121.283"
"1940","6138.293"
"1941","6133.299"
"1942","6118.491"
"1943","6109.913"
"1944","6121.617"
"1945","6154.676"
"1946","6205.222"
"1947","6252.553"
"1948","6253.072"
"1949","6174.644"
"1950","6061.196"
"1951","5982.951"
"1952","5965.885"
"1953","5975.22"
"1954","5977.517"
"1955","5972.636"
"1956","5972.124"
"1957","5982.517"
"1958","6003.581"
"1959","6032.057"
"1960","6050.737"
"1961","6038.136"
"1962","5994.075"
"1963","5945.855"
"1964","5917.251"
"1965","5903.999"
"1966","5893.229"
"1967","5886.867"
"1968","5904.684"
"1969","5955.04"
"1970","5987.261"
"1971","5936.151"
"1972","5820.919"
"1973","5753.817"
"1974","5813.33"
"1975","5914.845"
"1976","5935.918"
"1977","5872.016"
"1978","5834.662"
"1979","5895.951"
"1980","5965.848"
"1981","5924.892"
"1982","5790.836"
"1983","5699.145"
"1984","5735.171"
"1985","5817.761"
"1986","5840.671"
"1987","5795.32"
"1988","5744.333"
"1989","5730.254"
"1990","5740.239"
"1991","5754.062"
"1992","5765.523"
"1993","5776.863"
"1994","5784.582"
"1995","5773.162"
"1996","5729.779"
"1997","5675.891"
"1998","5649.315"
"1999","5660.065"
"2000","5672.412"
"2001","5653.792"
"2002","5617.774"
"2003","5594.868"
"2004","5592.255"
"2005","5587.208"
"2006","5563.007"
"2007","5539.646"
"2008","5546.016"
"2009","5574.565"
"2010","5581.951"
"2011","5542.021"
"2012","5491.185"
"2013","5476.271"
"2014","5506.006"
"2015","5561.076"
"2016","5617.794"
"2017","5643.736"
"2018","5611.496"
"2019","5552.002"
"2020","5526.995"
"2021","5564.138"
"2022","5632.549"
"2023","5688.75"
"2024","5648.551"
"2025","5417.572"
"2026","5072.872"
"2027","4896.785"
"2028","5082.717"
"2029","5417.835"
"2030","5601.486"
"2031","5573.629"
"2032","5473.671"
"2033","5408.619"
"2034","5384.563"
"2035","5391.329"
"2036","5417.927"
"2037","5452.872"
"2038","5484.174"
"2039","5499.07"
"2040","5487.452"
"2041","5455.235"
"2042","5413.973"
"2043","5371.758"
"2044","5332.852"
"2045","5302.829"
"2046","5292.478"
"2047","5312.907"
"2048","5363.918"
"2049","5437.242"
"2050","5515.373"
"2051","5561.788"
"2052","5544.174"
"2053","5478.359"
"2054","5400.953"
"2055","5341.361"
"2056","5319.56"
"2057","5342.807"
"2058","5369.611"
"2059","5349.144"
"2060","5277.025"
"2061","5185.063"
"2062","5108.899"
"2063","5090.443"
"2064","5159.745"
"2065","5250.7"
"2066","5255.892"
"2067","5164.523"
"2068","5091.989"
"2069","5124.035"
"2070","5194.808"
"2071","5207.037"
"2072","5152.092"
"2073","5087.368"
"2074","5053.556"
"2075","5052.658"
"2076","5079.851"
"2077","5117.329"
"2078","5142.734"
"2079","5158.019"
"2080","5193.096"
"2081","5258.55"
"2082","5295.607"
"2083","5239.96"
"2084","5127.392"
"2085","5055.265"
"2086","5058.155"
"2087","5062.408"
"2088","5006.994"
"2089","4948.824"
"2090","4977.506"
"2091","5094.107"
"2092","5221.136"
"2093","5303.4"
"2094","5346.605"
"2095","5361.878"
"2096","5333.842"
"2097","5236.576"
"2098","5089.492"
"2099","4966.547"
"2100","4921.974"
"2101","4933.048"
"2102","4963.531"
"2103","5003.903"
"2104","5060.238"
"2105","5119.821"
"2106","5140.431"
"2107","5094.565"
"2108","5030.689"
"2109","5013.339"
"2110","5037.227"
"2111","5044.952"
"2112","5003.825"
"2113","4931.452"
"2114","4853.138"
"2115","4804.451"
"2116","4821.195"
"2117","4875.095"
"2118","4880.736"
"2119","4807.438"
"2120","4754.627"
"2121","4815.733"
"2122","4925.618"
"2123","4959.416"
"2124","4881.459"
"2125","4747.149"
"2126","4619.682"
"2127","4571.319"
"2128","4655.806"
"2129","4779.149"
"2130","4786.656"
"2131","4668.579"
"2132","4575.982"
"2133","4608.119"
"2134","4695.27"
"2135","4747.738"
"2136","4750.457"
"2137","4723.259"
"2138","4682.891"
"2139","4642.308"
"2140","4609.87"
"2141","4581.303"
"2142","4552.421"
"2143","4537.423"
"2144","4558.321"
"2145","4610.031"
"2146","4656.553"
"2147","4668.187"
"2148","4637.79"
"2149","4569.229"
"2150","4519.598"
"2151","4565.976"
"2152","4671.368"
"2153","4675.851"
"2154","4511.951"
"2155","4367.099"
"2156","4426.25"
"2157","4579.102"
"2158","4602.169"
"2159","4479.329"
"2160","4396.936"
"2161","4454.38"
"2162","4532.976"
"2163","4512.748"
"2164","4443.339"
"2165","4429.341"
"2166","4470.175"
"2167","4476.808"
"2168","4413.34"
"2169","4351.634"
"2170","4354.492"
"2171","4383.059"
"2172","4373.381"
"2173","4326.752"
"2174","4289.629"
"2175","4284.02"
"2176","4292.317"
"2177","4296.781"
"2178","4291.997"
"2179","4277.24"
"2180","4269.509"
"2181","4294.444"
"2182","4339.917"
"2183","4347.949"
"2184","4288.419"
"2185","4215.137"
"2186","4187.047"
"2187","4201.246"
"2188","4230.542"
"2189","4266.927"
"2190","4319.588"
"2191","4370.337"
"2192","4346.119"
"2193","4202.489"
"2194","4055.612"
"2195","4052.25"
"2196","4157.363"
"2197","4220.696"
"2198","4183.099"
"2199","4113.018"
"2200","4065.482"
"2201","4026.817"
"2202","3976.223"
"2203","3934.088"
"2204","3936.343"
"2205","3971.378"
"2206","3983.872"
"2207","3952.505"
"2208","3925.157"
"2209","3941.851"
"2210","3973.69"
"2211","3977.891"
"2212","3962.347"
"2213","3963.979"
"2214","3982.8"
"2215","3973.266"
"2216","3911.251"
"2217","3834.833"
"2218","3787.511"
"2219","3786.636"
"2220","3837.232"
"2221","3900.554"
"2222","3906.043"
"2223","3833.634"
"2224","3740.448"
"2225","3684.841"
"2226","3708.275"
"2227","3833.649"
"2228","3976.168"
"2229","4010.587"
"2230","3918.527"
"2231","3774.167"
"2232","3632.299"
"2233","3508.885"
"2234","3421.075"
"2235","3403.488"
"2236","3483.049"
"2237","3594.725"
"2238","3634.583"
"2239","3596.482"
"2240","3565.427"
"2241","3582.616"
"2242","3602.822"
"2243","3586.986"
"2244","3553.847"
"2245","3530.232"
"2246","3498.851"
"2247","3423.747"
"2248","3323.66"
"2249","3268.115"
"2250","3276.486"
"2251","3274.663"
"2252","3211.226"
"2253","3151.733"
"2254","3175.52"
"2255","3265.923"
"2256","3364.096"
"2257","3442.004"
"2258","3498.311"
"2259","3508.87"
"2260","3410.938"
"2261","3188.85"
"2262","2988.189"
"2263","2955.446"
"2264","3031.985"
"2265","3083.407"
"2266","3066.125"
"2267","3004.981"
"2268","2913.881"
"2269","2789.256"
"2270","2646.934"
"2271","2556.48"
"2272","2577.183"
"2273","2669.646"
"2274","2764.106"
"2275","2806.608"
"2276","2755.515"
"2277","2646.796"
"2278","2600.981"
"2279","2655.908"
"2280","2675.38"
"2281","2552.71"
"2282","2372.536"
"2283","2251.265"
"2284","2202.444"
"2285","2193.78"
"2286","2201.145"
"2287","2207.485"
"2288","2209.894"
"2289","2225.479"
"2290","2248.451"
"2291","2209.735"
"2292","2057.542"
"2293","1875.117"
"2294","1778.053"
"2295","1793.601"
"2296","1896.821"
"2297","1997.155"
"2298","1942.418"
"2299","1712.011"
"2300","1511.866"
