,"Scan 01004"
"400","7900.874"
"401","7863.241"
"402","7800.895"
"403","7734.324"
"404","7683.868"
"405","7666.902"
"406","7676.368"
"407","7692.877"
"408","7697.086"
"409","7671.517"
"410","7621.227"
"411","7566.919"
"412","7529.462"
"413","7528.711"
"414","7566.649"
"415","7628.612"
"416","7699.396"
"417","7764.091"
"418","7814.212"
"419","7849.152"
"420","7868.802"
"421","7873.072"
"422","7863.751"
"423","7845.64"
"424","7823.777"
"425","7803.158"
"426","7786.797"
"427","7773.616"
"428","7762.028"
"429","7750.463"
"430","7738.286"
"431","7727.389"
"432","7720.066"
"433","7718.601"
"434","7723.963"
"435","7732.638"
"436","7740.166"
"437","7742.121"
"438","7735.426"
"439","7722.835"
"440","7708.673"
"441","7697.241"
"442","7692.009"
"443","7692.052"
"444","7694.966"
"445","7698.362"
"446","7699.673"
"447","7695.024"
"448","7680.03"
"449","7650.322"
"450","7602.863"
"451","7545.331"
"452","7490.648"
"453","7451.686"
"454","7439.652"
"455","7449.8"
"456","7468.237"
"457","7481.052"
"458","7475.579"
"459","7453.219"
"460","7424.654"
"461","7400.666"
"462","7391.094"
"463","7393.237"
"464","7395.024"
"465","7384.23"
"466","7349.652"
"467","7296.156"
"468","7241.98"
"469","7205.66"
"470","7204.667"
"471","7237.537"
"472","7285.485"
"473","7329.198"
"474","7350.145"
"475","7344.912"
"476","7325.079"
"477","7302.797"
"478","7289.786"
"479","7288.442"
"480","7291.29"
"481","7290.418"
"482","7278.216"
"483","7254.211"
"484","7225.909"
"485","7201.192"
"486","7187.709"
"487","7187.307"
"488","7195.092"
"489","7205.826"
"490","7214.308"
"491","7215.582"
"492","7204.996"
"493","7177.936"
"494","7130.055"
"495","7065.046"
"496","6996.305"
"497","6937.73"
"498","6902.804"
"499","6893.673"
"500","6898.846"
"501","6906.078"
"502","6903.405"
"503","6885.641"
"504","6855.625"
"505","6816.648"
"506","6771.955"
"507","6723.689"
"508","6672.749"
"509","6619.95"
"510","6566.172"
"511","6514.146"
"512","6468.654"
"513","6434.551"
"514","6416.402"
"515","6411.958"
"516","6411.841"
"517","6406.385"
"518","6386.358"
"519","6350.988"
"520","6307.781"
"521","6264.543"
"522","6228.76"
"523","6202.395"
"524","6182.446"
"525","6165.745"
"526","6149.313"
"527","6133.035"
"528","6119.139"
"529","6109.909"
"530","6107.379"
"531","6110.159"
"532","6114.352"
"533","6116.021"
"534","6111.608"
"535","6101.775"
"536","6089.922"
"537","6079.483"
"538","6073.384"
"539","6069.71"
"540","6063.821"
"541","6051.066"
"542","6027.895"
"543","5999.521"
"544","5975.403"
"545","5964.974"
"546","5975.73"
"547","6002.454"
"548","6034.761"
"549","6062.301"
"550","6076.411"
"551","6077.363"
"552","6068.44"
"553","6052.915"
"554","6033.859"
"555","6013.524"
"556","5993.933"
"557","5977.098"
"558","5964.239"
"559","5953.829"
"560","5943.754"
"561","5931.912"
"562","5917.983"
"563","5906.54"
"564","5902.964"
"565","5912.587"
"566","5935.631"
"567","5961.349"
"568","5977.617"
"569","5972.477"
"570","5942.39"
"571","5897.896"
"572","5850.841"
"573","5812.875"
"574","5790.059"
"575","5781.221"
"576","5784.702"
"577","5798.745"
"578","5819.079"
"579","5838.918"
"580","5851.399"
"581","5850.19"
"582","5836.4"
"583","5816.773"
"584","5798.17"
"585","5786.967"
"586","5785.103"
"587","5792"
"588","5807.057"
"589","5829.018"
"590","5852.239"
"591","5869.28"
"592","5872.727"
"593","5858.003"
"594","5833.656"
"595","5812.014"
"596","5805.358"
"597","5820.605"
"598","5847.562"
"599","5872.642"
"600","5882.353"
"601","5870.646"
"602","5847.895"
"603","5826.634"
"604","5819.205"
"605","5829.199"
"606","5846.795"
"607","5861.067"
"608","5861.511"
"609","5847.554"
"610","5829.208"
"611","5816.962"
"612","5820.368"
"613","5836.319"
"614","5852.437"
"615","5856.175"
"616","5837.228"
"617","5803.513"
"618","5771.912"
"619","5759.306"
"620","5777.334"
"621","5811.015"
"622","5836.915"
"623","5831.684"
"624","5782.309"
"625","5708.693"
"626","5637.246"
"627","5594.181"
"628","5591.669"
"629","5613.667"
"630","5640.791"
"631","5654.046"
"632","5646.921"
"633","5628.972"
"634","5610.792"
"635","5602.509"
"636","5607.133"
"637","5621.79"
"638","5643.439"
"639","5668.976"
"640","5694.555"
"641","5715.967"
"642","5729.012"
"643","5730.619"
"644","5723.28"
"645","5711.205"
"646","5698.587"
"647","5688.477"
"648","5680.663"
"649","5674.358"
"650","5668.778"
"651","5663.682"
"652","5659.723"
"653","5657.643"
"654","5658.097"
"655","5659.854"
"656","5659.764"
"657","5654.601"
"658","5641.742"
"659","5624.88"
"660","5611.516"
"661","5609.173"
"662","5623.175"
"663","5646.799"
"664","5669.216"
"665","5679.629"
"666","5672.232"
"667","5655.955"
"668","5642.429"
"669","5643.135"
"670","5661.43"
"671","5687.336"
"672","5709.667"
"673","5717.67"
"674","5708.932"
"675","5688.798"
"676","5662.895"
"677","5636.67"
"678","5614.099"
"679","5598.39"
"680","5592.736"
"681","5599.062"
"682","5613.777"
"683","5631.792"
"684","5648.041"
"685","5658.999"
"686","5664.593"
"687","5665.212"
"688","5661.301"
"689","5655.013"
"690","5650.544"
"691","5652.206"
"692","5663.769"
"693","5682.935"
"694","5703.511"
"695","5719.254"
"696","5725.135"
"697","5722.443"
"698","5714.527"
"699","5704.725"
"700","5695.996"
"701","5690.339"
"702","5689.6"
"703","5695.566"
"704","5707.855"
"705","5723.314"
"706","5738.615"
"707","5750.543"
"708","5757.162"
"709","5757.376"
"710","5750.106"
"711","5735.365"
"712","5718.757"
"713","5707.67"
"714","5709.454"
"715","5726.057"
"716","5746.675"
"717","5758.681"
"718","5749.918"
"719","5721.634"
"720","5690.487"
"721","5673.961"
"722","5687.432"
"723","5726.016"
"724","5773.425"
"725","5813.276"
"726","5832.688"
"727","5833.077"
"728","5819.515"
"729","5797.07"
"730","5771.175"
"731","5747.926"
"732","5733.49"
"733","5733.704"
"734","5748.725"
"735","5773.766"
"736","5803.891"
"737","5834.168"
"738","5859.69"
"739","5875.564"
"740","5876.909"
"741","5862.505"
"742","5841.029"
"743","5822.804"
"744","5817.89"
"745","5828.001"
"746","5844.775"
"747","5859.257"
"748","5863.624"
"749","5860.632"
"750","5858.84"
"751","5866.854"
"752","5889.705"
"753","5919.382"
"754","5944.9"
"755","5955.433"
"756","5948.517"
"757","5934.509"
"758","5924.841"
"759","5930.076"
"760","5950.146"
"761","5977.788"
"762","6005.604"
"763","6026.902"
"764","6038.068"
"765","6036.351"
"766","6019.067"
"767","5989.269"
"768","5960.205"
"769","5946.152"
"770","5960.198"
"771","5998.212"
"772","6043.017"
"773","6077.129"
"774","6087.206"
"775","6080.068"
"776","6068.702"
"777","6066.021"
"778","6079.447"
"779","6106.118"
"780","6142.054"
"781","6183.169"
"782","6223.786"
"783","6256.987"
"784","6275.84"
"785","6275.327"
"786","6259.692"
"787","6235.971"
"788","6211.18"
"789","6190.983"
"790","6178.632"
"791","6177.126"
"792","6189.033"
"793","6211.093"
"794","6235.87"
"795","6255.833"
"796","6265.209"
"797","6265.749"
"798","6261.223"
"799","6255.389"
"800","6251.584"
"801","6252.478"
"802","6260.679"
"803","6278.5"
"804","6305.046"
"805","6337.472"
"806","6372.905"
"807","6407.496"
"808","6434.015"
"809","6444.508"
"810","6431.315"
"811","6397.133"
"812","6357.637"
"813","6329.313"
"814","6326.34"
"815","6344.92"
"816","6372.795"
"817","6397.677"
"818","6410.85"
"819","6412.631"
"820","6404.749"
"821","6389.032"
"822","6369.325"
"823","6351.331"
"824","6340.82"
"825","6341.898"
"826","6349.991"
"827","6357.694"
"828","6357.669"
"829","6347.518"
"830","6333.335"
"831","6322.056"
"832","6320.158"
"833","6329.164"
"834","6347.521"
"835","6373.629"
"836","6405.391"
"837","6439.085"
"838","6470.663"
"839","6496.196"
"840","6514.74"
"841","6528.612"
"842","6540.297"
"843","6551.683"
"844","6561.059"
"845","6565.376"
"846","6561.606"
"847","6549.187"
"848","6532.135"
"849","6514.967"
"850","6502.113"
"851","6497.014"
"852","6502.483"
"853","6521.324"
"854","6553.679"
"855","6591.296"
"856","6624.277"
"857","6643.04"
"858","6645.561"
"859","6637.546"
"860","6625.049"
"861","6614.092"
"862","6610.519"
"863","6620.123"
"864","6648.545"
"865","6692.345"
"866","6733.714"
"867","6753.571"
"868","6736.019"
"869","6692.976"
"870","6650.749"
"871","6635.724"
"872","6661.062"
"873","6708.187"
"874","6753.856"
"875","6776.264"
"876","6774.722"
"877","6764.668"
"878","6761.945"
"879","6777.013"
"880","6801.003"
"881","6820.709"
"882","6823.396"
"883","6808.718"
"884","6789.673"
"885","6779.915"
"886","6790.034"
"887","6814.597"
"888","6842.96"
"889","6864.607"
"890","6876.021"
"891","6883.952"
"892","6895.971"
"893","6918.39"
"894","6948.218"
"895","6978.293"
"896","7001.462"
"897","7013.83"
"898","7017.847"
"899","7016.693"
"900","7013.508"
"901","7010.956"
"902","7011.439"
"903","7017.34"
"904","7029.026"
"905","7041.772"
"906","7050.069"
"907","7048.783"
"908","7038.111"
"909","7022.169"
"910","7005.163"
"911","6991.94"
"912","6989.368"
"913","7004.717"
"914","7044.503"
"915","7101.215"
"916","7154.854"
"917","7184.985"
"918","7178.125"
"919","7147.481"
"920","7112.656"
"921","7092.75"
"922","7094.188"
"923","7110.26"
"924","7133.643"
"925","7157.796"
"926","7179.741"
"927","7197.487"
"928","7209.045"
"929","7212.305"
"930","7205.022"
"931","7184.939"
"932","7151.994"
"933","7117.246"
"934","7095.286"
"935","7100.348"
"936","7133.084"
"937","7176.752"
"938","7213.465"
"939","7228.651"
"940","7226.08"
"941","7215.815"
"942","7207.794"
"943","7205.914"
"944","7205.875"
"945","7202.792"
"946","7192.384"
"947","7173.841"
"948","7147.606"
"949","7114.222"
"950","7078.707"
"951","7052.309"
"952","7046.735"
"953","7070.269"
"954","7111.115"
"955","7150.19"
"956","7168.674"
"957","7160.316"
"958","7136.213"
"959","7108.73"
"960","7088.706"
"961","7078.214"
"962","7076.234"
"963","7081.686"
"964","7091.489"
"965","7099.896"
"966","7100.973"
"967","7090.924"
"968","7077.4"
"969","7071.863"
"970","7085.462"
"971","7118.004"
"972","7155.25"
"973","7182.081"
"974","7186.315"
"975","7170.036"
"976","7139.65"
"977","7101.567"
"978","7062.184"
"979","7027.892"
"980","7005.081"
"981","6998.517"
"982","7006.059"
"983","7023.726"
"984","7047.47"
"985","7071.74"
"986","7089.509"
"987","7093.68"
"988","7081.074"
"989","7062.61"
"990","7052.386"
"991","7063.646"
"992","7095.043"
"993","7132.978"
"994","7163.471"
"995","7176.828"
"996","7176.028"
"997","7166.379"
"998","7153.083"
"999","7139.896"
"1000","7129.579"
"1001","7124.865"
"1002","7127.334"
"1003","7135.836"
"1004","7148.823"
"1005","7164.752"
"1006","7182.031"
"1007","7198.796"
"1008","7213.055"
"1009","7222.869"
"1010","7228.579"
"1011","7233.804"
"1012","7242.419"
"1013","7257.208"
"1014","7275"
"1015","7290.615"
"1016","7298.941"
"1017","7296.965"
"1018","7284.154"
"1019","7260.111"
"1020","7226.284"
"1021","7191.87"
"1022","7168.118"
"1023","7165.728"
"1024","7184.204"
"1025","7212.673"
"1026","7239.87"
"1027","7257.2"
"1028","7264.515"
"1029","7263.327"
"1030","7255.465"
"1031","7246.949"
"1032","7246.746"
"1033","7263.852"
"1034","7300.79"
"1035","7345.352"
"1036","7383.291"
"1037","7402.129"
"1038","7404.576"
"1039","7401.034"
"1040","7401.877"
"1041","7411.041"
"1042","7422.175"
"1043","7428.001"
"1044","7423.038"
"1045","7411.781"
"1046","7402.176"
"1047","7401.912"
"1048","7411.335"
"1049","7422.752"
"1050","7428.053"
"1051","7422.788"
"1052","7415.433"
"1053","7417.322"
"1054","7438.712"
"1055","7475.002"
"1056","7510.82"
"1057","7530.575"
"1058","7526.903"
"1059","7510.436"
"1060","7494.188"
"1061","7490.056"
"1062","7501.476"
"1063","7528.032"
"1064","7569.146"
"1065","7618.205"
"1066","7660.472"
"1067","7680.628"
"1068","7669.096"
"1069","7640.534"
"1070","7615.999"
"1071","7615.342"
"1072","7638.663"
"1073","7670.086"
"1074","7693.301"
"1075","7697.714"
"1076","7686.118"
"1077","7663.207"
"1078","7633.952"
"1079","7605.405"
"1080","7585.571"
"1081","7582.271"
"1082","7595.656"
"1083","7615.916"
"1084","7632.575"
"1085","7638.855"
"1086","7642.193"
"1087","7653.433"
"1088","7682.159"
"1089","7721.252"
"1090","7751.761"
"1091","7754.577"
"1092","7723.736"
"1093","7678.592"
"1094","7641.4"
"1095","7629.882"
"1096","7635.396"
"1097","7639.814"
"1098","7625.752"
"1099","7592.898"
"1100","7557.775"
"1101","7537.62"
"1102","7541.862"
"1103","7559.155"
"1104","7574.713"
"1105","7575.512"
"1106","7562.805"
"1107","7544.738"
"1108","7529.399"
"1109","7520.847"
"1110","7518.062"
"1111","7519.709"
"1112","7524.937"
"1113","7534.558"
"1114","7549.738"
"1115","7571.008"
"1116","7592.349"
"1117","7603.886"
"1118","7595.874"
"1119","7568.126"
"1120","7534.586"
"1121","7510.34"
"1122","7506.492"
"1123","7518.398"
"1124","7537.53"
"1125","7555.497"
"1126","7565.603"
"1127","7562.257"
"1128","7540.028"
"1129","7502.733"
"1130","7468.938"
"1131","7458.537"
"1132","7484.542"
"1133","7531.326"
"1134","7575.802"
"1135","7596.596"
"1136","7593.29"
"1137","7579.403"
"1138","7568.609"
"1139","7567.443"
"1140","7571.181"
"1141","7574.098"
"1142","7571.452"
"1143","7562.399"
"1144","7547.062"
"1145","7526.035"
"1146","7505.091"
"1147","7493.23"
"1148","7499.361"
"1149","7525.577"
"1150","7564.172"
"1151","7606.68"
"1152","7644.278"
"1153","7666.939"
"1154","7664.359"
"1155","7628.666"
"1156","7574.066"
"1157","7526.527"
"1158","7511.551"
"1159","7535.293"
"1160","7580.707"
"1161","7629.371"
"1162","7666.639"
"1163","7688.276"
"1164","7691.816"
"1165","7676.412"
"1166","7652.263"
"1167","7634.161"
"1168","7636.149"
"1169","7656.953"
"1170","7681.132"
"1171","7692.764"
"1172","7683.794"
"1173","7661.984"
"1174","7636.995"
"1175","7617.764"
"1176","7609.77"
"1177","7617.498"
"1178","7644.328"
"1179","7680.567"
"1180","7707.999"
"1181","7708.589"
"1182","7679.798"
"1183","7640.305"
"1184","7610.334"
"1185","7602.999"
"1186","7610.341"
"1187","7620.51"
"1188","7623.397"
"1189","7620.784"
"1190","7619.418"
"1191","7625.701"
"1192","7639.444"
"1193","7654.737"
"1194","7665.522"
"1195","7669.727"
"1196","7672.337"
"1197","7679.052"
"1198","7693.798"
"1199","7713.832"
"1200","7734.827"
"1201","7752.893"
"1202","7767.768"
"1203","7781.007"
"1204","7794.04"
"1205","7804.933"
"1206","7808.404"
"1207","7799.066"
"1208","7776.665"
"1209","7751.007"
"1210","7733.078"
"1211","7730.006"
"1212","7733.319"
"1213","7730.584"
"1214","7711.703"
"1215","7687.001"
"1216","7677.381"
"1217","7702.763"
"1218","7758.777"
"1219","7817.029"
"1220","7848.24"
"1221","7839.922"
"1222","7810.973"
"1223","7783.746"
"1224","7775.202"
"1225","7782.345"
"1226","7797.576"
"1227","7813.796"
"1228","7827.706"
"1229","7837.728"
"1230","7842.322"
"1231","7840.299"
"1232","7830.778"
"1233","7812.98"
"1234","7791.728"
"1235","7780.45"
"1236","7793.307"
"1237","7836.441"
"1238","7893.055"
"1239","7942.271"
"1240","7966.902"
"1241","7970.194"
"1242","7962.41"
"1243","7953.205"
"1244","7945.393"
"1245","7937.488"
"1246","7927.948"
"1247","7915.693"
"1248","7900.143"
"1249","7880.77"
"1250","7860.584"
"1251","7849.354"
"1252","7857.624"
"1253","7890.877"
"1254","7937.077"
"1255","7980.388"
"1256","8007.685"
"1257","8023.213"
"1258","8038.056"
"1259","8062.338"
"1260","8093.728"
"1261","8121.423"
"1262","8134.732"
"1263","8131.058"
"1264","8117.023"
"1265","8099.744"
"1266","8084.634"
"1267","8073.879"
"1268","8069.295"
"1269","8070.127"
"1270","8067.214"
"1271","8049.679"
"1272","8011.283"
"1273","7972.166"
"1274","7961.799"
"1275","8005.362"
"1276","8083.51"
"1277","8150.696"
"1278","8162.996"
"1279","8117.792"
"1280","8051.471"
"1281","8001.607"
"1282","7985.77"
"1283","7991.578"
"1284","8004.201"
"1285","8013.419"
"1286","8020.096"
"1287","8026.72"
"1288","8034.47"
"1289","8039.39"
"1290","8036.243"
"1291","8021.233"
"1292","7999.875"
"1293","7981.417"
"1294","7974.44"
"1295","7979.86"
"1296","7993.8"
"1297","8012.359"
"1298","8032.664"
"1299","8052.827"
"1300","8071.059"
"1301","8088.603"
"1302","8111.04"
"1303","8144.252"
"1304","8186.071"
"1305","8216.974"
"1306","8215.172"
"1307","8169.544"
"1308","8104.348"
"1309","8051.169"
"1310","8035.037"
"1311","8047.279"
"1312","8068.47"
"1313","8081.16"
"1314","8083.885"
"1315","8082.845"
"1316","8083.9"
"1317","8087.789"
"1318","8091.672"
"1319","8092.777"
"1320","8091.517"
"1321","8091.475"
"1322","8096.228"
"1323","8102.571"
"1324","8097.751"
"1325","8068.396"
"1326","8014.166"
"1327","7960.691"
"1328","7936.677"
"1329","7956.594"
"1330","7994.48"
"1331","8017.227"
"1332","8002.771"
"1333","7974.113"
"1334","7965.756"
"1335","8002.667"
"1336","8054.007"
"1337","8068.696"
"1338","8003.97"
"1339","7887.703"
"1340","7783.244"
"1341","7749.056"
"1342","7778.668"
"1343","7821.47"
"1344","7828.219"
"1345","7793.292"
"1346","7750.542"
"1347","7734.505"
"1348","7754.918"
"1349","7791.921"
"1350","7824.123"
"1351","7843.392"
"1352","7862.327"
"1353","7895.275"
"1354","7945.778"
"1355","7995.287"
"1356","8022.551"
"1357","8016.322"
"1358","7992.205"
"1359","7970.269"
"1360","7963.721"
"1361","7961.585"
"1362","7947.553"
"1363","7910.358"
"1364","7861.943"
"1365","7820.923"
"1366","7803.554"
"1367","7811.918"
"1368","7842.852"
"1369","7891.527"
"1370","7940.325"
"1371","7965.623"
"1372","7947.258"
"1373","7900.595"
"1374","7861.679"
"1375","7863.938"
"1376","7901.919"
"1377","7942.419"
"1378","7953.089"
"1379","7928.075"
"1380","7884.428"
"1381","7839.611"
"1382","7802.306"
"1383","7772.073"
"1384","7748.101"
"1385","7730.917"
"1386","7722.712"
"1387","7725.754"
"1388","7740.505"
"1389","7764.822"
"1390","7796.307"
"1391","7829.062"
"1392","7851.21"
"1393","7850.359"
"1394","7825.083"
"1395","7795.936"
"1396","7786.052"
"1397","7806.86"
"1398","7842.525"
"1399","7873.344"
"1400","7885.028"
"1401","7877.832"
"1402","7854.435"
"1403","7818.855"
"1404","7779.253"
"1405","7744.582"
"1406","7722.302"
"1407","7714.611"
"1408","7722.552"
"1409","7745.348"
"1410","7774.996"
"1411","7801.693"
"1412","7817.749"
"1413","7824.882"
"1414","7827.435"
"1415","7829.745"
"1416","7836.141"
"1417","7850.949"
"1418","7875.53"
"1419","7895.134"
"1420","7889.552"
"1421","7845.131"
"1422","7787.07"
"1423","7754.837"
"1424","7779.902"
"1425","7842.281"
"1426","7901.707"
"1427","7923.837"
"1428","7915.412"
"1429","7900.402"
"1430","7900.284"
"1431","7917.845"
"1432","7947.611"
"1433","7984.038"
"1434","8021.331"
"1435","8053.578"
"1436","8075.542"
"1437","8087.375"
"1438","8091.801"
"1439","8092.094"
"1440","8095.876"
"1441","8112.9"
"1442","8150.768"
"1443","8198.893"
"1444","8237.617"
"1445","8249.656"
"1446","8238.453"
"1447","8217.871"
"1448","8200.73"
"1449","8190.279"
"1450","8184.96"
"1451","8182.813"
"1452","8178.823"
"1453","8166.451"
"1454","8140.213"
"1455","8103.347"
"1456","8063.372"
"1457","8026.718"
"1458","7991.017"
"1459","7949.706"
"1460","7898.735"
"1461","7853.404"
"1462","7837.912"
"1463","7870.396"
"1464","7924.734"
"1465","7955.337"
"1466","7924.64"
"1467","7850.561"
"1468","7774.146"
"1469","7730.503"
"1470","7716.291"
"1471","7713.108"
"1472","7705.153"
"1473","7692.111"
"1474","7679.308"
"1475","7670.816"
"1476","7663.871"
"1477","7653.416"
"1478","7635.417"
"1479","7610.898"
"1480","7582.428"
"1481","7554.206"
"1482","7537.629"
"1483","7546.088"
"1484","7584.394"
"1485","7623.448"
"1486","7625.766"
"1487","7569.381"
"1488","7486.698"
"1489","7422.022"
"1490","7406.038"
"1491","7427.478"
"1492","7467.036"
"1493","7506.906"
"1494","7533.346"
"1495","7533.309"
"1496","7502.082"
"1497","7454.365"
"1498","7407.612"
"1499","7375.688"
"1500","7365.255"
"1501","7382.002"
"1502","7422.812"
"1503","7469.358"
"1504","7501.926"
"1505","7507.771"
"1506","7484.444"
"1507","7430.789"
"1508","7362.547"
"1509","7316.611"
"1510","7329.615"
"1511","7396.862"
"1512","7470.011"
"1513","7500.867"
"1514","7483.711"
"1515","7450.37"
"1516","7431.968"
"1517","7431.435"
"1518","7431.023"
"1519","7414.743"
"1520","7390.47"
"1521","7380.453"
"1522","7403.349"
"1523","7446.632"
"1524","7482.564"
"1525","7486.779"
"1526","7457.021"
"1527","7399.651"
"1528","7324.107"
"1529","7254.773"
"1530","7220.621"
"1531","7236.235"
"1532","7261.748"
"1533","7244.412"
"1534","7159.079"
"1535","7060.787"
"1536","7018.928"
"1537","7066.512"
"1538","7155.332"
"1539","7226.524"
"1540","7251.978"
"1541","7256.414"
"1542","7269.188"
"1543","7295.651"
"1544","7309.402"
"1545","7283.312"
"1546","7225.054"
"1547","7177.633"
"1548","7182.487"
"1549","7233.035"
"1550","7285.582"
"1551","7299.631"
"1552","7277.274"
"1553","7245.348"
"1554","7227.369"
"1555","7221.126"
"1556","7213.375"
"1557","7194.86"
"1558","7176.374"
"1559","7174.912"
"1560","7199.143"
"1561","7228.522"
"1562","7236.135"
"1563","7209.151"
"1564","7169.618"
"1565","7144.714"
"1566","7145.347"
"1567","7153.715"
"1568","7149.425"
"1569","7125.285"
"1570","7090.792"
"1571","7056.581"
"1572","7034.379"
"1573","7036.893"
"1574","7074.681"
"1575","7132.913"
"1576","7180.449"
"1577","7189.49"
"1578","7158.889"
"1579","7099.374"
"1580","7024.48"
"1581","6960.871"
"1582","6939.178"
"1583","6975.166"
"1584","7037.495"
"1585","7085.586"
"1586","7095.824"
"1587","7080.335"
"1588","7055.694"
"1589","7034.261"
"1590","7022.387"
"1591","7025.589"
"1592","7041.063"
"1593","7057.98"
"1594","7065.944"
"1595","7063.546"
"1596","7055.188"
"1597","7045.401"
"1598","7038.888"
"1599","7040.429"
"1600","7053.5"
"1601","7075.963"
"1602","7104.168"
"1603","7132.451"
"1604","7149.769"
"1605","7144.311"
"1606","7114.532"
"1607","7076.342"
"1608","7047.115"
"1609","7037.601"
"1610","7051.28"
"1611","7089.532"
"1612","7130.931"
"1613","7137.966"
"1614","7081.826"
"1615","6999.693"
"1616","6957.974"
"1617","7003.134"
"1618","7095.937"
"1619","7174.336"
"1620","7198.856"
"1621","7187.135"
"1622","7165.521"
"1623","7149.254"
"1624","7136.463"
"1625","7124.034"
"1626","7113.302"
"1627","7109.836"
"1628","7118.541"
"1629","7135.809"
"1630","7153.066"
"1631","7162.785"
"1632","7163.571"
"1633","7156.14"
"1634","7142.817"
"1635","7130.931"
"1636","7128.741"
"1637","7140.414"
"1638","7162.757"
"1639","7191.71"
"1640","7220.568"
"1641","7239.813"
"1642","7240.604"
"1643","7223.412"
"1644","7194.558"
"1645","7162.178"
"1646","7144.274"
"1647","7162.392"
"1648","7224.352"
"1649","7295.235"
"1650","7332.141"
"1651","7321.473"
"1652","7300.298"
"1653","7309.062"
"1654","7349.421"
"1655","7384.645"
"1656","7380.49"
"1657","7343.26"
"1658","7302.043"
"1659","7279.818"
"1660","7268.447"
"1661","7250.352"
"1662","7216.548"
"1663","7179.887"
"1664","7156.467"
"1665","7153.571"
"1666","7166.309"
"1667","7188.694"
"1668","7211.753"
"1669","7224.218"
"1670","7217.348"
"1671","7199.862"
"1672","7187.678"
"1673","7188.875"
"1674","7185.292"
"1675","7153.531"
"1676","7090.86"
"1677","7030.122"
"1678","7005.929"
"1679","7017.082"
"1680","7029.317"
"1681","7012.162"
"1682","6976.54"
"1683","6953.57"
"1684","6963.821"
"1685","6986.474"
"1686","6990.848"
"1687","6964.76"
"1688","6931.361"
"1689","6916.796"
"1690","6924.2"
"1691","6933.902"
"1692","6927.75"
"1693","6909.175"
"1694","6892.622"
"1695","6886.089"
"1696","6871.904"
"1697","6826.285"
"1698","6747.255"
"1699","6673.794"
"1700","6647.755"
"1701","6675.215"
"1702","6728.346"
"1703","6779.478"
"1704","6813.064"
"1705","6819.262"
"1706","6794.69"
"1707","6758.441"
"1708","6734.345"
"1709","6732.552"
"1710","6740.75"
"1711","6745.068"
"1712","6740.39"
"1713","6728.68"
"1714","6713.077"
"1715","6702.719"
"1716","6709.062"
"1717","6734.91"
"1718","6759.367"
"1719","6758.034"
"1720","6727.588"
"1721","6691.715"
"1722","6673.86"
"1723","6675.161"
"1724","6683.074"
"1725","6687.217"
"1726","6687.676"
"1727","6687.408"
"1728","6688.61"
"1729","6692.033"
"1730","6697.911"
"1731","6699.825"
"1732","6685.398"
"1733","6646.472"
"1734","6604.518"
"1735","6593.127"
"1736","6629.797"
"1737","6687.562"
"1738","6732.316"
"1739","6747.055"
"1740","6735.738"
"1741","6704.642"
"1742","6669.885"
"1743","6653.091"
"1744","6667.777"
"1745","6696.86"
"1746","6716.261"
"1747","6712.732"
"1748","6690.146"
"1749","6654.391"
"1750","6617.96"
"1751","6598.008"
"1752","6605.651"
"1753","6622.797"
"1754","6622.815"
"1755","6595.055"
"1756","6559.466"
"1757","6538.592"
"1758","6539.889"
"1759","6558.256"
"1760","6587.898"
"1761","6621.349"
"1762","6650.538"
"1763","6668.069"
"1764","6668.032"
"1765","6645.404"
"1766","6609.114"
"1767","6580.989"
"1768","6579.001"
"1769","6594.031"
"1770","6606.608"
"1771","6605.724"
"1772","6600.227"
"1773","6601.539"
"1774","6615.096"
"1775","6640.567"
"1776","6675.266"
"1777","6702.988"
"1778","6702.256"
"1779","6663.046"
"1780","6602.203"
"1781","6540.293"
"1782","6494.754"
"1783","6480.055"
"1784","6505.326"
"1785","6547.901"
"1786","6573.221"
"1787","6564.682"
"1788","6545.147"
"1789","6541.554"
"1790","6558.731"
"1791","6582.218"
"1792","6599.152"
"1793","6608.956"
"1794","6615.151"
"1795","6619.739"
"1796","6621.763"
"1797","6620.1"
"1798","6616.094"
"1799","6612.959"
"1800","6611.113"
"1801","6598.272"
"1802","6558.878"
"1803","6497.244"
"1804","6449.456"
"1805","6450.492"
"1806","6490.964"
"1807","6534.093"
"1808","6552.251"
"1809","6551.178"
"1810","6543.663"
"1811","6535.333"
"1812","6522.851"
"1813","6503.558"
"1814","6484.563"
"1815","6477.557"
"1816","6487.928"
"1817","6504.99"
"1818","6516.092"
"1819","6519.861"
"1820","6525.387"
"1821","6539.756"
"1822","6557.302"
"1823","6568.155"
"1824","6564.428"
"1825","6541.751"
"1826","6498.147"
"1827","6455.18"
"1828","6449.595"
"1829","6498.983"
"1830","6554.36"
"1831","6554.037"
"1832","6487.926"
"1833","6406.498"
"1834","6357.623"
"1835","6347.522"
"1836","6365.189"
"1837","6398.313"
"1838","6432.007"
"1839","6452.14"
"1840","6460.43"
"1841","6470.34"
"1842","6491.736"
"1843","6519.467"
"1844","6544.891"
"1845","6564.956"
"1846","6583.665"
"1847","6604.02"
"1848","6618.738"
"1849","6616.115"
"1850","6592.726"
"1851","6562.776"
"1852","6542.117"
"1853","6537.806"
"1854","6550.552"
"1855","6576.495"
"1856","6595.783"
"1857","6585.734"
"1858","6548.823"
"1859","6516.518"
"1860","6516.433"
"1861","6542.29"
"1862","6574.999"
"1863","6596.52"
"1864","6590.808"
"1865","6545.697"
"1866","6487.834"
"1867","6467.036"
"1868","6509.856"
"1869","6576.181"
"1870","6616.142"
"1871","6618.748"
"1872","6607.86"
"1873","6604.304"
"1874","6609.848"
"1875","6620.832"
"1876","6625.722"
"1877","6602.709"
"1878","6537.721"
"1879","6473.827"
"1880","6477.306"
"1881","6561.474"
"1882","6640.129"
"1883","6625.899"
"1884","6535.25"
"1885","6446.069"
"1886","6410.751"
"1887","6411.363"
"1888","6419.989"
"1889","6435.301"
"1890","6477.595"
"1891","6554.774"
"1892","6625.961"
"1893","6640.573"
"1894","6596.366"
"1895","6543.607"
"1896","6524.534"
"1897","6525.985"
"1898","6517.535"
"1899","6492.956"
"1900","6480.292"
"1901","6503.368"
"1902","6538.396"
"1903","6541.719"
"1904","6499.596"
"1905","6452.553"
"1906","6441.726"
"1907","6460.432"
"1908","6476.339"
"1909","6471.923"
"1910","6463.858"
"1911","6471.89"
"1912","6495.604"
"1913","6521.235"
"1914","6537.381"
"1915","6539.966"
"1916","6526.679"
"1917","6503.213"
"1918","6481.595"
"1919","6470.322"
"1920","6465.401"
"1921","6460.594"
"1922","6457.156"
"1923","6463.239"
"1924","6482.872"
"1925","6502.833"
"1926","6506.16"
"1927","6489.093"
"1928","6461.681"
"1929","6435.754"
"1930","6428.042"
"1931","6455.415"
"1932","6496.044"
"1933","6483.276"
"1934","6373.491"
"1935","6250.729"
"1936","6235.937"
"1937","6344.525"
"1938","6459.604"
"1939","6478.793"
"1940","6424.267"
"1941","6359.434"
"1942","6329.339"
"1943","6354.605"
"1944","6442.6"
"1945","6535.171"
"1946","6552.667"
"1947","6485.366"
"1948","6418.917"
"1949","6426.351"
"1950","6467.299"
"1951","6462.217"
"1952","6394.125"
"1953","6331.943"
"1954","6334.808"
"1955","6369.447"
"1956","6370.889"
"1957","6322.978"
"1958","6275.323"
"1959","6270.176"
"1960","6282.955"
"1961","6267.045"
"1962","6211.313"
"1963","6150.402"
"1964","6116.779"
"1965","6115.402"
"1966","6142.125"
"1967","6184.302"
"1968","6219.047"
"1969","6228.578"
"1970","6222.384"
"1971","6217.609"
"1972","6219.653"
"1973","6220.969"
"1974","6215.977"
"1975","6210.267"
"1976","6211.801"
"1977","6215.768"
"1978","6204.778"
"1979","6169.587"
"1980","6132.637"
"1981","6121.864"
"1982","6133.489"
"1983","6136.534"
"1984","6114.793"
"1985","6100.288"
"1986","6130.283"
"1987","6185.399"
"1988","6204.958"
"1989","6157.522"
"1990","6088.513"
"1991","6051.332"
"1992","6054.661"
"1993","6080.187"
"1994","6112.881"
"1995","6145.346"
"1996","6169.885"
"1997","6169.125"
"1998","6121.37"
"1999","6035.657"
"2000","5971.367"
"2001","5978.791"
"2002","6022.626"
"2003","6036.273"
"2004","6002.164"
"2005","5965.626"
"2006","5963.863"
"2007","5977.638"
"2008","5972.797"
"2009","5943.458"
"2010","5911.492"
"2011","5895.907"
"2012","5902.056"
"2013","5931.437"
"2014","5971.058"
"2015","5997.281"
"2016","5995.93"
"2017","5976.14"
"2018","5949.086"
"2019","5913.302"
"2020","5860.778"
"2021","5800.719"
"2022","5771.641"
"2023","5802.548"
"2024","5847.131"
"2025","5833.094"
"2026","5762.286"
"2027","5725.416"
"2028","5787.814"
"2029","5891.639"
"2030","5952.164"
"2031","5952.884"
"2032","5933.828"
"2033","5919.799"
"2034","5891.304"
"2035","5826.518"
"2036","5749.98"
"2037","5711.757"
"2038","5733.256"
"2039","5786.606"
"2040","5840.932"
"2041","5876.288"
"2042","5877.295"
"2043","5848.821"
"2044","5818.16"
"2045","5803.051"
"2046","5783.654"
"2047","5734.975"
"2048","5673.019"
"2049","5642.699"
"2050","5663.221"
"2051","5698.183"
"2052","5710.101"
"2053","5704.924"
"2054","5707.036"
"2055","5723.3"
"2056","5737.941"
"2057","5735.535"
"2058","5708.295"
"2059","5651.72"
"2060","5582.521"
"2061","5533.912"
"2062","5528.735"
"2063","5565.189"
"2064","5633.005"
"2065","5684.143"
"2066","5655.153"
"2067","5555.043"
"2068","5487.324"
"2069","5525.977"
"2070","5602.396"
"2071","5618.572"
"2072","5562.409"
"2073","5485.845"
"2074","5431.874"
"2075","5421.205"
"2076","5464.541"
"2077","5524.304"
"2078","5544.64"
"2079","5516.753"
"2080","5486.03"
"2081","5485.299"
"2082","5495.43"
"2083","5489.947"
"2084","5480.887"
"2085","5503.876"
"2086","5563.239"
"2087","5609.584"
"2088","5601.236"
"2089","5562.682"
"2090","5537.807"
"2091","5541.073"
"2092","5560.821"
"2093","5586.36"
"2094","5611.604"
"2095","5630.153"
"2096","5628.585"
"2097","5590.891"
"2098","5521.161"
"2099","5447.661"
"2100","5395.766"
"2101","5376.146"
"2102","5394.144"
"2103","5430.792"
"2104","5452.813"
"2105","5440.951"
"2106","5398.148"
"2107","5335.288"
"2108","5289.414"
"2109","5300.441"
"2110","5345.037"
"2111","5352.783"
"2112","5295.027"
"2113","5226.059"
"2114","5198.988"
"2115","5207.781"
"2116","5226.995"
"2117","5244.584"
"2118","5260.518"
"2119","5278.305"
"2120","5308.58"
"2121","5357.104"
"2122","5391.476"
"2123","5366.242"
"2124","5289.942"
"2125","5226.117"
"2126","5218.176"
"2127","5250.582"
"2128","5295.55"
"2129","5305.279"
"2130","5225.627"
"2131","5077.32"
"2132","4964.016"
"2133","4957.903"
"2134","5030.539"
"2135","5133.42"
"2136","5198.807"
"2137","5152.894"
"2138","5017.167"
"2139","4922.633"
"2140","4946.714"
"2141","4995.522"
"2142","4962.853"
"2143","4887.545"
"2144","4874.245"
"2145","4942.185"
"2146","5012.836"
"2147","5028.77"
"2148","5006.679"
"2149","4973.725"
"2150","4939.177"
"2151","4904.413"
"2152","4875.824"
"2153","4865.234"
"2154","4879.748"
"2155","4913.521"
"2156","4956.947"
"2157","4989.189"
"2158","4985.555"
"2159","4940.553"
"2160","4867.482"
"2161","4785.965"
"2162","4728.104"
"2163","4720.324"
"2164","4745.507"
"2165","4771.413"
"2166","4775.756"
"2167","4744.865"
"2168","4688.284"
"2169","4659.689"
"2170","4699.179"
"2171","4758.295"
"2172","4768.041"
"2173","4734.231"
"2174","4714.398"
"2175","4733.401"
"2176","4763.447"
"2177","4774.894"
"2178","4748.427"
"2179","4672.86"
"2180","4591.698"
"2181","4576.582"
"2182","4631.283"
"2183","4676.943"
"2184","4663.562"
"2185","4634.018"
"2186","4635.695"
"2187","4640.376"
"2188","4592.571"
"2189","4508.39"
"2190","4468.447"
"2191","4503.161"
"2192","4539.632"
"2193","4512.847"
"2194","4449.821"
"2195","4402.229"
"2196","4401.789"
"2197","4466.352"
"2198","4566.793"
"2199","4610.039"
"2200","4543.323"
"2201","4449.928"
"2202","4422.858"
"2203","4440.42"
"2204","4433.601"
"2205","4382.705"
"2206","4313.819"
"2207","4255.961"
"2208","4240.364"
"2209","4283.942"
"2210","4340.169"
"2211","4350.864"
"2212","4317.131"
"2213","4274.926"
"2214","4247.518"
"2215","4242.041"
"2216","4255.385"
"2217","4260.691"
"2218","4236.319"
"2219","4212.521"
"2220","4233.239"
"2221","4272.809"
"2222","4254.729"
"2223","4167.71"
"2224","4100.429"
"2225","4116.385"
"2226","4173.031"
"2227","4213.222"
"2228","4224.765"
"2229","4214.274"
"2230","4181.644"
"2231","4121.113"
"2232","4044.934"
"2233","3996.577"
"2234","4000.683"
"2235","4003.185"
"2236","3945.139"
"2237","3869.068"
"2238","3861.03"
"2239","3913.857"
"2240","3933.63"
"2241","3885.486"
"2242","3848.46"
"2243","3880.904"
"2244","3917.929"
"2245","3879.879"
"2246","3801.911"
"2247","3770.434"
"2248","3784.021"
"2249","3759.289"
"2250","3667.829"
"2251","3585.515"
"2252","3575.217"
"2253","3613.385"
"2254","3659.6"
"2255","3693.26"
"2256","3703.23"
"2257","3687.404"
"2258","3651.585"
"2259","3606.279"
"2260","3569.176"
"2261","3546.894"
"2262","3508.587"
"2263","3426.739"
"2264","3344.087"
"2265","3325.252"
"2266","3343.638"
"2267","3305.469"
"2268","3198.654"
"2269","3126.691"
"2270","3145.263"
"2271","3162.725"
"2272","3089.581"
"2273","2971.004"
"2274","2888.835"
"2275","2853.026"
"2276","2830.612"
"2277","2808.772"
"2278","2797.435"
"2279","2794.675"
"2280","2772.594"
"2281","2712.588"
"2282","2643.146"
"2283","2598.17"
"2284","2568.135"
"2285","2525.822"
"2286","2475.06"
"2287","2444.645"
"2288","2445.412"
"2289","2461.303"
"2290","2465.764"
"2291","2410.677"
"2292","2269.116"
"2293","2135.215"
"2294","2121.948"
"2295","2165.451"
"2296","2109.959"
"2297","1948.532"
"2298","1819.174"
"2299","1788.831"
"2300","1794.111"
