,"Scan 01015"
"400","10422.89"
"401","10371.24"
"402","10295.42"
"403","10222.77"
"404","10180.43"
"405","10191.38"
"406","10244.32"
"407","10310.65"
"408","10361.85"
"409","10371.73"
"410","10342.3"
"411","10295.12"
"412","10251.99"
"413","10233.7"
"414","10243.52"
"415","10268.38"
"416","10294.65"
"417","10309.1"
"418","10307.33"
"419","10295.91"
"420","10282.01"
"421","10272.67"
"422","10269.4"
"423","10264.81"
"424","10250.76"
"425","10219.22"
"426","10169.78"
"427","10117.99"
"428","10081.28"
"429","10076.93"
"430","10111.99"
"431","10166.1"
"432","10214.46"
"433","10232.43"
"434","10204.81"
"435","10148.59"
"436","10087.56"
"437","10045.38"
"438","10039.71"
"439","10062.68"
"440","10099.5"
"441","10135.47"
"442","10158.27"
"443","10168.15"
"444","10169.62"
"445","10167.17"
"446","10164.62"
"447","10161.66"
"448","10156.23"
"449","10146.31"
"450","10130.31"
"451","10110.25"
"452","10089.93"
"453","10073.12"
"454","10063.01"
"455","10057.17"
"456","10049.9"
"457","10035.52"
"458","10008.93"
"459","9971.45"
"460","9928.669"
"461","9886.218"
"462","9849.553"
"463","9822.177"
"464","9806.123"
"465","9803.378"
"466","9815.482"
"467","9836.553"
"468","9854.534"
"469","9857.258"
"470","9833.339"
"471","9785.58"
"472","9729.758"
"473","9682.034"
"474","9657.965"
"475","9661.52"
"476","9685.18"
"477","9720.984"
"478","9761.005"
"479","9797.058"
"480","9820.687"
"481","9823.464"
"482","9797.439"
"483","9746.72"
"484","9688.872"
"485","9642.074"
"486","9623.888"
"487","9635.956"
"488","9661.441"
"489","9682.57"
"490","9682.047"
"491","9654.997"
"492","9611.336"
"493","9561.793"
"494","9516.857"
"495","9481.191"
"496","9452.436"
"497","9427.819"
"498","9404.657"
"499","9382.436"
"500","9363.264"
"501","9349.397"
"502","9342.952"
"503","9342.09"
"504","9340.276"
"505","9330.745"
"506","9306.974"
"507","9268.94"
"508","9224.121"
"509","9180.361"
"510","9145.281"
"511","9121.23"
"512","9104.736"
"513","9092.038"
"514","9079.458"
"515","9064.706"
"516","9046.949"
"517","9025.43"
"518","8999.476"
"519","8970.396"
"520","8941.42"
"521","8915.84"
"522","8896.811"
"523","8885.115"
"524","8879.4"
"525","8878.245"
"526","8880.128"
"527","8881.785"
"528","8878.526"
"529","8865.645"
"530","8839.009"
"531","8802.223"
"532","8764.575"
"533","8735.438"
"534","8723.208"
"535","8725.294"
"536","8731.979"
"537","8733.472"
"538","8721.068"
"539","8696.299"
"540","8666.481"
"541","8638.967"
"542","8620.202"
"543","8609.635"
"544","8603.308"
"545","8597.266"
"546","8588.426"
"547","8579.426"
"548","8575.233"
"549","8580.799"
"550","8599.586"
"551","8627.068"
"552","8656.046"
"553","8679.348"
"554","8690.761"
"555","8688.123"
"556","8670.385"
"557","8636.509"
"558","8588.344"
"559","8537.824"
"560","8499.035"
"561","8485.981"
"562","8504.894"
"563","8540.745"
"564","8574.966"
"565","8589.114"
"566","8574.076"
"567","8540.688"
"568","8502.335"
"569","8472.247"
"570","8456.843"
"571","8451.147"
"572","8449.128"
"573","8444.866"
"574","8436.46"
"575","8427.193"
"576","8420.686"
"577","8420.31"
"578","8424.153"
"579","8425.026"
"580","8415.535"
"581","8389.029"
"582","8349.287"
"583","8307.996"
"584","8276.994"
"585","8266.749"
"586","8274.774"
"587","8291.265"
"588","8306.374"
"589","8311.726"
"590","8308.601"
"591","8302.255"
"592","8297.927"
"593","8299.816"
"594","8307.327"
"595","8318.472"
"596","8331.274"
"597","8343.958"
"598","8355.413"
"599","8364.651"
"600","8370.693"
"601","8372.337"
"602","8367.881"
"603","8355.564"
"604","8333.688"
"605","8303.637"
"606","8271.547"
"607","8243.928"
"608","8227.095"
"609","8222.886"
"610","8228.361"
"611","8240.359"
"612","8255.643"
"613","8269.705"
"614","8277.122"
"615","8272.467"
"616","8251.668"
"617","8221.737"
"618","8195.134"
"619","8184.31"
"620","8198.032"
"621","8226.397"
"622","8253.562"
"623","8263.742"
"624","8247.2"
"625","8213.424"
"626","8175.71"
"627","8147.26"
"628","8134.317"
"629","8129.143"
"630","8122.354"
"631","8104.841"
"632","8077.093"
"633","8051.962"
"634","8043.079"
"635","8063.01"
"636","8107.291"
"637","8157.418"
"638","8194.526"
"639","8202.221"
"640","8185.257"
"641","8159.304"
"642","8140.07"
"643","8139.367"
"644","8149.815"
"645","8158.109"
"646","8151.005"
"647","8122.39"
"648","8086.569"
"649","8061.439"
"650","8064.648"
"651","8099.051"
"652","8142.553"
"653","8170.712"
"654","8160.186"
"655","8111.841"
"656","8051.098"
"657","8004.384"
"658","7995.642"
"659","8023.058"
"660","8069.32"
"661","8116.958"
"662","8150.581"
"663","8166.075"
"664","8163.184"
"665","8141.663"
"666","8104.151"
"667","8061.856"
"668","8027.545"
"669","8013.815"
"670","8024.144"
"671","8047.035"
"672","8069.633"
"673","8079.598"
"674","8074.304"
"675","8060.166"
"676","8043.941"
"677","8031.927"
"678","8026.629"
"679","8028.574"
"680","8038.275"
"681","8055.196"
"682","8074.225"
"683","8089.018"
"684","8093.26"
"685","8083.645"
"686","8063.604"
"687","8037.466"
"688","8009.609"
"689","7986.174"
"690","7975.417"
"691","7985.703"
"692","8023.802"
"693","8078.363"
"694","8126.409"
"695","8144.83"
"696","8116.81"
"697","8058.372"
"698","7996.236"
"699","7957.042"
"700","7955.709"
"701","7977.562"
"702","8003.344"
"703","8014.194"
"704","8004.483"
"705","7985.53"
"706","7969.742"
"707","7968.514"
"708","7981.435"
"709","8000.341"
"710","8016.943"
"711","8024.48"
"712","8023.973"
"713","8018.923"
"714","8012.831"
"715","8008.816"
"716","8009.131"
"717","8015.896"
"718","8031.071"
"719","8051.886"
"720","8070.121"
"721","8077.277"
"722","8066.082"
"723","8041.115"
"724","8013.634"
"725","7994.951"
"726","7993.025"
"727","8002.154"
"728","8013.138"
"729","8016.844"
"730","8009.271"
"731","7995.812"
"732","7982.857"
"733","7976.603"
"734","7979.878"
"735","7992.584"
"736","8014.527"
"737","8044.585"
"738","8075.617"
"739","8098.088"
"740","8102.477"
"741","8084.513"
"742","8054.121"
"743","8023.581"
"744","8004.944"
"745","8003.019"
"746","8013.862"
"747","8033.016"
"748","8055.958"
"749","8077.515"
"750","8092.156"
"751","8094.358"
"752","8080.971"
"753","8057.509"
"754","8031.462"
"755","8010.257"
"756","7998.021"
"757","7993.84"
"758","7996.365"
"759","8004.392"
"760","8018.447"
"761","8040.229"
"762","8071.453"
"763","8111.955"
"764","8153.191"
"765","8184.288"
"766","8194.475"
"767","8181.125"
"768","8156.066"
"769","8132.598"
"770","8123.166"
"771","8127.952"
"772","8137.846"
"773","8143.514"
"774","8138.36"
"775","8129.14"
"776","8126.682"
"777","8141.732"
"778","8177.15"
"779","8221.064"
"780","8260"
"781","8281.271"
"782","8283.944"
"783","8276.165"
"784","8266.31"
"785","8261.175"
"786","8260.003"
"787","8259.749"
"788","8257.394"
"789","8251.737"
"790","8244.834"
"791","8239.083"
"792","8236.854"
"793","8240.217"
"794","8251.025"
"795","8271.126"
"796","8300.421"
"797","8330.451"
"798","8350.52"
"799","8350.086"
"800","8328.066"
"801","8298.163"
"802","8275.358"
"803","8273.161"
"804","8289.265"
"805","8311.715"
"806","8328.424"
"807","8331.117"
"808","8324.662"
"809","8316.762"
"810","8314.973"
"811","8321.731"
"812","8333.061"
"813","8344.581"
"814","8352.303"
"815","8355.236"
"816","8353.817"
"817","8348.482"
"818","8339.716"
"819","8328.118"
"820","8314.307"
"821","8299.033"
"822","8285.828"
"823","8280.784"
"824","8290.08"
"825","8317.438"
"826","8353.74"
"827","8385.677"
"828","8400.067"
"829","8392.773"
"830","8375.225"
"831","8360.381"
"832","8360.202"
"833","8375.687"
"834","8401.033"
"835","8430.346"
"836","8457.569"
"837","8476.136"
"838","8479.371"
"839","8460.979"
"840","8424.641"
"841","8384.933"
"842","8356.975"
"843","8353.07"
"844","8368.565"
"845","8392.479"
"846","8413.869"
"847","8426.597"
"848","8433.443"
"849","8438.155"
"850","8444.37"
"851","8454.348"
"852","8469.48"
"853","8491.149"
"854","8518.394"
"855","8542.869"
"856","8554.785"
"857","8544.918"
"858","8517.574"
"859","8490.908"
"860","8483.686"
"861","8509.732"
"862","8556.686"
"863","8603.541"
"864","8629.533"
"865","8628.594"
"866","8617.917"
"867","8616.744"
"868","8641.225"
"869","8680.44"
"870","8709.47"
"871","8703.33"
"872","8653.385"
"873","8590.26"
"874","8550.338"
"875","8567.247"
"876","8633.864"
"877","8711.966"
"878","8762.548"
"879","8759.034"
"880","8719.499"
"881","8672.04"
"882","8644.08"
"883","8645.399"
"884","8666.796"
"885","8698.12"
"886","8730.342"
"887","8760.271"
"888","8786.612"
"889","8808.059"
"890","8822.377"
"891","8825.985"
"892","8815.189"
"893","8787.641"
"894","8750.934"
"895","8717.114"
"896","8698.204"
"897","8700.432"
"898","8718.737"
"899","8746.767"
"900","8778.222"
"901","8807.362"
"902","8828.778"
"903","8837.081"
"904","8830.739"
"905","8817.937"
"906","8808.367"
"907","8810.998"
"908","8824.726"
"909","8841.03"
"910","8851.218"
"911","8850.181"
"912","8844.132"
"913","8841.515"
"914","8850.345"
"915","8870.541"
"916","8894.828"
"917","8915.683"
"918","8926.616"
"919","8925.139"
"920","8909.715"
"921","8879.16"
"922","8840.901"
"923","8811.298"
"924","8807.131"
"925","8839.446"
"926","8893.51"
"927","8947.341"
"928","8979.406"
"929","8982.259"
"930","8964.976"
"931","8937.571"
"932","8909.7"
"933","8889.176"
"934","8883.227"
"935","8898.813"
"936","8932.556"
"937","8967.83"
"938","8987.144"
"939","8977.015"
"940","8946.164"
"941","8910.948"
"942","8887.521"
"943","8883.168"
"944","8893.135"
"945","8911.812"
"946","8933.467"
"947","8951.713"
"948","8959.922"
"949","8951.592"
"950","8926.097"
"951","8890.977"
"952","8854.381"
"953","8823.705"
"954","8801.914"
"955","8790.364"
"956","8790.356"
"957","8800.476"
"958","8815.563"
"959","8830.188"
"960","8839.97"
"961","8846.541"
"962","8853.663"
"963","8865.017"
"964","8881.034"
"965","8897.82"
"966","8911.185"
"967","8917.646"
"968","8917.534"
"969","8912.453"
"970","8904.035"
"971","8894.884"
"972","8888.805"
"973","8889.679"
"974","8899.695"
"975","8912.837"
"976","8920.598"
"977","8914.774"
"978","8896.045"
"979","8875.018"
"980","8862.845"
"981","8866.749"
"982","8877.273"
"983","8880.524"
"984","8863.396"
"985","8830.356"
"986","8803.182"
"987","8804.389"
"988","8847.026"
"989","8910.048"
"990","8964.728"
"991","8983.818"
"992","8965.584"
"993","8929.698"
"994","8896.502"
"995","8880.665"
"996","8880.074"
"997","8889.537"
"998","8904.102"
"999","8921.946"
"1000","8943.423"
"1001","8968.923"
"1002","8997.575"
"1003","9025.537"
"1004","9048.531"
"1005","9062.279"
"1006","9063.611"
"1007","9056.805"
"1008","9049.206"
"1009","9048.019"
"1010","9052.779"
"1011","9052.005"
"1012","9033.362"
"1013","8989.054"
"1014","8935.972"
"1015","8899.369"
"1016","8903.702"
"1017","8947.714"
"1018","8999.947"
"1019","9027.199"
"1020","9006.687"
"1021","8959.662"
"1022","8919.021"
"1023","8916.216"
"1024","8953.438"
"1025","9005.758"
"1026","9047.207"
"1027","9061.262"
"1028","9061.164"
"1029","9065.993"
"1030","9093.045"
"1031","9136.029"
"1032","9172.113"
"1033","9178.17"
"1034","9146.162"
"1035","9102.335"
"1036","9077.685"
"1037","9098.64"
"1038","9152.521"
"1039","9206.819"
"1040","9229.169"
"1041","9208.019"
"1042","9165.087"
"1043","9125.095"
"1044","9108.538"
"1045","9112.438"
"1046","9125.708"
"1047","9137.46"
"1048","9142.647"
"1049","9142.638"
"1050","9139.116"
"1051","9134.14"
"1052","9131.034"
"1053","9133.411"
"1054","9144.434"
"1055","9161.14"
"1056","9176.115"
"1057","9181.874"
"1058","9176.019"
"1059","9167.324"
"1060","9166.037"
"1061","9180.2"
"1062","9201.2"
"1063","9212.852"
"1064","9199.339"
"1065","9162.52"
"1066","9128.02"
"1067","9123.161"
"1068","9165.57"
"1069","9231.91"
"1070","9288.039"
"1071","9301.959"
"1072","9276.745"
"1073","9243.823"
"1074","9235.392"
"1075","9266.156"
"1076","9310.009"
"1077","9335.011"
"1078","9314.611"
"1079","9263.465"
"1080","9215.194"
"1081","9202.832"
"1082","9231.581"
"1083","9270.538"
"1084","9286.362"
"1085","9258.104"
"1086","9212.317"
"1087","9186.958"
"1088","9216.379"
"1089","9287.068"
"1090","9351.624"
"1091","9362.155"
"1092","9302.792"
"1093","9219.392"
"1094","9164.881"
"1095","9181.176"
"1096","9246.22"
"1097","9314.943"
"1098","9343.704"
"1099","9322.218"
"1100","9273.07"
"1101","9220.256"
"1102","9182.176"
"1103","9162.333"
"1104","9161.777"
"1105","9180.317"
"1106","9207.775"
"1107","9229.138"
"1108","9229.776"
"1109","9210.559"
"1110","9191.839"
"1111","9195.232"
"1112","9233.526"
"1113","9289.54"
"1114","9339.736"
"1115","9362.354"
"1116","9354.117"
"1117","9322.613"
"1118","9275.626"
"1119","9223.819"
"1120","9182.106"
"1121","9165.752"
"1122","9183.795"
"1123","9220.711"
"1124","9254.907"
"1125","9266.43"
"1126","9254.839"
"1127","9232.437"
"1128","9211.681"
"1129","9200.144"
"1130","9197.609"
"1131","9203.169"
"1132","9214.537"
"1133","9223.74"
"1134","9221.316"
"1135","9199.114"
"1136","9164.924"
"1137","9137.143"
"1138","9134.162"
"1139","9160.608"
"1140","9199.394"
"1141","9231.505"
"1142","9242.523"
"1143","9236.348"
"1144","9221.434"
"1145","9205.779"
"1146","9192.217"
"1147","9180.368"
"1148","9169.843"
"1149","9162.044"
"1150","9160.931"
"1151","9170.672"
"1152","9192.526"
"1153","9217.728"
"1154","9235.322"
"1155","9235.951"
"1156","9224.701"
"1157","9214.351"
"1158","9217.47"
"1159","9237.067"
"1160","9264.693"
"1161","9291.215"
"1162","9309.65"
"1163","9318.918"
"1164","9318.952"
"1165","9310.792"
"1166","9303.065"
"1167","9307.55"
"1168","9335.152"
"1169","9378.9"
"1170","9415.313"
"1171","9420.392"
"1172","9387.055"
"1173","9342.2"
"1174","9316.822"
"1175","9333.045"
"1176","9371.471"
"1177","9400.584"
"1178","9391.852"
"1179","9352.379"
"1180","9312.533"
"1181","9302.592"
"1182","9330.224"
"1183","9372.121"
"1184","9402.725"
"1185","9405.736"
"1186","9392.336"
"1187","9378.772"
"1188","9378.545"
"1189","9386.396"
"1190","9389.235"
"1191","9374.913"
"1192","9348.891"
"1193","9331.935"
"1194","9345.158"
"1195","9393.816"
"1196","9455.201"
"1197","9503.74"
"1198","9520.367"
"1199","9510.521"
"1200","9485.407"
"1201","9455.944"
"1202","9430.55"
"1203","9416.399"
"1204","9420.233"
"1205","9439.041"
"1206","9460.098"
"1207","9470.313"
"1208","9464.401"
"1209","9452.386"
"1210","9446.063"
"1211","9453.188"
"1212","9465.093"
"1213","9468.948"
"1214","9453.668"
"1215","9423.46"
"1216","9390.455"
"1217","9366.567"
"1218","9357.187"
"1219","9361.267"
"1220","9377.474"
"1221","9403.661"
"1222","9436.157"
"1223","9471.121"
"1224","9504.414"
"1225","9530.814"
"1226","9544.843"
"1227","9542.675"
"1228","9532.983"
"1229","9530.152"
"1230","9547.576"
"1231","9580.756"
"1232","9610.015"
"1233","9615.444"
"1234","9592.321"
"1235","9559.271"
"1236","9536.906"
"1237","9538.057"
"1238","9553.264"
"1239","9569.108"
"1240","9574.614"
"1241","9572.359"
"1242","9569.573"
"1243","9573.064"
"1244","9584.945"
"1245","9604.376"
"1246","9630.283"
"1247","9656.648"
"1248","9672.006"
"1249","9664.704"
"1250","9634.077"
"1251","9600.527"
"1252","9586.855"
"1253","9606.475"
"1254","9640.268"
"1255","9662.08"
"1256","9651.569"
"1257","9625.683"
"1258","9616.055"
"1259","9651.09"
"1260","9717.951"
"1261","9775.727"
"1262","9784.216"
"1263","9741.198"
"1264","9687.657"
"1265","9666.732"
"1266","9696.663"
"1267","9748.384"
"1268","9787.508"
"1269","9790.859"
"1270","9771.787"
"1271","9751.06"
"1272","9745.587"
"1273","9750.151"
"1274","9751.729"
"1275","9739.249"
"1276","9721.948"
"1277","9721.017"
"1278","9756.492"
"1279","9820.878"
"1280","9880.692"
"1281","9901.825"
"1282","9872.904"
"1283","9816.576"
"1284","9758.27"
"1285","9715.361"
"1286","9685.877"
"1287","9665.01"
"1288","9648.538"
"1289","9634.6"
"1290","9621.898"
"1291","9610.4"
"1292","9608.237"
"1293","9626.805"
"1294","9675.484"
"1295","9740.896"
"1296","9795.421"
"1297","9812.606"
"1298","9795.673"
"1299","9776.06"
"1300","9785.822"
"1301","9831.203"
"1302","9881.564"
"1303","9903.505"
"1304","9882.072"
"1305","9842.124"
"1306","9813.728"
"1307","9817.406"
"1308","9842.065"
"1309","9870.063"
"1310","9886.742"
"1311","9892.775"
"1312","9893.735"
"1313","9894.754"
"1314","9897.38"
"1315","9901.457"
"1316","9906.431"
"1317","9906.806"
"1318","9893.635"
"1319","9858.655"
"1320","9810.882"
"1321","9776.526"
"1322","9782.068"
"1323","9830.596"
"1324","9892.288"
"1325","9934.946"
"1326","9941.005"
"1327","9922.037"
"1328","9893.088"
"1329","9866.564"
"1330","9847.386"
"1331","9839.165"
"1332","9842.881"
"1333","9848.784"
"1334","9844.393"
"1335","9821.205"
"1336","9794.099"
"1337","9786.41"
"1338","9817.32"
"1339","9870.622"
"1340","9912.341"
"1341","9911.215"
"1342","9871.871"
"1343","9823.334"
"1344","9794.096"
"1345","9792.913"
"1346","9810.676"
"1347","9837.58"
"1348","9862.472"
"1349","9872.573"
"1350","9855.256"
"1351","9813.038"
"1352","9772.126"
"1353","9760.688"
"1354","9789.154"
"1355","9831.653"
"1356","9857.87"
"1357","9848.256"
"1358","9812.179"
"1359","9763.808"
"1360","9717.168"
"1361","9685.746"
"1362","9682.914"
"1363","9715.521"
"1364","9760.325"
"1365","9785.442"
"1366","9765.758"
"1367","9716.832"
"1368","9669.276"
"1369","9650.029"
"1370","9657.14"
"1371","9675.145"
"1372","9689.67"
"1373","9698.291"
"1374","9705.547"
"1375","9715.566"
"1376","9725.914"
"1377","9729.461"
"1378","9719.472"
"1379","9698.136"
"1380","9675.362"
"1381","9661.023"
"1382","9657.688"
"1383","9660.35"
"1384","9663.758"
"1385","9666.301"
"1386","9670.88"
"1387","9680.524"
"1388","9690.735"
"1389","9686.029"
"1390","9650.258"
"1391","9584.679"
"1392","9520.404"
"1393","9491.367"
"1394","9513.375"
"1395","9565.943"
"1396","9624.265"
"1397","9671.441"
"1398","9708.984"
"1399","9741.004"
"1400","9768.057"
"1401","9781.148"
"1402","9769.69"
"1403","9729.993"
"1404","9679.625"
"1405","9640.259"
"1406","9627.802"
"1407","9637.897"
"1408","9661.74"
"1409","9689.492"
"1410","9707.292"
"1411","9700.261"
"1412","9660.172"
"1413","9608.415"
"1414","9574.629"
"1415","9581"
"1416","9612.892"
"1417","9644.314"
"1418","9654.322"
"1419","9649.475"
"1420","9645.627"
"1421","9654.363"
"1422","9661.852"
"1423","9644.951"
"1424","9587.859"
"1425","9521.979"
"1426","9497.329"
"1427","9552.663"
"1428","9649.022"
"1429","9714.854"
"1430","9691.127"
"1431","9611.062"
"1432","9548.671"
"1433","9566.63"
"1434","9639.163"
"1435","9699.648"
"1436","9691.326"
"1437","9638.056"
"1438","9602.217"
"1439","9637.21"
"1440","9720.376"
"1441","9791.768"
"1442","9799.29"
"1443","9759.076"
"1444","9721.27"
"1445","9729.665"
"1446","9772.063"
"1447","9808.12"
"1448","9802.451"
"1449","9763.617"
"1450","9722.247"
"1451","9705.395"
"1452","9708.595"
"1453","9711.703"
"1454","9697.163"
"1455","9669.645"
"1456","9644.696"
"1457","9635.703"
"1458","9638.283"
"1459","9639.596"
"1460","9628.482"
"1461","9607.08"
"1462","9583.625"
"1463","9565.408"
"1464","9552.532"
"1465","9541.957"
"1466","9529.755"
"1467","9506.159"
"1468","9458.958"
"1469","9380.74"
"1470","9294.645"
"1471","9235.794"
"1472","9231.835"
"1473","9266.207"
"1474","9306.236"
"1475","9324.135"
"1476","9318.709"
"1477","9297.687"
"1478","9268.291"
"1479","9235.239"
"1480","9202.48"
"1481","9173.807"
"1482","9152.333"
"1483","9140.989"
"1484","9140.491"
"1485","9142.84"
"1486","9137.878"
"1487","9118.386"
"1488","9087.435"
"1489","9050.354"
"1490","9013.527"
"1491","8986.555"
"1492","8979.655"
"1493","8993.882"
"1494","9005.677"
"1495","8987.457"
"1496","8931.584"
"1497","8876.869"
"1498","8868.531"
"1499","8920.714"
"1500","8985.085"
"1501","9006.225"
"1502","8964.106"
"1503","8899.813"
"1504","8859.986"
"1505","8863.299"
"1506","8887.212"
"1507","8906.172"
"1508","8905.887"
"1509","8886.182"
"1510","8848.086"
"1511","8800.795"
"1512","8762.132"
"1513","8749.293"
"1514","8759.904"
"1515","8774.283"
"1516","8773.387"
"1517","8755.533"
"1518","8731.785"
"1519","8712.906"
"1520","8703.307"
"1521","8703.566"
"1522","8713.822"
"1523","8730.959"
"1524","8750.277"
"1525","8766.72"
"1526","8773.042"
"1527","8761.146"
"1528","8726.107"
"1529","8678.58"
"1530","8633.993"
"1531","8604.317"
"1532","8588.429"
"1533","8582.101"
"1534","8581.328"
"1535","8582.747"
"1536","8583.105"
"1537","8579.627"
"1538","8570.584"
"1539","8554.465"
"1540","8535.726"
"1541","8529.059"
"1542","8549.712"
"1543","8593.835"
"1544","8632.325"
"1545","8635.522"
"1546","8602.308"
"1547","8560.508"
"1548","8537.707"
"1549","8537.729"
"1550","8546.046"
"1551","8548.894"
"1552","8545.217"
"1553","8541.344"
"1554","8543.093"
"1555","8551.962"
"1556","8567.6"
"1557","8587.687"
"1558","8600.192"
"1559","8590.06"
"1560","8549.508"
"1561","8496.223"
"1562","8453.453"
"1563","8434.684"
"1564","8429.235"
"1565","8422.831"
"1566","8409.043"
"1567","8395.288"
"1568","8390.249"
"1569","8397.051"
"1570","8411.775"
"1571","8430.105"
"1572","8448.783"
"1573","8465.498"
"1574","8478.129"
"1575","8486.264"
"1576","8490.586"
"1577","8491.68"
"1578","8489.188"
"1579","8482.342"
"1580","8471.062"
"1581","8458.548"
"1582","8449.006"
"1583","8444.542"
"1584","8440.634"
"1585","8431.457"
"1586","8414.295"
"1587","8392.949"
"1588","8372.087"
"1589","8357.463"
"1590","8356.379"
"1591","8375.547"
"1592","8406.104"
"1593","8424.176"
"1594","8408.308"
"1595","8372.613"
"1596","8354.231"
"1597","8382.985"
"1598","8434.924"
"1599","8463.28"
"1600","8436.184"
"1601","8386.21"
"1602","8363.206"
"1603","8392.346"
"1604","8432.788"
"1605","8433.209"
"1606","8380.208"
"1607","8324.814"
"1608","8322.6"
"1609","8380.66"
"1610","8452.961"
"1611","8493.753"
"1612","8497.469"
"1613","8486.871"
"1614","8482.299"
"1615","8481.989"
"1616","8474.405"
"1617","8453.307"
"1618","8435.227"
"1619","8442.753"
"1620","8483.853"
"1621","8529.556"
"1622","8545.431"
"1623","8516.358"
"1624","8456.921"
"1625","8384.646"
"1626","8325.326"
"1627","8312.611"
"1628","8374.49"
"1629","8477.858"
"1630","8554.014"
"1631","8549.297"
"1632","8495.93"
"1633","8455.624"
"1634","8468.842"
"1635","8509.812"
"1636","8540.102"
"1637","8539.916"
"1638","8522.916"
"1639","8506.04"
"1640","8500.245"
"1641","8510.118"
"1642","8539.131"
"1643","8581.658"
"1644","8626.338"
"1645","8662.821"
"1646","8687.2"
"1647","8697.867"
"1648","8693.526"
"1649","8673.848"
"1650","8638.767"
"1651","8595.045"
"1652","8561.221"
"1653","8556.032"
"1654","8575.428"
"1655","8592.824"
"1656","8583.422"
"1657","8549.591"
"1658","8508.956"
"1659","8476.343"
"1660","8452.011"
"1661","8431.812"
"1662","8414.498"
"1663","8406.204"
"1664","8413.973"
"1665","8432.976"
"1666","8441.999"
"1667","8420.444"
"1668","8375.054"
"1669","8333.521"
"1670","8320.227"
"1671","8333.559"
"1672","8361.187"
"1673","8388.476"
"1674","8393.265"
"1675","8352.104"
"1676","8266.946"
"1677","8183.473"
"1678","8149.293"
"1679","8162.748"
"1680","8176.695"
"1681","8148.639"
"1682","8088.373"
"1683","8031.191"
"1684","8002.067"
"1685","7985.287"
"1686","7955.444"
"1687","7904.677"
"1688","7858.622"
"1689","7845.49"
"1690","7865.331"
"1691","7890.306"
"1692","7894.087"
"1693","7873.911"
"1694","7839.03"
"1695","7799.09"
"1696","7764.879"
"1697","7747.389"
"1698","7748.912"
"1699","7755.381"
"1700","7751.527"
"1701","7735.203"
"1702","7716.692"
"1703","7705.539"
"1704","7701.495"
"1705","7699.692"
"1706","7695.312"
"1707","7683.812"
"1708","7660.819"
"1709","7629.988"
"1710","7608.13"
"1711","7612.075"
"1712","7638.642"
"1713","7668.479"
"1714","7683.992"
"1715","7681.701"
"1716","7663.558"
"1717","7636.404"
"1718","7620.419"
"1719","7637.343"
"1720","7680.983"
"1721","7709.386"
"1722","7683.175"
"1723","7617.25"
"1724","7559.825"
"1725","7547.472"
"1726","7563.096"
"1727","7574.951"
"1728","7566.294"
"1729","7549.28"
"1730","7538.894"
"1731","7541.174"
"1732","7554.137"
"1733","7574.104"
"1734","7588.004"
"1735","7578.928"
"1736","7539.846"
"1737","7490.983"
"1738","7456.758"
"1739","7444.518"
"1740","7440.694"
"1741","7432.73"
"1742","7430.235"
"1743","7455.174"
"1744","7515.597"
"1745","7567.036"
"1746","7553.389"
"1747","7462.939"
"1748","7353.969"
"1749","7287.385"
"1750","7276.115"
"1751","7299.323"
"1752","7337.532"
"1753","7381.243"
"1754","7423.883"
"1755","7458.883"
"1756","7479.683"
"1757","7480.239"
"1758","7463.447"
"1759","7439.639"
"1760","7418.337"
"1761","7403.133"
"1762","7395.534"
"1763","7393.631"
"1764","7388.072"
"1765","7369.022"
"1766","7337.086"
"1767","7302.509"
"1768","7275.627"
"1769","7264.987"
"1770","7278.421"
"1771","7313.432"
"1772","7343.42"
"1773","7339.69"
"1774","7303.508"
"1775","7265.036"
"1776","7250.998"
"1777","7258.468"
"1778","7272.923"
"1779","7285.597"
"1780","7301.287"
"1781","7326.225"
"1782","7356.065"
"1783","7376.441"
"1784","7375.437"
"1785","7358.537"
"1786","7337.727"
"1787","7320.069"
"1788","7301.749"
"1789","7278.009"
"1790","7253.29"
"1791","7240.05"
"1792","7247.182"
"1793","7262.772"
"1794","7267.995"
"1795","7255.441"
"1796","7239.756"
"1797","7236.704"
"1798","7241.181"
"1799","7232.276"
"1800","7197.813"
"1801","7166.574"
"1802","7178.302"
"1803","7236.79"
"1804","7288.316"
"1805","7279.96"
"1806","7225.475"
"1807","7179.789"
"1808","7179.522"
"1809","7195.367"
"1810","7184.689"
"1811","7141.497"
"1812","7105.694"
"1813","7113.047"
"1814","7143.803"
"1815","7152.163"
"1816","7118.989"
"1817","7093.17"
"1818","7130.791"
"1819","7217.14"
"1820","7271.914"
"1821","7232.93"
"1822","7148.11"
"1823","7101.256"
"1824","7124.248"
"1825","7157.315"
"1826","7137.541"
"1827","7075.278"
"1828","7028.057"
"1829","7034.852"
"1830","7068.141"
"1831","7086.981"
"1832","7077.394"
"1833","7057.055"
"1834","7043.815"
"1835","7044.286"
"1836","7060.403"
"1837","7088.839"
"1838","7115.22"
"1839","7124.563"
"1840","7113.706"
"1841","7088.237"
"1842","7054.533"
"1843","7021.216"
"1844","6997.382"
"1845","6989.26"
"1846","6999.452"
"1847","7027.853"
"1848","7056.833"
"1849","7061.262"
"1850","7034.419"
"1851","7008.78"
"1852","7018.776"
"1853","7056.045"
"1854","7081.331"
"1855","7067.478"
"1856","7033.799"
"1857","7009.579"
"1858","7007.065"
"1859","7018.828"
"1860","7036.019"
"1861","7047.861"
"1862","7042.927"
"1863","7019.628"
"1864","6994.149"
"1865","6983.36"
"1866","6991.362"
"1867","7014.63"
"1868","7042.542"
"1869","7044.821"
"1870","6990.431"
"1871","6900.958"
"1872","6845.2"
"1873","6872.589"
"1874","6939.435"
"1875","6977.445"
"1876","6961.866"
"1877","6924.937"
"1878","6899.404"
"1879","6894.89"
"1880","6911.419"
"1881","6941.823"
"1882","6965.528"
"1883","6962.266"
"1884","6930.883"
"1885","6881.547"
"1886","6827.791"
"1887","6791.632"
"1888","6794.983"
"1889","6834.25"
"1890","6885.074"
"1891","6922.44"
"1892","6921.395"
"1893","6858.688"
"1894","6758.264"
"1895","6695.308"
"1896","6726.393"
"1897","6798.394"
"1898","6824.271"
"1899","6781.233"
"1900","6737.506"
"1901","6755.95"
"1902","6813.472"
"1903","6850.92"
"1904","6841.537"
"1905","6817.46"
"1906","6813.492"
"1907","6831.255"
"1908","6854.546"
"1909","6869.437"
"1910","6867.592"
"1911","6843.078"
"1912","6809.711"
"1913","6794.398"
"1914","6811.022"
"1915","6836.464"
"1916","6842.489"
"1917","6821.776"
"1918","6783.537"
"1919","6736.935"
"1920","6689.327"
"1921","6648.097"
"1922","6627.786"
"1923","6649.544"
"1924","6722.426"
"1925","6806.929"
"1926","6852.562"
"1927","6835.307"
"1928","6758.807"
"1929","6637.53"
"1930","6528.344"
"1931","6498.1"
"1932","6550.522"
"1933","6616.202"
"1934","6637.44"
"1935","6636.013"
"1936","6657.342"
"1937","6708.892"
"1938","6750.52"
"1939","6748.873"
"1940","6723.718"
"1941","6711.954"
"1942","6722.68"
"1943","6728.188"
"1944","6704.191"
"1945","6660.347"
"1946","6618.004"
"1947","6588.849"
"1948","6571.362"
"1949","6563.563"
"1950","6566.313"
"1951","6581.183"
"1952","6596.964"
"1953","6584.933"
"1954","6525.763"
"1955","6461.392"
"1956","6454.27"
"1957","6510.703"
"1958","6561.407"
"1959","6547.4"
"1960","6496.945"
"1961","6467.168"
"1962","6473.42"
"1963","6477.121"
"1964","6446.209"
"1965","6401.239"
"1966","6379.162"
"1967","6395.977"
"1968","6442.379"
"1969","6503.24"
"1970","6543.26"
"1971","6522.867"
"1972","6452.001"
"1973","6395.174"
"1974","6398.512"
"1975","6418.42"
"1976","6390.628"
"1977","6318.506"
"1978","6272"
"1979","6298.467"
"1980","6352.29"
"1981","6369.639"
"1982","6341.498"
"1983","6305.861"
"1984","6291.641"
"1985","6294.895"
"1986","6305.402"
"1987","6313.36"
"1988","6309.278"
"1989","6295.135"
"1990","6302.016"
"1991","6359.636"
"1992","6433.691"
"1993","6451.345"
"1994","6379.122"
"1995","6265.799"
"1996","6167.097"
"1997","6111.425"
"1998","6113.638"
"1999","6165.955"
"2000","6223.704"
"2001","6245.151"
"2002","6228.556"
"2003","6187.483"
"2004","6140.125"
"2005","6110.536"
"2006","6116.088"
"2007","6141.559"
"2008","6163.031"
"2009","6171.49"
"2010","6172.55"
"2011","6168.522"
"2012","6148.65"
"2013","6101.813"
"2014","6050.11"
"2015","6040.012"
"2016","6088.76"
"2017","6142.271"
"2018","6143.49"
"2019","6104.875"
"2020","6075.727"
"2021","6078.482"
"2022","6089.242"
"2023","6082.685"
"2024","6052.553"
"2025","6000.211"
"2026","5943.59"
"2027","5920.442"
"2028","5953.878"
"2029","6003.525"
"2030","6015.521"
"2031","5977.956"
"2032","5913.705"
"2033","5848.949"
"2034","5815.517"
"2035","5840.876"
"2036","5900.918"
"2037","5942.994"
"2038","5935.596"
"2039","5883.804"
"2040","5802.53"
"2041","5742.611"
"2042","5765.207"
"2043","5856.907"
"2044","5921.692"
"2045","5897.023"
"2046","5852.901"
"2047","5880.191"
"2048","5960.439"
"2049","5998.052"
"2050","5945.876"
"2051","5862.61"
"2052","5812.901"
"2053","5806.671"
"2054","5829.666"
"2055","5851.499"
"2056","5821.194"
"2057","5711.375"
"2058","5595.299"
"2059","5565.299"
"2060","5615.64"
"2061","5664.344"
"2062","5665.618"
"2063","5660.45"
"2064","5692.09"
"2065","5730.48"
"2066","5713.623"
"2067","5633.893"
"2068","5554.714"
"2069","5528.605"
"2070","5545.484"
"2071","5580.544"
"2072","5619.778"
"2073","5657.178"
"2074","5682.077"
"2075","5673.704"
"2076","5617.754"
"2077","5551.808"
"2078","5533.029"
"2079","5566.974"
"2080","5599.761"
"2081","5591.619"
"2082","5560.953"
"2083","5535.693"
"2084","5515.044"
"2085","5480.621"
"2086","5435.605"
"2087","5420.204"
"2088","5463.743"
"2089","5521.806"
"2090","5529.979"
"2091","5488.145"
"2092","5453.208"
"2093","5461.125"
"2094","5492.176"
"2095","5520.721"
"2096","5538.829"
"2097","5546.124"
"2098","5530.84"
"2099","5467.486"
"2100","5351.71"
"2101","5252.155"
"2102","5243.545"
"2103","5303.038"
"2104","5350.289"
"2105","5351.25"
"2106","5345.25"
"2107","5363.895"
"2108","5376.934"
"2109","5341.168"
"2110","5271.611"
"2111","5226.69"
"2112","5236.576"
"2113","5274.733"
"2114","5310.955"
"2115","5330.886"
"2116","5326.446"
"2117","5307.397"
"2118","5299.399"
"2119","5310.789"
"2120","5308.887"
"2121","5263.995"
"2122","5203.422"
"2123","5175.42"
"2124","5183.054"
"2125","5183.353"
"2126","5154.085"
"2127","5132.317"
"2128","5153.838"
"2129","5175.083"
"2130","5119.905"
"2131","4990.142"
"2132","4874.15"
"2133","4839.854"
"2134","4884.886"
"2135","4988.473"
"2136","5081.66"
"2137","5075.625"
"2138","4970.97"
"2139","4871.204"
"2140","4849.952"
"2141","4878.393"
"2142","4910.057"
"2143","4903.791"
"2144","4823.535"
"2145","4712.443"
"2146","4703.761"
"2147","4856.226"
"2148","5006.781"
"2149","4986.378"
"2150","4872.519"
"2151","4848.689"
"2152","4939.005"
"2153","4995.215"
"2154","4925.812"
"2155","4808.549"
"2156","4737.597"
"2157","4733.942"
"2158","4786.854"
"2159","4852.985"
"2160","4857.429"
"2161","4775.13"
"2162","4697.833"
"2163","4709.302"
"2164","4751.736"
"2165","4722.715"
"2166","4629.979"
"2167","4573.906"
"2168","4597.172"
"2169","4625.61"
"2170","4598.242"
"2171","4580.062"
"2172","4661.827"
"2173","4783.979"
"2174","4784.017"
"2175","4629.237"
"2176","4492.617"
"2177","4504.291"
"2178","4569.813"
"2179","4558.972"
"2180","4493.609"
"2181","4476.629"
"2182","4527.157"
"2183","4561.734"
"2184","4523.937"
"2185","4448.574"
"2186","4380.565"
"2187","4328.455"
"2188","4286.636"
"2189","4262.608"
"2190","4275.618"
"2191","4326.396"
"2192","4378.462"
"2193","4400.052"
"2194","4401.295"
"2195","4401.606"
"2196","4389.153"
"2197","4332.829"
"2198","4240.457"
"2199","4173.608"
"2200","4172.515"
"2201","4200.913"
"2202","4213.377"
"2203","4202.487"
"2204","4177.422"
"2205","4150.463"
"2206","4136.632"
"2207","4142.33"
"2208","4156.999"
"2209","4168.076"
"2210","4162.939"
"2211","4131.435"
"2212","4089.767"
"2213","4069.108"
"2214","4075.879"
"2215","4085.985"
"2216","4080.564"
"2217","4059.093"
"2218","4025.008"
"2219","3987.855"
"2220","3959.605"
"2221","3955.103"
"2222","3990.8"
"2223","4052.458"
"2224","4079.676"
"2225","4039.879"
"2226","4000.572"
"2227","4030.677"
"2228","4069.648"
"2229","4008.812"
"2230","3873.697"
"2231","3805.204"
"2232","3849.234"
"2233","3881.624"
"2234","3809.482"
"2235","3712.85"
"2236","3693.476"
"2237","3717.566"
"2238","3692.103"
"2239","3625.242"
"2240","3619.273"
"2241","3705.463"
"2242","3778.886"
"2243","3756.001"
"2244","3688.401"
"2245","3650.547"
"2246","3645.184"
"2247","3640.647"
"2248","3609.867"
"2249","3530.655"
"2250","3415.62"
"2251","3339.345"
"2252","3354.07"
"2253","3407.949"
"2254","3433.88"
"2255","3427.497"
"2256","3412.137"
"2257","3394.551"
"2258","3366.843"
"2259","3317.301"
"2260","3228.812"
"2261","3101.865"
"2262","2994.506"
"2263","2963.743"
"2264","2984.349"
"2265","2999.929"
"2266","2979.048"
"2267","2909.881"
"2268","2813.764"
"2269","2757.262"
"2270","2771.745"
"2271","2787.803"
"2272","2742.344"
"2273","2689.378"
"2274","2708.696"
"2275","2752.032"
"2276","2698.254"
"2277","2564.777"
"2278","2521.698"
"2279","2621.334"
"2280","2664.887"
"2281","2502.095"
"2282","2281.231"
"2283","2191.319"
"2284","2195.008"
"2285","2161.137"
"2286","2094.549"
"2287","2108.864"
"2288","2208.556"
"2289","2236.867"
"2290","2105.655"
"2291","1937.886"
"2292","1859.316"
"2293","1842.114"
"2294","1818.879"
"2295","1793.111"
"2296","1804.993"
"2297","1832.999"
"2298","1795.893"
"2299","1669.991"
"2300","1533.022"
