,"Scan 01079"
"400","31345.91"
"401","31268.55"
"402","31153.97"
"403","31034.05"
"404","30940.5"
"405","30900.96"
"406","30910.17"
"407","30946.2"
"408","30987.17"
"409","31012.22"
"410","31011.96"
"411","30984.97"
"412","30930.01"
"413","30846.36"
"414","30744.13"
"415","30643.5"
"416","30564.89"
"417","30528.07"
"418","30534.75"
"419","30564.46"
"420","30595.48"
"421","30606.44"
"422","30586.83"
"423","30543.55"
"424","30485.05"
"425","30419.72"
"426","30354.85"
"427","30295.51"
"428","30246.47"
"429","30212.49"
"430","30195.09"
"431","30187.24"
"432","30180.52"
"433","30166.57"
"434","30139.22"
"435","30099.75"
"436","30051.03"
"437","29995.9"
"438","29937.2"
"439","29877.71"
"440","29820.2"
"441","29767.42"
"442","29721.83"
"443","29684.3"
"444","29655.2"
"445","29634.88"
"446","29623.05"
"447","29614.94"
"448","29603.97"
"449","29583.62"
"450","29548.46"
"451","29502.09"
"452","29452.52"
"453","29407.74"
"454","29374.68"
"455","29350.22"
"456","29325.51"
"457","29291.65"
"458","29240.63"
"459","29174.25"
"460","29100.77"
"461","29028.5"
"462","28965.26"
"463","28912.25"
"464","28865.67"
"465","28821.66"
"466","28776.63"
"467","28731.17"
"468","28689.41"
"469","28655.54"
"470","28633.47"
"471","28621.73"
"472","28613.99"
"473","28603.74"
"474","28584.79"
"475","28556.86"
"476","28525.55"
"477","28496.66"
"478","28475.72"
"479","28461.7"
"480","28446.58"
"481","28422.09"
"482","28380.27"
"483","28321.17"
"484","28253.77"
"485","28187.48"
"486","28131.46"
"487","28087.99"
"488","28051.49"
"489","28015.94"
"490","27975.52"
"491","27929.38"
"492","27882.58"
"493","27840.5"
"494","27808.38"
"495","27787.53"
"496","27774.5"
"497","27765.58"
"498","27757.13"
"499","27746.13"
"500","27730.37"
"501","27707.68"
"502","27676.05"
"503","27637.45"
"504","27598.57"
"505","27566.35"
"506","27547.9"
"507","27556.63"
"508","27613.22"
"509","27738.66"
"510","27953.07"
"511","28255.85"
"512","28623.49"
"513","29031.41"
"514","29454.92"
"515","29862.94"
"516","30217.67"
"517","30481.24"
"518","30617.03"
"519","30613.13"
"520","30481.7"
"521","30235.86"
"522","29889.38"
"523","29469.97"
"524","29017.94"
"525","28573.79"
"526","28176.39"
"527","27840.38"
"528","27560.53"
"529","27331.05"
"530","27145.96"
"531","26995.68"
"532","26868.02"
"533","26750.81"
"534","26633.11"
"535","26517.68"
"536","26416.22"
"537","26340.53"
"538","26300.5"
"539","26287.9"
"540","26284.29"
"541","26271.2"
"542","26232.53"
"543","26171"
"544","26098.42"
"545","26026.59"
"546","25965.97"
"547","25918.48"
"548","25882.51"
"549","25856.45"
"550","25838.26"
"551","25823.5"
"552","25806.89"
"553","25783.22"
"554","25748.86"
"555","25707.03"
"556","25662.86"
"557","25621.42"
"558","25586.36"
"559","25556.3"
"560","25528.77"
"561","25501.33"
"562","25472.79"
"563","25445.51"
"564","25422.37"
"565","25406.26"
"566","25397.5"
"567","25390.9"
"568","25380.59"
"569","25360.76"
"570","25329.07"
"571","25288.95"
"572","25244.36"
"573","25199.22"
"574","25155.74"
"575","25113.95"
"576","25073.73"
"577","25035.02"
"578","24999.33"
"579","24969.75"
"580","24949.38"
"581","24940.96"
"582","24941.2"
"583","24942.29"
"584","24936.38"
"585","24916.52"
"586","24884.81"
"587","24848.42"
"588","24814.59"
"589","24789.49"
"590","24772.46"
"591","24760.07"
"592","24748.89"
"593","24735.83"
"594","24719.48"
"595","24698.95"
"596","24673.3"
"597","24642.67"
"598","24610.58"
"599","24581.18"
"600","24558.63"
"601","24544.09"
"602","24532.21"
"603","24516.78"
"604","24491.7"
"605","24455.8"
"606","24415.49"
"607","24377.79"
"608","24349.55"
"609","24333.63"
"610","24328.63"
"611","24332.98"
"612","24344.84"
"613","24358.94"
"614","24367.52"
"615","24362.78"
"616","24338.37"
"617","24299.74"
"618","24258.17"
"619","24224.91"
"620","24208.53"
"621","24203.85"
"622","24201.34"
"623","24191.49"
"624","24168.49"
"625","24138.31"
"626","24109.21"
"627","24089.43"
"628","24082.66"
"629","24083.59"
"630","24085.79"
"631","24083.02"
"632","24074.35"
"633","24065.64"
"634","24063.25"
"635","24072.81"
"636","24089.37"
"637","24099.14"
"638","24088.16"
"639","24044.88"
"640","23978.56"
"641","23909.26"
"642","23857.04"
"643","23837.44"
"644","23843.86"
"645","23862.84"
"646","23880.96"
"647","23888.09"
"648","23883.32"
"649","23867.39"
"650","23841.09"
"651","23806.8"
"652","23769.61"
"653","23734.9"
"654","23707.85"
"655","23689.63"
"656","23677.42"
"657","23668.2"
"658","23659.1"
"659","23648.7"
"660","23636.47"
"661","23621.86"
"662","23604.31"
"663","23582.96"
"664","23556.87"
"665","23525.12"
"666","23488.68"
"667","23454.26"
"668","23429.56"
"669","23422.2"
"670","23432.69"
"671","23449.93"
"672","23461.77"
"673","23456.58"
"674","23432.94"
"675","23398.93"
"676","23362.95"
"677","23332.89"
"678","23312.25"
"679","23302.23"
"680","23304.02"
"681","23317.59"
"682","23337.6"
"683","23357.29"
"684","23369.93"
"685","23371.85"
"686","23366.27"
"687","23357.33"
"688","23349.11"
"689","23343.8"
"690","23341.43"
"691","23341.86"
"692","23344.72"
"693","23346.71"
"694","23342.64"
"695","23327.32"
"696","23297.3"
"697","23258.37"
"698","23219.3"
"699","23188.82"
"700","23172.51"
"701","23167.87"
"702","23171.17"
"703","23178.68"
"704","23185.65"
"705","23186.06"
"706","23173.84"
"707","23143.68"
"708","23099.46"
"709","23051.11"
"710","23008.63"
"711","22979.71"
"712","22960.26"
"713","22942.43"
"714","22918.4"
"715","22883.91"
"716","22843.09"
"717","22801.32"
"718","22763.89"
"719","22734.74"
"720","22716.21"
"721","22710.59"
"722","22719.27"
"723","22735.26"
"724","22746.85"
"725","22742.29"
"726","22714.11"
"727","22672.3"
"728","22631.3"
"729","22605.46"
"730","22601.34"
"731","22611.27"
"732","22626.04"
"733","22636.79"
"734","22640.27"
"735","22638.13"
"736","22632.19"
"737","22623.95"
"738","22613.07"
"739","22598.41"
"740","22578.87"
"741","22554.87"
"742","22531.08"
"743","22512.85"
"744","22505.39"
"745","22509.44"
"746","22520.3"
"747","22532.99"
"748","22542.98"
"749","22550.27"
"750","22557.32"
"751","22566.6"
"752","22579.16"
"753","22590.73"
"754","22595.85"
"755","22589.19"
"756","22571.59"
"757","22553.46"
"758","22545.95"
"759","22559.06"
"760","22588.15"
"761","22618.65"
"762","22635.82"
"763","22628.99"
"764","22605.52"
"765","22577.76"
"766","22558"
"767","22550.73"
"768","22546.71"
"769","22535.26"
"770","22506.77"
"771","22466.97"
"772","22433.17"
"773","22422.97"
"774","22448.5"
"775","22495.15"
"776","22540.17"
"777","22560.95"
"778","22548.82"
"779","22521.11"
"780","22498"
"781","22498.36"
"782","22521.63"
"783","22552.26"
"784","22574.31"
"785","22575.21"
"786","22558.63"
"787","22533.11"
"788","22507.16"
"789","22487.61"
"790","22478.3"
"791","22482.74"
"792","22503.68"
"793","22533.86"
"794","22558.84"
"795","22563.97"
"796","22539.86"
"797","22499.36"
"798","22461.33"
"799","22444.38"
"800","22453.96"
"801","22474.94"
"802","22490.39"
"803","22484.94"
"804","22459.98"
"805","22427.13"
"806","22398.13"
"807","22381.47"
"808","22374.47"
"809","22372.02"
"810","22369.1"
"811","22364.82"
"812","22363.41"
"813","22369.41"
"814","22386.42"
"815","22410.66"
"816","22434.85"
"817","22451.71"
"818","22456.05"
"819","22447.91"
"820","22428.16"
"821","22397.86"
"822","22361.26"
"823","22325.67"
"824","22298.47"
"825","22285.54"
"826","22284.94"
"827","22292.16"
"828","22302.7"
"829","22312.63"
"830","22318.98"
"831","22318.88"
"832","22309.92"
"833","22295.1"
"834","22280.73"
"835","22273.15"
"836","22276.48"
"837","22287.64"
"838","22302.08"
"839","22315.29"
"840","22323.14"
"841","22321.91"
"842","22307.89"
"843","22279.3"
"844","22245.79"
"845","22221.27"
"846","22219.6"
"847","22245.56"
"848","22287.14"
"849","22330.46"
"850","22362.4"
"851","22377.92"
"852","22377.16"
"853","22360.36"
"854","22330.12"
"855","22296.59"
"856","22271.37"
"857","22265.63"
"858","22279.51"
"859","22301.89"
"860","22321.14"
"861","22328.16"
"862","22327.27"
"863","22327.19"
"864","22336.55"
"865","22357.75"
"866","22383.29"
"867","22404.83"
"868","22415.09"
"869","22416.31"
"870","22415.67"
"871","22420.36"
"872","22433.89"
"873","22450.93"
"874","22464.82"
"875","22469.44"
"876","22466.3"
"877","22462.73"
"878","22466.22"
"879","22480.56"
"880","22496.19"
"881","22500.58"
"882","22481.84"
"883","22444.73"
"884","22412.01"
"885","22407.28"
"886","22447.35"
"887","22513.27"
"888","22574.46"
"889","22600.78"
"890","22584.62"
"891","22551.51"
"892","22529.59"
"893","22542.48"
"894","22580.4"
"895","22618.58"
"896","22632.29"
"897","22611.62"
"898","22575.48"
"899","22546.12"
"900","22543.49"
"901","22564.47"
"902","22592.37"
"903","22610.31"
"904","22607.89"
"905","22590.93"
"906","22567.75"
"907","22546.43"
"908","22531.55"
"909","22525.15"
"910","22529.21"
"911","22543.37"
"912","22560.02"
"913","22570.1"
"914","22565.18"
"915","22548.16"
"916","22532.11"
"917","22530.4"
"918","22550.58"
"919","22577.66"
"920","22591.27"
"921","22572.01"
"922","22524.9"
"923","22480.31"
"924","22469.77"
"925","22514.81"
"926","22591.99"
"927","22665.23"
"928","22699.29"
"929","22686.65"
"930","22652.19"
"931","22622.65"
"932","22619.14"
"933","22634.12"
"934","22650.98"
"935","22653.46"
"936","22637.84"
"937","22616.56"
"938","22603.08"
"939","22608.02"
"940","22626.15"
"941","22646.79"
"942","22659.4"
"943","22659.68"
"944","22651.8"
"945","22640.55"
"946","22630.09"
"947","22620.95"
"948","22612.42"
"949","22603.75"
"950","22595.31"
"951","22588.9"
"952","22586.45"
"953","22589.2"
"954","22594.38"
"955","22597.78"
"956","22595.22"
"957","22584.46"
"958","22565.95"
"959","22540.3"
"960","22508.92"
"961","22477.49"
"962","22453.23"
"963","22443.26"
"964","22450.4"
"965","22471.79"
"966","22504.14"
"967","22542.91"
"968","22576.75"
"969","22592.03"
"970","22575.59"
"971","22530.98"
"972","22482.46"
"973","22455.59"
"974","22468.06"
"975","22499.45"
"976","22517.78"
"977","22492.17"
"978","22423.84"
"979","22349.97"
"980","22309.64"
"981","22330.25"
"982","22389.52"
"983","22451.93"
"984","22483.17"
"985","22475.81"
"986","22448.87"
"987","22422.51"
"988","22412.53"
"989","22419.02"
"990","22438.53"
"991","22467.48"
"992","22500.25"
"993","22529.47"
"994","22547.71"
"995","22551.35"
"996","22548.08"
"997","22547.66"
"998","22558.91"
"999","22578.73"
"1000","22595.74"
"1001","22598.42"
"1002","22581.81"
"1003","22556.46"
"1004","22535.19"
"1005","22530.79"
"1006","22553.25"
"1007","22593.49"
"1008","22634.56"
"1009","22659.7"
"1010","22662.79"
"1011","22652.98"
"1012","22640.61"
"1013","22634.63"
"1014","22636.56"
"1015","22645.44"
"1016","22660.21"
"1017","22678.71"
"1018","22697.4"
"1019","22712.65"
"1020","22722.13"
"1021","22728.81"
"1022","22737.1"
"1023","22751.11"
"1024","22768.55"
"1025","22781.3"
"1026","22780.99"
"1027","22763.96"
"1028","22741.43"
"1029","22727.52"
"1030","22735.17"
"1031","22761.29"
"1032","22791.59"
"1033","22811.55"
"1034","22813.05"
"1035","22802.37"
"1036","22787.8"
"1037","22777.19"
"1038","22774.16"
"1039","22780.26"
"1040","22796.96"
"1041","22821.79"
"1042","22846.05"
"1043","22860.46"
"1044","22858.3"
"1045","22847.12"
"1046","22839.36"
"1047","22847.06"
"1048","22870.62"
"1049","22897.63"
"1050","22915.05"
"1051","22914.11"
"1052","22901.19"
"1053","22886.04"
"1054","22877.61"
"1055","22874.33"
"1056","22866.93"
"1057","22846.02"
"1058","22810.82"
"1059","22779.38"
"1060","22772.26"
"1061","22805.91"
"1062","22865.93"
"1063","22923.85"
"1064","22951.63"
"1065","22941.26"
"1066","22911.78"
"1067","22884.14"
"1068","22874.17"
"1069","22876.05"
"1070","22878.28"
"1071","22870"
"1072","22851.36"
"1073","22831.34"
"1074","22819.21"
"1075","22819.04"
"1076","22822.88"
"1077","22821.06"
"1078","22805.6"
"1079","22781.39"
"1080","22759.26"
"1081","22749.85"
"1082","22754.54"
"1083","22762.72"
"1084","22762.98"
"1085","22748.85"
"1086","22732.83"
"1087","22731.98"
"1088","22761.4"
"1089","22810.21"
"1090","22849.09"
"1091","22848.5"
"1092","22799.15"
"1093","22730.88"
"1094","22678"
"1095","22668.36"
"1096","22692.24"
"1097","22726.43"
"1098","22748.32"
"1099","22749.45"
"1100","22735.33"
"1101","22712.06"
"1102","22685.45"
"1103","22660.55"
"1104","22642.28"
"1105","22634.76"
"1106","22635.87"
"1107","22640.45"
"1108","22643.42"
"1109","22643.77"
"1110","22645.58"
"1111","22653.28"
"1112","22669.15"
"1113","22688.31"
"1114","22704.34"
"1115","22711.32"
"1116","22708.67"
"1117","22698.93"
"1118","22684.69"
"1119","22668.48"
"1120","22652.79"
"1121","22640.1"
"1122","22632.57"
"1123","22631.11"
"1124","22636.31"
"1125","22648.54"
"1126","22665.28"
"1127","22682.17"
"1128","22694.82"
"1129","22700.28"
"1130","22697.88"
"1131","22687.14"
"1132","22668.57"
"1133","22646.59"
"1134","22626.66"
"1135","22613.9"
"1136","22608.96"
"1137","22609.58"
"1138","22613.43"
"1139","22618.96"
"1140","22625.82"
"1141","22633.8"
"1142","22642.4"
"1143","22650.18"
"1144","22655.45"
"1145","22656.76"
"1146","22655.29"
"1147","22653.84"
"1148","22655.22"
"1149","22660.27"
"1150","22667.04"
"1151","22673.33"
"1152","22676.98"
"1153","22675.82"
"1154","22667.68"
"1155","22651.39"
"1156","22635.03"
"1157","22631.58"
"1158","22653.58"
"1159","22696.83"
"1160","22737.13"
"1161","22749.08"
"1162","22720.25"
"1163","22673.76"
"1164","22638.83"
"1165","22639.97"
"1166","22669.71"
"1167","22707.32"
"1168","22732.64"
"1169","22738.34"
"1170","22728.99"
"1171","22709.61"
"1172","22687.11"
"1173","22672.26"
"1174","22676.29"
"1175","22705.51"
"1176","22743.09"
"1177","22765.48"
"1178","22751.52"
"1179","22708.33"
"1180","22661.55"
"1181","22636.77"
"1182","22643.19"
"1183","22667.55"
"1184","22694.93"
"1185","22714.31"
"1186","22726.06"
"1187","22732.66"
"1188","22736.74"
"1189","22741.83"
"1190","22751.86"
"1191","22770.26"
"1192","22791.55"
"1193","22802.52"
"1194","22789.86"
"1195","22753.64"
"1196","22717.62"
"1197","22707.97"
"1198","22740.13"
"1199","22789.15"
"1200","22820.54"
"1201","22805.01"
"1202","22757.03"
"1203","22713.11"
"1204","22708.45"
"1205","22744.28"
"1206","22787.93"
"1207","22805.46"
"1208","22782.89"
"1209","22745.57"
"1210","22723.41"
"1211","22737.6"
"1212","22774"
"1213","22809.54"
"1214","22823.78"
"1215","22819.23"
"1216","22810.3"
"1217","22810.88"
"1218","22820.14"
"1219","22822.79"
"1220","22802.96"
"1221","22756.3"
"1222","22699.94"
"1223","22653.38"
"1224","22631.44"
"1225","22631.71"
"1226","22647.79"
"1227","22673.15"
"1228","22700.32"
"1229","22721.41"
"1230","22729.05"
"1231","22725.53"
"1232","22721.32"
"1233","22727.01"
"1234","22744.43"
"1235","22761.95"
"1236","22766.81"
"1237","22752.64"
"1238","22731.43"
"1239","22718.42"
"1240","22724.86"
"1241","22739.98"
"1242","22745.42"
"1243","22725.05"
"1244","22687.86"
"1245","22658.63"
"1246","22661.51"
"1247","22697.09"
"1248","22739.99"
"1249","22763.65"
"1250","22756.07"
"1251","22733.26"
"1252","22714.4"
"1253","22713.17"
"1254","22724.22"
"1255","22738.08"
"1256","22746.47"
"1257","22748.78"
"1258","22747.42"
"1259","22744.63"
"1260","22740.02"
"1261","22731.48"
"1262","22716.96"
"1263","22697.64"
"1264","22678.42"
"1265","22664.4"
"1266","22658.52"
"1267","22659.77"
"1268","22666.67"
"1269","22677.26"
"1270","22688.01"
"1271","22695.06"
"1272","22695.1"
"1273","22687.78"
"1274","22673.83"
"1275","22654.34"
"1276","22634.22"
"1277","22620.61"
"1278","22620.29"
"1279","22631.72"
"1280","22645.47"
"1281","22651.91"
"1282","22647.24"
"1283","22636.38"
"1284","22624.94"
"1285","22616.56"
"1286","22610.14"
"1287","22603.89"
"1288","22596.62"
"1289","22589.7"
"1290","22585.05"
"1291","22583.88"
"1292","22582.34"
"1293","22574.54"
"1294","22555.67"
"1295","22532.94"
"1296","22521.06"
"1297","22534.07"
"1298","22568.56"
"1299","22604.58"
"1300","22621.76"
"1301","22613.13"
"1302","22590.86"
"1303","22568.56"
"1304","22555.52"
"1305","22551.62"
"1306","22555.56"
"1307","22565.47"
"1308","22577.73"
"1309","22588.38"
"1310","22594.44"
"1311","22598.02"
"1312","22602.9"
"1313","22611.86"
"1314","22619.85"
"1315","22618.07"
"1316","22598.74"
"1317","22567.49"
"1318","22539.36"
"1319","22529.06"
"1320","22539.27"
"1321","22560.71"
"1322","22583.66"
"1323","22602.06"
"1324","22615.05"
"1325","22622.18"
"1326","22625.27"
"1327","22630.69"
"1328","22645.36"
"1329","22671.23"
"1330","22696.2"
"1331","22705.68"
"1332","22690.01"
"1333","22659.79"
"1334","22630.75"
"1335","22616.47"
"1336","22617.9"
"1337","22631.4"
"1338","22652.84"
"1339","22674.11"
"1340","22685.04"
"1341","22676.37"
"1342","22650.16"
"1343","22616.17"
"1344","22584.12"
"1345","22560.18"
"1346","22547.28"
"1347","22548.09"
"1348","22560.81"
"1349","22578.21"
"1350","22592.82"
"1351","22598.87"
"1352","22593.25"
"1353","22573.19"
"1354","22543.34"
"1355","22523.78"
"1356","22536.38"
"1357","22587.95"
"1358","22644.73"
"1359","22666.22"
"1360","22625.86"
"1361","22546.22"
"1362","22460.7"
"1363","22397.99"
"1364","22364.94"
"1365","22362.16"
"1366","22387.72"
"1367","22424.74"
"1368","22450.77"
"1369","22446.54"
"1370","22417.67"
"1371","22381.41"
"1372","22353.84"
"1373","22338.52"
"1374","22331.67"
"1375","22329.39"
"1376","22327.61"
"1377","22322.05"
"1378","22308.72"
"1379","22288.08"
"1380","22264.53"
"1381","22242.42"
"1382","22222.71"
"1383","22202.77"
"1384","22179.97"
"1385","22157.32"
"1386","22144.7"
"1387","22152.18"
"1388","22176.16"
"1389","22193.15"
"1390","22178.32"
"1391","22128.89"
"1392","22079.93"
"1393","22070.05"
"1394","22113.25"
"1395","22174.22"
"1396","22211.76"
"1397","22200.43"
"1398","22151.28"
"1399","22080.55"
"1400","22004.15"
"1401","21936.93"
"1402","21893.59"
"1403","21883.84"
"1404","21901.83"
"1405","21938.77"
"1406","21984.27"
"1407","22022.47"
"1408","22036.32"
"1409","22015.23"
"1410","21974.41"
"1411","21935.48"
"1412","21916.14"
"1413","21916.49"
"1414","21931.77"
"1415","21955.95"
"1416","21976.6"
"1417","21979.35"
"1418","21953.65"
"1419","21909.6"
"1420","21864.33"
"1421","21832.91"
"1422","21818.13"
"1423","21818.31"
"1424","21830.76"
"1425","21846.34"
"1426","21853.39"
"1427","21842.09"
"1428","21815.32"
"1429","21781.25"
"1430","21748.04"
"1431","21723.19"
"1432","21713.95"
"1433","21725.59"
"1434","21748.35"
"1435","21765.49"
"1436","21763.06"
"1437","21749.5"
"1438","21744"
"1439","21762.16"
"1440","21789.9"
"1441","21798.57"
"1442","21763.73"
"1443","21697.12"
"1444","21628.49"
"1445","21584.91"
"1446","21569.05"
"1447","21571.39"
"1448","21582.43"
"1449","21594.03"
"1450","21598.68"
"1451","21590"
"1452","21570.8"
"1453","21548.52"
"1454","21530.41"
"1455","21522.02"
"1456","21528.07"
"1457","21551.03"
"1458","21575.3"
"1459","21576.76"
"1460","21536.45"
"1461","21475.64"
"1462","21434.04"
"1463","21443.98"
"1464","21483.24"
"1465","21505.59"
"1466","21473.02"
"1467","21404.04"
"1468","21340.79"
"1469","21318.93"
"1470","21332.39"
"1471","21358.74"
"1472","21377.61"
"1473","21380.8"
"1474","21364.59"
"1475","21329.1"
"1476","21295.21"
"1477","21290.81"
"1478","21333.1"
"1479","21387.06"
"1480","21401.66"
"1481","21343.1"
"1482","21253.87"
"1483","21197.54"
"1484","21218.35"
"1485","21283.91"
"1486","21342.91"
"1487","21357.52"
"1488","21337.25"
"1489","21301.94"
"1490","21268.54"
"1491","21245.09"
"1492","21237.9"
"1493","21247.97"
"1494","21261.99"
"1495","21264.34"
"1496","21247.24"
"1497","21221.27"
"1498","21199.58"
"1499","21188.57"
"1500","21181.11"
"1501","21168.48"
"1502","21145.69"
"1503","21114.21"
"1504","21076.23"
"1505","21036.55"
"1506","21003.83"
"1507","20986.9"
"1508","20987.3"
"1509","20997.57"
"1510","21009.75"
"1511","21017.79"
"1512","21017.7"
"1513","21006.06"
"1514","20988.23"
"1515","20977.35"
"1516","20985.48"
"1517","21006.09"
"1518","21019"
"1519","21005.66"
"1520","20968.34"
"1521","20921.87"
"1522","20880.62"
"1523","20853.76"
"1524","20847.96"
"1525","20866.54"
"1526","20891.89"
"1527","20898.19"
"1528","20866.64"
"1529","20813.06"
"1530","20763.84"
"1531","20739.52"
"1532","20738.46"
"1533","20753.74"
"1534","20775.85"
"1535","20787.69"
"1536","20770.86"
"1537","20721.36"
"1538","20667.36"
"1539","20641.17"
"1540","20654"
"1541","20680.87"
"1542","20693.65"
"1543","20682.21"
"1544","20660.17"
"1545","20642.3"
"1546","20631.77"
"1547","20619.95"
"1548","20598.28"
"1549","20566.97"
"1550","20533"
"1551","20503.47"
"1552","20484.54"
"1553","20481.88"
"1554","20498.92"
"1555","20523.81"
"1556","20538.11"
"1557","20527.51"
"1558","20498.4"
"1559","20463.6"
"1560","20433.41"
"1561","20409.32"
"1562","20390.88"
"1563","20377.61"
"1564","20369"
"1565","20364.47"
"1566","20361.72"
"1567","20355.38"
"1568","20339.86"
"1569","20314.4"
"1570","20284.25"
"1571","20254.94"
"1572","20229.95"
"1573","20210.81"
"1574","20199.25"
"1575","20199.48"
"1576","20217.31"
"1577","20255.52"
"1578","20294.2"
"1579","20303.33"
"1580","20263.41"
"1581","20205.78"
"1582","20177.07"
"1583","20204.32"
"1584","20252.4"
"1585","20274.03"
"1586","20246.13"
"1587","20196.58"
"1588","20159.41"
"1589","20153.22"
"1590","20174.6"
"1591","20217.88"
"1592","20264.55"
"1593","20283.77"
"1594","20248.02"
"1595","20175.04"
"1596","20111.87"
"1597","20098.78"
"1598","20125.13"
"1599","20158.75"
"1600","20173.07"
"1601","20166.22"
"1602","20142.94"
"1603","20110.36"
"1604","20081.97"
"1605","20072.19"
"1606","20082.45"
"1607","20092.2"
"1608","20079.69"
"1609","20049.95"
"1610","20037.32"
"1611","20074.03"
"1612","20143.74"
"1613","20195.92"
"1614","20187.36"
"1615","20133.92"
"1616","20077.56"
"1617","20052.11"
"1618","20056.09"
"1619","20078.62"
"1620","20105.75"
"1621","20115.77"
"1622","20086.15"
"1623","20017.46"
"1624","19945.81"
"1625","19908.87"
"1626","19913.15"
"1627","19935.4"
"1628","19953.01"
"1629","19962.02"
"1630","19969.31"
"1631","19979.28"
"1632","19982.06"
"1633","19962.83"
"1634","19914.93"
"1635","19857.04"
"1636","19812.67"
"1637","19794.95"
"1638","19798.48"
"1639","19815.78"
"1640","19836.43"
"1641","19846.93"
"1642","19835"
"1643","19804.57"
"1644","19769.78"
"1645","19743.06"
"1646","19726.19"
"1647","19717.14"
"1648","19713.54"
"1649","19711.98"
"1650","19708.88"
"1651","19704.24"
"1652","19704.2"
"1653","19714.92"
"1654","19727.97"
"1655","19720.57"
"1656","19673.76"
"1657","19612.36"
"1658","19585.8"
"1659","19626.82"
"1660","19685.38"
"1661","19686.33"
"1662","19596.96"
"1663","19492.28"
"1664","19462.68"
"1665","19526.92"
"1666","19604.79"
"1667","19614.13"
"1668","19552.48"
"1669","19478.49"
"1670","19445.02"
"1671","19454.99"
"1672","19490.84"
"1673","19534.21"
"1674","19564.62"
"1675","19561.36"
"1676","19526.03"
"1677","19498.6"
"1678","19520.12"
"1679","19575.82"
"1680","19599.44"
"1681","19534.4"
"1682","19419.55"
"1683","19340.33"
"1684","19355.6"
"1685","19420.11"
"1686","19463.67"
"1687","19450.3"
"1688","19409.32"
"1689","19376.53"
"1690","19366.12"
"1691","19370.88"
"1692","19382.58"
"1693","19391.59"
"1694","19387.64"
"1695","19364.3"
"1696","19330.33"
"1697","19298.18"
"1698","19278.32"
"1699","19277.44"
"1700","19301.07"
"1701","19339.14"
"1702","19366.8"
"1703","19362.68"
"1704","19337.86"
"1705","19318.69"
"1706","19322.92"
"1707","19337.78"
"1708","19343.98"
"1709","19332.04"
"1710","19308.6"
"1711","19281.77"
"1712","19258.68"
"1713","19245.68"
"1714","19247.96"
"1715","19263.57"
"1716","19287.73"
"1717","19310.97"
"1718","19310.76"
"1719","19263.36"
"1720","19182.33"
"1721","19129.05"
"1722","19160.07"
"1723","19244.34"
"1724","19297.03"
"1725","19257.03"
"1726","19171.52"
"1727","19117.2"
"1728","19133.94"
"1729","19190.79"
"1730","19249.21"
"1731","19280.84"
"1732","19266.38"
"1733","19194.12"
"1734","19100.8"
"1735","19042.98"
"1736","19054.41"
"1737","19105.67"
"1738","19157.08"
"1739","19187.84"
"1740","19200.27"
"1741","19197.62"
"1742","19178.01"
"1743","19136.77"
"1744","19076.01"
"1745","19023.33"
"1746","19011.94"
"1747","19047.46"
"1748","19092.15"
"1749","19107.52"
"1750","19096.56"
"1751","19091.48"
"1752","19114.76"
"1753","19139.7"
"1754","19125.27"
"1755","19060.33"
"1756","18990.84"
"1757","18966.83"
"1758","18995.65"
"1759","19049.18"
"1760","19100.07"
"1761","19131.78"
"1762","19131.53"
"1763","19099.18"
"1764","19062.12"
"1765","19049.89"
"1766","19061.45"
"1767","19067.5"
"1768","19043.5"
"1769","19001.16"
"1770","18966.09"
"1771","18954.86"
"1772","18962.85"
"1773","18982.55"
"1774","19008.79"
"1775","19038.65"
"1776","19067.16"
"1777","19075.73"
"1778","19040.48"
"1779","18961.36"
"1780","18894.07"
"1781","18899.18"
"1782","18970.61"
"1783","19039.28"
"1784","19045.46"
"1785","19002.03"
"1786","18949.1"
"1787","18916.85"
"1788","18913.49"
"1789","18943.06"
"1790","18986.18"
"1791","19003.06"
"1792","18964.54"
"1793","18902.82"
"1794","18870.54"
"1795","18891.76"
"1796","18935.34"
"1797","18965.41"
"1798","18969.77"
"1799","18954.17"
"1800","18925.6"
"1801","18894.56"
"1802","18872.45"
"1803","18864.6"
"1804","18866.63"
"1805","18873.46"
"1806","18882"
"1807","18890.42"
"1808","18897.22"
"1809","18901.9"
"1810","18904.26"
"1811","18905.95"
"1812","18911.01"
"1813","18921.76"
"1814","18926.4"
"1815","18906.46"
"1816","18854.34"
"1817","18790.2"
"1818","18738.12"
"1819","18713.53"
"1820","18723.83"
"1821","18770.31"
"1822","18823.38"
"1823","18843.41"
"1824","18811.71"
"1825","18746.56"
"1826","18670.26"
"1827","18606.99"
"1828","18582.24"
"1829","18609.22"
"1830","18659.02"
"1831","18694.41"
"1832","18701.59"
"1833","18694.25"
"1834","18685.09"
"1835","18669.09"
"1836","18633.97"
"1837","18579.28"
"1838","18529.54"
"1839","18510.7"
"1840","18523.62"
"1841","18550.59"
"1842","18575.41"
"1843","18589.68"
"1844","18587.07"
"1845","18570.23"
"1846","18553.11"
"1847","18549.2"
"1848","18563.55"
"1849","18597.49"
"1850","18641.83"
"1851","18665.13"
"1852","18636.34"
"1853","18570.04"
"1854","18513.68"
"1855","18501.91"
"1856","18519.92"
"1857","18542.26"
"1858","18559.59"
"1859","18581.17"
"1860","18612.82"
"1861","18633.03"
"1862","18610.28"
"1863","18546.56"
"1864","18504.47"
"1865","18543.76"
"1866","18626.06"
"1867","18654.5"
"1868","18576.08"
"1869","18464.25"
"1870","18411.05"
"1871","18436.44"
"1872","18495.74"
"1873","18548.38"
"1874","18582.34"
"1875","18593.61"
"1876","18587.48"
"1877","18581.34"
"1878","18589.58"
"1879","18600.45"
"1880","18591.54"
"1881","18558.19"
"1882","18529.06"
"1883","18532.37"
"1884","18553.02"
"1885","18550.32"
"1886","18503.75"
"1887","18447.61"
"1888","18423.42"
"1889","18442"
"1890","18489.22"
"1891","18544.72"
"1892","18567.78"
"1893","18514.99"
"1894","18401.78"
"1895","18307.4"
"1896","18297.07"
"1897","18346.39"
"1898","18402.64"
"1899","18436.97"
"1900","18454.28"
"1901","18462.02"
"1902","18467.49"
"1903","18477.81"
"1904","18488.36"
"1905","18473.29"
"1906","18409.66"
"1907","18322.1"
"1908","18260.78"
"1909","18254.46"
"1910","18282.68"
"1911","18318.89"
"1912","18345.97"
"1913","18353.04"
"1914","18335.05"
"1915","18303.01"
"1916","18270.2"
"1917","18241.51"
"1918","18215.25"
"1919","18192.49"
"1920","18184.05"
"1921","18201.88"
"1922","18238.52"
"1923","18268.57"
"1924","18270.79"
"1925","18243.04"
"1926","18188.45"
"1927","18125.86"
"1928","18090.46"
"1929","18105.55"
"1930","18137.19"
"1931","18136.53"
"1932","18091.09"
"1933","18030.57"
"1934","17983.78"
"1935","17963.09"
"1936","17975.24"
"1937","18008.54"
"1938","18028.13"
"1939","18005.97"
"1940","17959.12"
"1941","17919.34"
"1942","17902.61"
"1943","17904.02"
"1944","17916.35"
"1945","17927.62"
"1946","17924.34"
"1947","17902.09"
"1948","17868.83"
"1949","17833.24"
"1950","17803.07"
"1951","17785.48"
"1952","17775.26"
"1953","17750.31"
"1954","17695.64"
"1955","17644.29"
"1956","17645.23"
"1957","17698.07"
"1958","17735.88"
"1959","17701.71"
"1960","17620.38"
"1961","17543.97"
"1962","17492.92"
"1963","17446.85"
"1964","17389.02"
"1965","17335.68"
"1966","17313.1"
"1967","17324.09"
"1968","17343.18"
"1969","17348.65"
"1970","17344.63"
"1971","17342.58"
"1972","17344.12"
"1973","17340.07"
"1974","17317.42"
"1975","17249.63"
"1976","17109.41"
"1977","16934.02"
"1978","16824.3"
"1979","16846.02"
"1980","16926.9"
"1981","16967.4"
"1982","16945.45"
"1983","16905.46"
"1984","16878.79"
"1985","16849.79"
"1986","16796.55"
"1987","16735.82"
"1988","16712.41"
"1989","16740.95"
"1990","16757.71"
"1991","16695.96"
"1992","16590.26"
"1993","16536.12"
"1994","16572.02"
"1995","16617.31"
"1996","16588.82"
"1997","16504.64"
"1998","16431.64"
"1999","16393.5"
"2000","16342.68"
"2001","16238.69"
"2002","16125.67"
"2003","16078.46"
"2004","16112.82"
"2005","16168.73"
"2006","16192.43"
"2007","16182.25"
"2008","16151.18"
"2009","16107.18"
"2010","16053.31"
"2011","15992.05"
"2012","15924.69"
"2013","15852.41"
"2014","15778.7"
"2015","15708.73"
"2016","15648.66"
"2017","15606.9"
"2018","15590.71"
"2019","15593.83"
"2020","15602.59"
"2021","15593.6"
"2022","15527.08"
"2023","15381.22"
"2024","15252.54"
"2025","15277.39"
"2026","15440.39"
"2027","15544.33"
"2028","15447.32"
"2029","15273.2"
"2030","15202.3"
"2031","15243.53"
"2032","15263.65"
"2033","15181.14"
"2034","15060.84"
"2035","14983.8"
"2036","14958.31"
"2037","14952.39"
"2038","14946.96"
"2039","14945.7"
"2040","14948.55"
"2041","14921.06"
"2042","14818.67"
"2043","14661.82"
"2044","14542.92"
"2045","14524.91"
"2046","14554.26"
"2047","14556.72"
"2048","14523.11"
"2049","14490.13"
"2050","14474.69"
"2051","14449.75"
"2052","14388.37"
"2053","14304.48"
"2054","14229.31"
"2055","14174.63"
"2056","14127.05"
"2057","14075.24"
"2058","14022.9"
"2059","13977.37"
"2060","13943.62"
"2061","13924.75"
"2062","13915.65"
"2063","13892.75"
"2064","13834.72"
"2065","13756.56"
"2066","13689.25"
"2067","13643.82"
"2068","13605.17"
"2069","13561.54"
"2070","13521.46"
"2071","13497.45"
"2072","13487.09"
"2073","13476.81"
"2074","13457.77"
"2075","13431.57"
"2076","13399.37"
"2077","13350.7"
"2078","13271.29"
"2079","13177.14"
"2080","13118.99"
"2081","13128.36"
"2082","13166.2"
"2083","13182.52"
"2084","13169.84"
"2085","13146.85"
"2086","13114.9"
"2087","13045.26"
"2088","12918.97"
"2089","12781.69"
"2090","12696.85"
"2091","12675.86"
"2092","12683.98"
"2093","12694.48"
"2094","12704.17"
"2095","12710.71"
"2096","12692.55"
"2097","12620.74"
"2098","12507.43"
"2099","12414.26"
"2100","12384.56"
"2101","12390.6"
"2102","12391.65"
"2103","12366.61"
"2104","12306.23"
"2105","12211.5"
"2106","12099.09"
"2107","11990.62"
"2108","11922.91"
"2109","11932.5"
"2110","11989.88"
"2111","12016.28"
"2112","11970.03"
"2113","11883.43"
"2114","11795.76"
"2115","11737.76"
"2116","11734.86"
"2117","11765.72"
"2118","11767.23"
"2119","11705.56"
"2120","11617.54"
"2121","11544.39"
"2122","11491.09"
"2123","11448.46"
"2124","11413.83"
"2125","11391.21"
"2126","11378.61"
"2127","11357.75"
"2128","11311.55"
"2129","11251.1"
"2130","11199.77"
"2131","11173.17"
"2132","11178.18"
"2133","11207.95"
"2134","11218.68"
"2135","11167.66"
"2136","11072.13"
"2137","10976.69"
"2138","10900.07"
"2139","10831.09"
"2140","10763.84"
"2141","10712.25"
"2142","10688.64"
"2143","10664.59"
"2144","10594.39"
"2145","10492.3"
"2146","10440.98"
"2147","10477.4"
"2148","10500.62"
"2149","10407.3"
"2150","10257.53"
"2151","10181.58"
"2152","10201.03"
"2153","10219.94"
"2154","10171.95"
"2155","10082.78"
"2156","9990.766"
"2157","9919.722"
"2158","9886.783"
"2159","9891.775"
"2160","9917.625"
"2161","9943.854"
"2162","9943.979"
"2163","9897.669"
"2164","9825.516"
"2165","9761.299"
"2166","9711.52"
"2167","9659.754"
"2168","9603.106"
"2169","9566.13"
"2170","9564.501"
"2171","9557.048"
"2172","9491.494"
"2173","9390.948"
"2174","9330.316"
"2175","9330.099"
"2176","9324.288"
"2177","9264.832"
"2178","9197.784"
"2179","9181.988"
"2180","9191.679"
"2181","9156.493"
"2182","9070.609"
"2183","9006.989"
"2184","9004.889"
"2185","8998.201"
"2186","8918.705"
"2187","8804.413"
"2188","8733.638"
"2189","8721.993"
"2190","8728.252"
"2191","8714.682"
"2192","8654.622"
"2193","8536.713"
"2194","8413.877"
"2195","8352.35"
"2196","8357.666"
"2197","8396.112"
"2198","8428.967"
"2199","8411.667"
"2200","8324.859"
"2201","8226.736"
"2202","8179.837"
"2203","8172.494"
"2204","8162.3"
"2205","8136.192"
"2206","8108.207"
"2207","8077.465"
"2208","8012.232"
"2209","7893.129"
"2210","7769.859"
"2211","7705.243"
"2212","7701.874"
"2213","7726.63"
"2214","7748.315"
"2215","7738.741"
"2216","7689.377"
"2217","7641.693"
"2218","7631.596"
"2219","7617.102"
"2220","7535.11"
"2221","7418.911"
"2222","7372.232"
"2223","7410.606"
"2224","7414.346"
"2225","7307.041"
"2226","7184.666"
"2227","7156.88"
"2228","7189.352"
"2229","7189.847"
"2230","7134.872"
"2231","7060.611"
"2232","6994.7"
"2233","6946.588"
"2234","6919.331"
"2235","6899.39"
"2236","6870.156"
"2237","6820.458"
"2238","6742.447"
"2239","6644.155"
"2240","6548.387"
"2241","6472.672"
"2242","6423.799"
"2243","6402.527"
"2244","6391.268"
"2245","6369.411"
"2246","6327.184"
"2247","6260.156"
"2248","6166.699"
"2249","6048.013"
"2250","5925.291"
"2251","5855.248"
"2252","5866.564"
"2253","5873.607"
"2254","5782.176"
"2255","5629.379"
"2256","5508.728"
"2257","5447.184"
"2258","5413.465"
"2259","5379.256"
"2260","5324.362"
"2261","5242.99"
"2262","5172.879"
"2263","5146.742"
"2264","5107.958"
"2265","4972.255"
"2266","4773.712"
"2267","4634.245"
"2268","4599.269"
"2269","4604.93"
"2270","4593.987"
"2271","4547.875"
"2272","4460.215"
"2273","4355.686"
"2274","4265.347"
"2275","4180.867"
"2276","4071.398"
"2277","3945.6"
"2278","3855.665"
"2279","3817.631"
"2280","3770.79"
"2281","3668.777"
"2282","3554.599"
"2283","3480.881"
"2284","3413.423"
"2285","3284.613"
"2286","3121.587"
"2287","3027.111"
"2288","3025.028"
"2289","3022.584"
"2290","2952.61"
"2291","2838.252"
"2292","2714.545"
"2293","2603.533"
"2294","2521.294"
"2295","2463.746"
"2296","2415.26"
"2297","2353.781"
"2298","2251.511"
"2299","2110.535"
"2300","1983.776"
