,"Scan 01045"
"400","10612.73"
"401","10558.37"
"402","10490.86"
"403","10435.29"
"404","10416.57"
"405","10455.61"
"406","10540.22"
"407","10641.52"
"408","10730.71"
"409","10780.96"
"410","10788.65"
"411","10766.25"
"412","10726.5"
"413","10681.79"
"414","10639.98"
"415","10604.65"
"416","10579.22"
"417","10566.95"
"418","10567.74"
"419","10577.3"
"420","10591.14"
"421","10604.76"
"422","10614.37"
"423","10617.21"
"424","10610.64"
"425","10592.04"
"426","10562.4"
"427","10530.19"
"428","10504.79"
"429","10495.48"
"430","10507.52"
"431","10535.39"
"432","10571.82"
"433","10609.59"
"434","10642.29"
"435","10666.2"
"436","10678.19"
"437","10675.14"
"438","10655.96"
"439","10628.3"
"440","10602.16"
"441","10587.45"
"442","10591.83"
"443","10610.78"
"444","10635.7"
"445","10658.06"
"446","10670.09"
"447","10669.09"
"448","10654.44"
"449","10625.53"
"450","10582.76"
"451","10534.83"
"452","10494.51"
"453","10474.48"
"454","10485.23"
"455","10515.86"
"456","10543.19"
"457","10544.04"
"458","10497.93"
"459","10414.86"
"460","10324.98"
"461","10258.6"
"462","10243.6"
"463","10275.15"
"464","10324.07"
"465","10360.73"
"466","10357.34"
"467","10313.55"
"468","10251.9"
"469","10195.48"
"470","10166.33"
"471","10168.24"
"472","10188.28"
"473","10213.01"
"474","10229.5"
"475","10235.45"
"476","10239.06"
"477","10248.95"
"478","10273.26"
"479","10309.5"
"480","10343.95"
"481","10362.42"
"482","10351.25"
"483","10309.97"
"484","10252.8"
"485","10194.66"
"486","10150.12"
"487","10125.34"
"488","10116.77"
"489","10120.3"
"490","10131.83"
"491","10145.7"
"492","10154.45"
"493","10150.53"
"494","10126.62"
"495","10080.91"
"496","10018.28"
"497","9943.982"
"498","9863.273"
"499","9782.668"
"500","9710.2"
"501","9653.958"
"502","9621.649"
"503","9610.363"
"504","9604.584"
"505","9588.146"
"506","9545.404"
"507","9473.796"
"508","9385.842"
"509","9294.83"
"510","9213.804"
"511","9151.108"
"512","9109.883"
"513","9092.978"
"514","9102.881"
"515","9133.288"
"516","9168.696"
"517","9193.246"
"518","9191.832"
"519","9164.375"
"520","9125.465"
"521","9090.222"
"522","9072.848"
"523","9071.218"
"524","9068.493"
"525","9047.395"
"526","8992.076"
"527","8908.906"
"528","8822.44"
"529","8757.642"
"530","8737.448"
"531","8757.971"
"532","8795.622"
"533","8826.477"
"534","8828.735"
"535","8804.267"
"536","8770.312"
"537","8744.288"
"538","8741.435"
"539","8756.311"
"540","8771.811"
"541","8770.776"
"542","8739.047"
"543","8686.283"
"544","8633.669"
"545","8602.35"
"546","8609.372"
"547","8644.949"
"548","8688.376"
"549","8719.015"
"550","8719.89"
"551","8693.491"
"552","8648.856"
"553","8594.991"
"554","8540.629"
"555","8493.473"
"556","8460.922"
"557","8450.336"
"558","8465.165"
"559","8495.266"
"560","8527.594"
"561","8549.166"
"562","8552.222"
"563","8543.235"
"564","8531.079"
"565","8524.559"
"566","8528.664"
"567","8540.215"
"568","8554.988"
"569","8568.781"
"570","8577.723"
"571","8578.471"
"572","8567.755"
"573","8542.453"
"574","8505.023"
"575","8465.16"
"576","8432.998"
"577","8418.229"
"578","8421.198"
"579","8432.919"
"580","8444.037"
"581","8445.914"
"582","8439.876"
"583","8434.804"
"584","8439.726"
"585","8462.339"
"586","8497.589"
"587","8533.217"
"588","8556.934"
"589","8558.682"
"590","8543.089"
"591","8520.826"
"592","8502.53"
"593","8496.769"
"594","8502.628"
"595","8516.438"
"596","8534.543"
"597","8553.664"
"598","8571.696"
"599","8586.771"
"600","8597.034"
"601","8601.619"
"602","8601.838"
"603","8599.284"
"604","8595.502"
"605","8589.013"
"606","8573.717"
"607","8543.135"
"608","8491.294"
"609","8424.637"
"610","8362.845"
"611","8326.178"
"612","8333.188"
"613","8379.633"
"614","8444.56"
"615","8506.704"
"616","8547.063"
"617","8564.745"
"618","8567.779"
"619","8564.229"
"620","8560.426"
"621","8553.942"
"622","8539.566"
"623","8512.101"
"624","8470.31"
"625","8425.576"
"626","8391.774"
"627","8382.655"
"628","8402.169"
"629","8434.546"
"630","8461.7"
"631","8465.997"
"632","8444.869"
"633","8415.133"
"634","8394.851"
"635","8400.893"
"636","8431.325"
"637","8468.717"
"638","8495.215"
"639","8495.111"
"640","8470.896"
"641","8434.467"
"642","8397.752"
"643","8370.91"
"644","8355.417"
"645","8350.056"
"646","8353.622"
"647","8364.931"
"648","8382.856"
"649","8406.292"
"650","8434.111"
"651","8463.35"
"652","8487.951"
"653","8501.58"
"654","8498.298"
"655","8481.332"
"656","8463.186"
"657","8456.735"
"658","8473.368"
"659","8508.952"
"660","8550.021"
"661","8583.019"
"662","8596.807"
"663","8593.395"
"664","8579.29"
"665","8560.977"
"666","8544.021"
"667","8531.28"
"668","8525.104"
"669","8527.8"
"670","8539.014"
"671","8554.003"
"672","8567.64"
"673","8574.962"
"674","8574.188"
"675","8566.493"
"676","8553.171"
"677","8536.001"
"678","8521.195"
"679","8517.259"
"680","8532.684"
"681","8571.9"
"682","8621.626"
"683","8663.768"
"684","8680.335"
"685","8664.142"
"686","8632.141"
"687","8604.517"
"688","8600.926"
"689","8625.076"
"690","8661.654"
"691","8694.262"
"692","8707.953"
"693","8704.159"
"694","8694.812"
"695","8691.983"
"696","8704.556"
"697","8724.735"
"698","8739.291"
"699","8735.042"
"700","8707.076"
"701","8671.375"
"702","8647.146"
"703","8653.083"
"704","8690.201"
"705","8736.851"
"706","8769.955"
"707","8768.599"
"708","8737.222"
"709","8696.939"
"710","8669.117"
"711","8670.589"
"712","8695.068"
"713","8728.905"
"714","8758.483"
"715","8774.911"
"716","8780.44"
"717","8778.923"
"718","8774.172"
"719","8769.084"
"720","8765.499"
"721","8765.196"
"722","8769.791"
"723","8779.324"
"724","8792.95"
"725","8809.815"
"726","8828.483"
"727","8845.111"
"728","8855.252"
"729","8854.502"
"730","8842.219"
"731","8824.669"
"732","8808.848"
"733","8801.521"
"734","8805.544"
"735","8820.38"
"736","8845.377"
"737","8879.004"
"738","8914.021"
"739","8940.92"
"740","8950.202"
"741","8938.589"
"742","8919.605"
"743","8909.569"
"744","8924.307"
"745","8963.913"
"746","9009.471"
"747","9040.951"
"748","9040.911"
"749","9015.948"
"750","8985.861"
"751","8970.547"
"752","8983.475"
"753","9014.619"
"754","9048.604"
"755","9070.268"
"756","9075.866"
"757","9079.162"
"758","9095.382"
"759","9138.154"
"760","9201.456"
"761","9265.947"
"762","9312.061"
"763","9325.01"
"764","9311.23"
"765","9283.066"
"766","9252.81"
"767","9229.343"
"768","9215.517"
"769","9213.547"
"770","9225.451"
"771","9250.228"
"772","9284.581"
"773","9325.18"
"774","9368.713"
"775","9412.039"
"776","9452.072"
"777","9485.723"
"778","9510.441"
"779","9524.671"
"780","9526.961"
"781","9516.375"
"782","9499.674"
"783","9489.567"
"784","9498.91"
"785","9536.297"
"786","9589.798"
"787","9641.292"
"788","9672.808"
"789","9677.62"
"790","9669.157"
"791","9662.932"
"792","9673.26"
"793","9698.424"
"794","9725.18"
"795","9740.034"
"796","9733.802"
"797","9715.726"
"798","9700.015"
"799","9700.713"
"800","9723.047"
"801","9758.425"
"802","9797.062"
"803","9829.524"
"804","9850.13"
"805","9855.484"
"806","9842.222"
"807","9810.371"
"808","9771.656"
"809","9740.32"
"810","9730.352"
"811","9746.798"
"812","9783.51"
"813","9833.636"
"814","9890.188"
"815","9945.065"
"816","9989.646"
"817","10015.33"
"818","10018.02"
"819","10005.08"
"820","9985.654"
"821","9968.642"
"822","9958.27"
"823","9954.469"
"824","9956.998"
"825","9965.397"
"826","9978.021"
"827","9992.832"
"828","10007.8"
"829","10021.04"
"830","10030.88"
"831","10035.67"
"832","10034.2"
"833","10030.15"
"834","10030.18"
"835","10041.01"
"836","10066.76"
"837","10103.21"
"838","10144.46"
"839","10184.63"
"840","10217.51"
"841","10236.55"
"842","10235.21"
"843","10209.58"
"844","10171.66"
"845","10139.39"
"846","10130.62"
"847","10152.7"
"848","10193.5"
"849","10238.77"
"850","10274.98"
"851","10296.67"
"852","10303.56"
"853","10295.47"
"854","10275.09"
"855","10254.3"
"856","10246.8"
"857","10265.62"
"858","10308.56"
"859","10357.78"
"860","10394.77"
"861","10405.37"
"862","10398.43"
"863","10390.41"
"864","10397.58"
"865","10424.85"
"866","10459.12"
"867","10485.69"
"868","10491.75"
"869","10480.73"
"870","10464.52"
"871","10455.04"
"872","10460.39"
"873","10479.5"
"874","10509.93"
"875","10549.09"
"876","10591.82"
"877","10631.04"
"878","10659.58"
"879","10673.17"
"880","10677.73"
"881","10681.53"
"882","10692.56"
"883","10713.02"
"884","10738.86"
"885","10765.67"
"886","10789.65"
"887","10809.98"
"888","10826.84"
"889","10840.38"
"890","10851.47"
"891","10861.96"
"892","10873.79"
"893","10888.71"
"894","10907.14"
"895","10928.91"
"896","10953.83"
"897","10981.68"
"898","11012.16"
"899","11044.92"
"900","11079.27"
"901","11110.57"
"902","11131.9"
"903","11136.31"
"904","11123.1"
"905","11107.23"
"906","11106.1"
"907","11135.44"
"908","11187.3"
"909","11236.33"
"910","11256.75"
"911","11234.14"
"912","11189.78"
"913","11152"
"914","11147.88"
"915","11180.99"
"916","11233.97"
"917","11288.75"
"918","11329.04"
"919","11345.44"
"920","11330.21"
"921","11276.42"
"922","11197.75"
"923","11129.25"
"924","11106.96"
"925","11156.3"
"926","11254.98"
"927","11367.28"
"928","11457.99"
"929","11508.45"
"930","11519.39"
"931","11492.64"
"932","11433.14"
"933","11361.72"
"934","11304.2"
"935","11285.91"
"936","11312.48"
"937","11364.31"
"938","11420.16"
"939","11461.36"
"940","11483.51"
"941","11487.14"
"942","11472.91"
"943","11447.88"
"944","11427.75"
"945","11428.86"
"946","11462.46"
"947","11510.36"
"948","11543.77"
"949","11534.44"
"950","11479.67"
"951","11412.3"
"952","11367.79"
"953","11374.4"
"954","11418.15"
"955","11469.72"
"956","11500.17"
"957","11498.6"
"958","11479.1"
"959","11457.56"
"960","11447.66"
"961","11450.58"
"962","11463.07"
"963","11481.85"
"964","11503.56"
"965","11524.73"
"966","11541.87"
"967","11552.14"
"968","11556.18"
"969","11555.79"
"970","11552.8"
"971","11550.09"
"972","11551.86"
"973","11562.4"
"974","11583"
"975","11600.51"
"976","11597.41"
"977","11556.89"
"978","11483.75"
"979","11406.93"
"980","11356.71"
"981","11355.4"
"982","11391.67"
"983","11445.22"
"984","11496.08"
"985","11532.01"
"986","11548.34"
"987","11540.71"
"988","11508.97"
"989","11468.04"
"990","11436.27"
"991","11431.05"
"992","11453.5"
"993","11491.14"
"994","11531.03"
"995","11564.21"
"996","11593.5"
"997","11623.86"
"998","11659.62"
"999","11697.1"
"1000","11727.03"
"1001","11740.06"
"1002","11733.1"
"1003","11717.86"
"1004","11708.21"
"1005","11717.98"
"1006","11757.48"
"1007","11812.84"
"1008","11860.27"
"1009","11876.28"
"1010","11854.85"
"1011","11815"
"1012","11777.71"
"1013","11760.67"
"1014","11763.67"
"1015","11780.45"
"1016","11804.78"
"1017","11831.08"
"1018","11854.61"
"1019","11870.66"
"1020","11876.9"
"1021","11881"
"1022","11893.29"
"1023","11923.47"
"1024","11968.26"
"1025","12012.44"
"1026","12040.29"
"1027","12043.2"
"1028","12034.95"
"1029","12033.69"
"1030","12056.02"
"1031","12098.16"
"1032","12142.01"
"1033","12169.21"
"1034","12169.91"
"1035","12153.68"
"1036","12132.73"
"1037","12118.69"
"1038","12117.84"
"1039","12133.78"
"1040","12169.98"
"1041","12223.72"
"1042","12282.37"
"1043","12332.4"
"1044","12362.74"
"1045","12376.08"
"1046","12379.83"
"1047","12381.26"
"1048","12383.51"
"1049","12385.17"
"1050","12384.61"
"1051","12381.64"
"1052","12381.17"
"1053","12389.22"
"1054","12411.09"
"1055","12441.73"
"1056","12468.6"
"1057","12479.04"
"1058","12468.93"
"1059","12452.82"
"1060","12447.77"
"1061","12467.95"
"1062","12505.94"
"1063","12544.5"
"1064","12566.66"
"1065","12569.42"
"1066","12568.61"
"1067","12581.37"
"1068","12619.05"
"1069","12668.44"
"1070","12709.87"
"1071","12724.89"
"1072","12714.96"
"1073","12697.64"
"1074","12690.94"
"1075","12703.25"
"1076","12720.48"
"1077","12725.35"
"1078","12704.11"
"1079","12670.09"
"1080","12649.08"
"1081","12666.33"
"1082","12722.73"
"1083","12787.61"
"1084","12828.17"
"1085","12821.78"
"1086","12784.93"
"1087","12743.46"
"1088","12721.55"
"1089","12721"
"1090","12727.7"
"1091","12727.31"
"1092","12714.92"
"1093","12703.82"
"1094","12709.37"
"1095","12742.53"
"1096","12788.68"
"1097","12823.96"
"1098","12825.47"
"1099","12791.75"
"1100","12742.48"
"1101","12698.26"
"1102","12674.33"
"1103","12671.71"
"1104","12689.06"
"1105","12723.9"
"1106","12764.71"
"1107","12795.5"
"1108","12800.75"
"1109","12780.67"
"1110","12755.37"
"1111","12746.22"
"1112","12766.46"
"1113","12801.65"
"1114","12831.51"
"1115","12837.41"
"1116","12817.92"
"1117","12781.75"
"1118","12737.79"
"1119","12696.63"
"1120","12671.42"
"1121","12675.54"
"1122","12715.82"
"1123","12773.27"
"1124","12822.57"
"1125","12840.58"
"1126","12830.36"
"1127","12812.12"
"1128","12806.15"
"1129","12818.93"
"1130","12834.89"
"1131","12836.5"
"1132","12811.53"
"1133","12769.93"
"1134","12727.38"
"1135","12698.85"
"1136","12689.99"
"1137","12700.28"
"1138","12729.08"
"1139","12772.84"
"1140","12823.47"
"1141","12872.5"
"1142","12911.7"
"1143","12933.98"
"1144","12932.5"
"1145","12901.85"
"1146","12852.4"
"1147","12804.32"
"1148","12777.7"
"1149","12779.74"
"1150","12799.17"
"1151","12823.27"
"1152","12843.06"
"1153","12862.45"
"1154","12888.13"
"1155","12925.38"
"1156","12966.97"
"1157","12998.93"
"1158","13007.75"
"1159","12997.16"
"1160","12991.53"
"1161","13016.45"
"1162","13083.32"
"1163","13164.51"
"1164","13225.75"
"1165","13238.88"
"1166","13217.4"
"1167","13192.1"
"1168","13192.36"
"1169","13217.2"
"1170","13237.65"
"1171","13223.83"
"1172","13168.26"
"1173","13108.48"
"1174","13087.46"
"1175","13135.12"
"1176","13220.22"
"1177","13293.68"
"1178","13310.43"
"1179","13273.22"
"1180","13216"
"1181","13172.93"
"1182","13161.14"
"1183","13174.48"
"1184","13205.09"
"1185","13244.36"
"1186","13281.4"
"1187","13304.94"
"1188","13306.51"
"1189","13297.11"
"1190","13295.86"
"1191","13320.76"
"1192","13368.9"
"1193","13419.25"
"1194","13450.31"
"1195","13454.08"
"1196","13446.38"
"1197","13445.47"
"1198","13462.89"
"1199","13484.83"
"1200","13491.54"
"1201","13467.05"
"1202","13427.56"
"1203","13405.42"
"1204","13431.59"
"1205","13502.51"
"1206","13580.11"
"1207","13625.02"
"1208","13619.39"
"1209","13587.62"
"1210","13559.01"
"1211","13555.4"
"1212","13568.24"
"1213","13581.26"
"1214","13580.03"
"1215","13565.83"
"1216","13548.09"
"1217","13536.16"
"1218","13536.16"
"1219","13550.98"
"1220","13583.33"
"1221","13629.68"
"1222","13674.84"
"1223","13702.31"
"1224","13701.04"
"1225","13679.91"
"1226","13652.45"
"1227","13630.82"
"1228","13616.83"
"1229","13607.59"
"1230","13600.71"
"1231","13602.5"
"1232","13626.69"
"1233","13686.96"
"1234","13779"
"1235","13870.85"
"1236","13928.18"
"1237","13932.02"
"1238","13907.21"
"1239","13886.43"
"1240","13895.93"
"1241","13926.44"
"1242","13956.53"
"1243","13966.63"
"1244","13958.7"
"1245","13948.21"
"1246","13950.33"
"1247","13967.11"
"1248","13986.05"
"1249","13994.06"
"1250","13988.01"
"1251","13984"
"1252","14000.32"
"1253","14046.79"
"1254","14103.88"
"1255","14145.74"
"1256","14150.97"
"1257","14126.96"
"1258","14092.42"
"1259","14065.61"
"1260","14058.52"
"1261","14078.92"
"1262","14133.8"
"1263","14210.71"
"1264","14274.98"
"1265","14290.99"
"1266","14250.09"
"1267","14195"
"1268","14174.17"
"1269","14216.64"
"1270","14288.18"
"1271","14341.67"
"1272","14338.75"
"1273","14290.94"
"1274","14227.44"
"1275","14176.2"
"1276","14152.28"
"1277","14163.14"
"1278","14215.08"
"1279","14291.68"
"1280","14355.16"
"1281","14367.4"
"1282","14320.14"
"1283","14249.78"
"1284","14196.38"
"1285","14185.05"
"1286","14205.01"
"1287","14240.23"
"1288","14275.98"
"1289","14302.8"
"1290","14312.52"
"1291","14299.16"
"1292","14271.13"
"1293","14242.57"
"1294","14227.16"
"1295","14233.11"
"1296","14265.21"
"1297","14327.52"
"1298","14409.68"
"1299","14487.61"
"1300","14536.96"
"1301","14547.08"
"1302","14526.95"
"1303","14487.04"
"1304","14438.11"
"1305","14391.42"
"1306","14358.33"
"1307","14347.04"
"1308","14355.25"
"1309","14378.48"
"1310","14411.07"
"1311","14441.21"
"1312","14455.15"
"1313","14442"
"1314","14413.93"
"1315","14394.19"
"1316","14403.93"
"1317","14436.15"
"1318","14464.19"
"1319","14462.17"
"1320","14431.48"
"1321","14400.67"
"1322","14399.04"
"1323","14434.52"
"1324","14485.04"
"1325","14526.31"
"1326","14542.41"
"1327","14534.12"
"1328","14504.17"
"1329","14458.83"
"1330","14414.31"
"1331","14388.58"
"1332","14395.18"
"1333","14429.51"
"1334","14482.32"
"1335","14543"
"1336","14592.79"
"1337","14610.01"
"1338","14577.75"
"1339","14519.84"
"1340","14480.51"
"1341","14499.97"
"1342","14565.63"
"1343","14629.04"
"1344","14643.41"
"1345","14608.89"
"1346","14568.07"
"1347","14563.89"
"1348","14599.17"
"1349","14628.9"
"1350","14605.91"
"1351","14523.84"
"1352","14440.2"
"1353","14417.81"
"1354","14480.1"
"1355","14569.82"
"1356","14619.88"
"1357","14591.51"
"1358","14521.95"
"1359","14461.1"
"1360","14445.02"
"1361","14460.98"
"1362","14485.49"
"1363","14500.3"
"1364","14511.13"
"1365","14530.63"
"1366","14567.24"
"1367","14604.32"
"1368","14615.93"
"1369","14580.71"
"1370","14513.23"
"1371","14444.85"
"1372","14404.98"
"1373","14402.08"
"1374","14432.42"
"1375","14491.04"
"1376","14558.69"
"1377","14605.91"
"1378","14604.75"
"1379","14558.81"
"1380","14498.97"
"1381","14456.2"
"1382","14441.62"
"1383","14445.71"
"1384","14458.13"
"1385","14473.15"
"1386","14490.69"
"1387","14511.01"
"1388","14531.18"
"1389","14543.7"
"1390","14540.77"
"1391","14523.32"
"1392","14507.16"
"1393","14509.51"
"1394","14535.71"
"1395","14567.41"
"1396","14583.42"
"1397","14572.5"
"1398","14546.51"
"1399","14520.64"
"1400","14504.7"
"1401","14494.27"
"1402","14482.51"
"1403","14465.87"
"1404","14450.74"
"1405","14445.48"
"1406","14454.75"
"1407","14470.33"
"1408","14481.15"
"1409","14479.93"
"1410","14474.36"
"1411","14475.9"
"1412","14492.43"
"1413","14516.01"
"1414","14534.3"
"1415","14538.33"
"1416","14535.81"
"1417","14539.59"
"1418","14558.06"
"1419","14575.46"
"1420","14567.81"
"1421","14518.26"
"1422","14451.94"
"1423","14409.45"
"1424","14424.64"
"1425","14488.11"
"1426","14573.42"
"1427","14655.8"
"1428","14722.44"
"1429","14765.48"
"1430","14779.89"
"1431","14780.65"
"1432","14791.62"
"1433","14832.16"
"1434","14886.66"
"1435","14923.4"
"1436","14915.68"
"1437","14877.63"
"1438","14842.92"
"1439","14841.06"
"1440","14866.45"
"1441","14896.21"
"1442","14909.71"
"1443","14906.11"
"1444","14894.4"
"1445","14883.57"
"1446","14882.05"
"1447","14897.93"
"1448","14937.24"
"1449","14988.27"
"1450","15030.38"
"1451","15044.1"
"1452","15020.17"
"1453","14954.42"
"1454","14846.69"
"1455","14729.35"
"1456","14650.69"
"1457","14650.67"
"1458","14702.08"
"1459","14745.7"
"1460","14730.96"
"1461","14674.82"
"1462","14625.24"
"1463","14621.93"
"1464","14643.27"
"1465","14640.7"
"1466","14575.25"
"1467","14474.48"
"1468","14393.65"
"1469","14377.33"
"1470","14401.26"
"1471","14414.22"
"1472","14374.68"
"1473","14298.7"
"1474","14223.29"
"1475","14179.34"
"1476","14164.24"
"1477","14164.19"
"1478","14166.7"
"1479","14165.95"
"1480","14158.17"
"1481","14141.05"
"1482","14118.87"
"1483","14097.69"
"1484","14083.66"
"1485","14083.07"
"1486","14102.27"
"1487","14140.75"
"1488","14174.12"
"1489","14172.7"
"1490","14121.38"
"1491","14049.79"
"1492","13996.15"
"1493","13984.23"
"1494","13998.98"
"1495","14018.9"
"1496","14029.22"
"1497","14030.69"
"1498","14026.28"
"1499","14019.58"
"1500","14015.38"
"1501","14018.52"
"1502","14026.03"
"1503","14021.47"
"1504","13987.42"
"1505","13926.67"
"1506","13871.66"
"1507","13856.49"
"1508","13885.45"
"1509","13925.63"
"1510","13942.94"
"1511","13933.66"
"1512","13926.16"
"1513","13948.56"
"1514","13995.44"
"1515","14031.69"
"1516","14024.11"
"1517","13980.51"
"1518","13938.82"
"1519","13933.1"
"1520","13948.92"
"1521","13942.6"
"1522","13877.8"
"1523","13781.7"
"1524","13712.53"
"1525","13717.22"
"1526","13770.12"
"1527","13817.2"
"1528","13815.3"
"1529","13774.78"
"1530","13722.37"
"1531","13681.65"
"1532","13664.15"
"1533","13678.59"
"1534","13723.69"
"1535","13769.31"
"1536","13780.13"
"1537","13742.6"
"1538","13691.69"
"1539","13668.69"
"1540","13691.02"
"1541","13735.17"
"1542","13773.84"
"1543","13790.96"
"1544","13785.39"
"1545","13757.4"
"1546","13717.75"
"1547","13687.76"
"1548","13687.66"
"1549","13713.26"
"1550","13741.52"
"1551","13750.88"
"1552","13739.85"
"1553","13718.6"
"1554","13696.28"
"1555","13673.82"
"1556","13648.59"
"1557","13619.16"
"1558","13590"
"1559","13567.41"
"1560","13555.76"
"1561","13552.6"
"1562","13553.99"
"1563","13556.53"
"1564","13558.18"
"1565","13557.1"
"1566","13553.07"
"1567","13548.73"
"1568","13546.94"
"1569","13548.74"
"1570","13552.84"
"1571","13557.59"
"1572","13556.69"
"1573","13539.65"
"1574","13498.01"
"1575","13448.7"
"1576","13424.96"
"1577","13453.21"
"1578","13507.45"
"1579","13538.41"
"1580","13509.45"
"1581","13445.72"
"1582","13390.87"
"1583","13375.44"
"1584","13388.24"
"1585","13409.87"
"1586","13427.91"
"1587","13444.63"
"1588","13464.03"
"1589","13484.44"
"1590","13496.09"
"1591","13489.09"
"1592","13464.65"
"1593","13434.58"
"1594","13410.55"
"1595","13397.15"
"1596","13394.4"
"1597","13401.81"
"1598","13415.89"
"1599","13431.9"
"1600","13445.57"
"1601","13454.71"
"1602","13457.71"
"1603","13456.25"
"1604","13460.85"
"1605","13483.32"
"1606","13521.19"
"1607","13547.74"
"1608","13535.09"
"1609","13488.28"
"1610","13448.5"
"1611","13454.55"
"1612","13489.51"
"1613","13497.1"
"1614","13432.53"
"1615","13341.11"
"1616","13308"
"1617","13390.22"
"1618","13523.92"
"1619","13613.07"
"1620","13601.81"
"1621","13535.83"
"1622","13476.15"
"1623","13452.94"
"1624","13448.93"
"1625","13443.66"
"1626","13435.67"
"1627","13441.54"
"1628","13475.45"
"1629","13519.75"
"1630","13538.2"
"1631","13504.6"
"1632","13449.49"
"1633","13422.92"
"1634","13453.65"
"1635","13504.2"
"1636","13524.54"
"1637","13492.87"
"1638","13438.16"
"1639","13394.15"
"1640","13380.36"
"1641","13401.13"
"1642","13457.96"
"1643","13528.19"
"1644","13573.97"
"1645","13566.05"
"1646","13526.34"
"1647","13495.15"
"1648","13498.53"
"1649","13518.15"
"1650","13527.26"
"1651","13516.24"
"1652","13505.08"
"1653","13515.88"
"1654","13550.05"
"1655","13588.62"
"1656","13612.9"
"1657","13615.97"
"1658","13597.53"
"1659","13558.63"
"1660","13506.67"
"1661","13450.96"
"1662","13399.62"
"1663","13357.64"
"1664","13329.53"
"1665","13317.11"
"1666","13318.55"
"1667","13331.41"
"1668","13348.54"
"1669","13359.16"
"1670","13354.26"
"1671","13337.39"
"1672","13317.31"
"1673","13298"
"1674","13267.5"
"1675","13210.7"
"1676","13128.46"
"1677","13049.17"
"1678","13002.94"
"1679","12999.31"
"1680","13028.86"
"1681","13080.3"
"1682","13132.96"
"1683","13161.59"
"1684","13147.78"
"1685","13099.84"
"1686","13032.55"
"1687","12963.17"
"1688","12913.63"
"1689","12905.14"
"1690","12930.63"
"1691","12954.9"
"1692","12945.93"
"1693","12909.62"
"1694","12871.2"
"1695","12849.21"
"1696","12835.19"
"1697","12814.18"
"1698","12781.82"
"1699","12753.68"
"1700","12746.98"
"1701","12766.69"
"1702","12806.19"
"1703","12857.62"
"1704","12906.78"
"1705","12936.53"
"1706","12935.38"
"1707","12911.8"
"1708","12878.52"
"1709","12843.04"
"1710","12804.25"
"1711","12760.82"
"1712","12720.81"
"1713","12699.88"
"1714","12709.49"
"1715","12733.22"
"1716","12743.95"
"1717","12723.69"
"1718","12679.68"
"1719","12623.76"
"1720","12578.44"
"1721","12579.9"
"1722","12658.44"
"1723","12770.18"
"1724","12825.62"
"1725","12763.28"
"1726","12648.24"
"1727","12580.02"
"1728","12602.53"
"1729","12652.72"
"1730","12658.76"
"1731","12615.36"
"1732","12576.82"
"1733","12589.77"
"1734","12635.04"
"1735","12666.6"
"1736","12655.75"
"1737","12621.99"
"1738","12592.73"
"1739","12584.47"
"1740","12600.38"
"1741","12640.6"
"1742","12684.42"
"1743","12699.49"
"1744","12665.32"
"1745","12606.24"
"1746","12556.93"
"1747","12538.73"
"1748","12551.98"
"1749","12593.91"
"1750","12645.41"
"1751","12675.81"
"1752","12661.91"
"1753","12617.14"
"1754","12565.8"
"1755","12525.98"
"1756","12503.99"
"1757","12504.2"
"1758","12521.48"
"1759","12542.74"
"1760","12556.1"
"1761","12558.1"
"1762","12548.18"
"1763","12526.4"
"1764","12494.14"
"1765","12453.36"
"1766","12414.16"
"1767","12394.18"
"1768","12407.34"
"1769","12442.44"
"1770","12478.74"
"1771","12499.57"
"1772","12498.05"
"1773","12469.62"
"1774","12429.92"
"1775","12414.08"
"1776","12447.61"
"1777","12489.59"
"1778","12473.14"
"1779","12379.16"
"1780","12300.59"
"1781","12340.88"
"1782","12485.84"
"1783","12610.04"
"1784","12606.21"
"1785","12505.37"
"1786","12390.32"
"1787","12322.85"
"1788","12318.16"
"1789","12382.97"
"1790","12481.14"
"1791","12539.08"
"1792","12502.07"
"1793","12424.25"
"1794","12396.01"
"1795","12455.08"
"1796","12537.39"
"1797","12571.67"
"1798","12553.08"
"1799","12527.04"
"1800","12527.78"
"1801","12533.37"
"1802","12506.64"
"1803","12443.52"
"1804","12392.89"
"1805","12402.42"
"1806","12453.21"
"1807","12485.29"
"1808","12459.16"
"1809","12408.84"
"1810","12383.47"
"1811","12399.49"
"1812","12432.33"
"1813","12455.87"
"1814","12452.37"
"1815","12408.03"
"1816","12326.77"
"1817","12257.18"
"1818","12252.24"
"1819","12309.95"
"1820","12377.42"
"1821","12409.1"
"1822","12409.2"
"1823","12398.27"
"1824","12384.96"
"1825","12356.93"
"1826","12303.11"
"1827","12251.88"
"1828","12257.05"
"1829","12345.19"
"1830","12448.07"
"1831","12479.03"
"1832","12415.1"
"1833","12308.05"
"1834","12210.87"
"1835","12155.29"
"1836","12164.12"
"1837","12234.98"
"1838","12312.41"
"1839","12338.33"
"1840","12314.35"
"1841","12286.32"
"1842","12288.14"
"1843","12303.38"
"1844","12304.01"
"1845","12284.44"
"1846","12267.43"
"1847","12273.78"
"1848","12297.51"
"1849","12321.08"
"1850","12333.07"
"1851","12335.3"
"1852","12331.47"
"1853","12327.97"
"1854","12333.15"
"1855","12353.7"
"1856","12390.19"
"1857","12441.19"
"1858","12487.9"
"1859","12491.45"
"1860","12423.6"
"1861","12328.57"
"1862","12277.63"
"1863","12303.77"
"1864","12370.74"
"1865","12435.6"
"1866","12462.95"
"1867","12421.89"
"1868","12306.86"
"1869","12183.81"
"1870","12127.91"
"1871","12147.9"
"1872","12192.94"
"1873","12219.49"
"1874","12225.76"
"1875","12221.53"
"1876","12220.95"
"1877","12243.8"
"1878","12303.82"
"1879","12371.18"
"1880","12398.25"
"1881","12364.79"
"1882","12302.12"
"1883","12246.09"
"1884","12219.79"
"1885","12238.76"
"1886","12298.69"
"1887","12342.77"
"1888","12310.62"
"1889","12227.22"
"1890","12187.03"
"1891","12248.94"
"1892","12330.72"
"1893","12320.81"
"1894","12211.55"
"1895","12108.09"
"1896","12099.13"
"1897","12158.25"
"1898","12222.59"
"1899","12249.47"
"1900","12224.93"
"1901","12145.46"
"1902","12064.79"
"1903","12060.39"
"1904","12153.37"
"1905","12262.65"
"1906","12304.38"
"1907","12269.98"
"1908","12191.32"
"1909","12103.75"
"1910","12049.56"
"1911","12067.13"
"1912","12135.55"
"1913","12194.64"
"1914","12209.87"
"1915","12220.32"
"1916","12273.24"
"1917","12343.19"
"1918","12347.23"
"1919","12240.73"
"1920","12113.01"
"1921","12076.28"
"1922","12135.48"
"1923","12196.72"
"1924","12189.1"
"1925","12147.13"
"1926","12129.31"
"1927","12144.59"
"1928","12150.1"
"1929","12113.85"
"1930","12063.86"
"1931","12043.79"
"1932","12058.52"
"1933","12068.04"
"1934","12040.9"
"1935","12001.2"
"1936","11989.41"
"1937","12013.59"
"1938","12041.11"
"1939","12045.78"
"1940","12049.89"
"1941","12090.95"
"1942","12162.67"
"1943","12200.87"
"1944","12155.18"
"1945","12076.81"
"1946","12050.98"
"1947","12092.56"
"1948","12120.31"
"1949","12065.65"
"1950","11973.68"
"1951","11928.91"
"1952","11956.33"
"1953","11999.27"
"1954","12006.5"
"1955","11992.71"
"1956","11995.2"
"1957","12018.13"
"1958","12021.04"
"1959","11973.72"
"1960","11920.17"
"1961","11928.13"
"1962","11996.53"
"1963","12035.53"
"1964","11975.46"
"1965","11882.61"
"1966","11864.28"
"1967","11928.1"
"1968","11961.41"
"1969","11878.71"
"1970","11757.79"
"1971","11721.45"
"1972","11796.25"
"1973","11902.7"
"1974","11967.17"
"1975","11964.64"
"1976","11885.02"
"1977","11768.4"
"1978","11704.23"
"1979","11747.16"
"1980","11816.79"
"1981","11807.25"
"1982","11710.82"
"1983","11603.95"
"1984","11546.91"
"1985","11541.32"
"1986","11576.62"
"1987","11628.8"
"1988","11664.02"
"1989","11665.93"
"1990","11663.12"
"1991","11686.95"
"1992","11722.08"
"1993","11725.15"
"1994","11683.66"
"1995","11649.44"
"1996","11672.59"
"1997","11723.55"
"1998","11734.43"
"1999","11680.08"
"2000","11605.76"
"2001","11556.81"
"2002","11537.96"
"2003","11538.37"
"2004","11540.11"
"2005","11516.21"
"2006","11450.74"
"2007","11381.16"
"2008","11357.91"
"2009","11377.88"
"2010","11385.38"
"2011","11344.67"
"2012","11294.21"
"2013","11284.6"
"2014","11317.66"
"2015","11359.44"
"2016","11380.63"
"2017","11365.18"
"2018","11304.1"
"2019","11234.87"
"2020","11219.41"
"2021","11277.95"
"2022","11359.34"
"2023","11404.61"
"2024","11350.57"
"2025","11136.51"
"2026","10839.31"
"2027","10700.51"
"2028","10883.47"
"2029","11198.05"
"2030","11378.17"
"2031","11375.12"
"2032","11320.38"
"2033","11302.24"
"2034","11281.6"
"2035","11207.07"
"2036","11106.56"
"2037","11051.63"
"2038","11069.42"
"2039","11110.57"
"2040","11127.62"
"2041","11127.86"
"2042","11137.38"
"2043","11160.63"
"2044","11178.03"
"2045","11175.69"
"2046","11164.01"
"2047","11156.24"
"2048","11132.97"
"2049","11051.9"
"2050","10912.84"
"2051","10805.48"
"2052","10812.24"
"2053","10880.18"
"2054","10899.63"
"2055","10844.19"
"2056","10794.94"
"2057","10812.71"
"2058","10847.72"
"2059","10827.5"
"2060","10759.91"
"2061","10715.22"
"2062","10730.86"
"2063","10765.87"
"2064","10774.92"
"2065","10761.54"
"2066","10751.05"
"2067","10753.28"
"2068","10757.84"
"2069","10754.5"
"2070","10739.27"
"2071","10711.12"
"2072","10688.65"
"2073","10704.98"
"2074","10760.11"
"2075","10783.65"
"2076","10713.07"
"2077","10598.72"
"2078","10534.96"
"2079","10549.07"
"2080","10591"
"2081","10618.64"
"2082","10630.86"
"2083","10634.86"
"2084","10636.27"
"2085","10639.62"
"2086","10638.22"
"2087","10606.36"
"2088","10528.75"
"2089","10452.44"
"2090","10440.56"
"2091","10487.12"
"2092","10524.78"
"2093","10510.07"
"2094","10462.75"
"2095","10411.42"
"2096","10380.24"
"2097","10390.52"
"2098","10433.08"
"2099","10462.07"
"2100","10446.85"
"2101","10414.93"
"2102","10402.38"
"2103","10407.74"
"2104","10407.4"
"2105","10391.65"
"2106","10372.83"
"2107","10359.68"
"2108","10336.58"
"2109","10282.93"
"2110","10202.66"
"2111","10118.04"
"2112","10050.12"
"2113","10016.49"
"2114","10029.65"
"2115","10075.86"
"2116","10133.27"
"2117","10195.46"
"2118","10269.79"
"2119","10340.5"
"2120","10337.99"
"2121","10205.83"
"2122","10023.03"
"2123","9918.521"
"2124","9917.729"
"2125","9940.549"
"2126","9933.662"
"2127","9925.899"
"2128","9950.499"
"2129","9976.389"
"2130","9946.165"
"2131","9866.84"
"2132","9816.875"
"2133","9842.657"
"2134","9890.177"
"2135","9894.345"
"2136","9841.102"
"2137","9741.263"
"2138","9634.081"
"2139","9591.255"
"2140","9645.387"
"2141","9711.834"
"2142","9700.066"
"2143","9639.534"
"2144","9614.009"
"2145","9633.587"
"2146","9624.078"
"2147","9544.877"
"2148","9462.056"
"2149","9448.607"
"2150","9489.504"
"2151","9530.846"
"2152","9547.653"
"2153","9546.357"
"2154","9530.98"
"2155","9495.339"
"2156","9434.086"
"2157","9358.646"
"2158","9287.761"
"2159","9247.311"
"2160","9270.012"
"2161","9362.125"
"2162","9468.9"
"2163","9531.206"
"2164","9514.882"
"2165","9398.468"
"2166","9226.734"
"2167","9099.99"
"2168","9064.483"
"2169","9058.784"
"2170","9030.143"
"2171","9025.36"
"2172","9110.97"
"2173","9226.869"
"2174","9226.278"
"2175","9076.356"
"2176","8924.694"
"2177","8893.693"
"2178","8954.082"
"2179","9044.541"
"2180","9131.021"
"2181","9194.238"
"2182","9211.544"
"2183","9156.115"
"2184","9030.214"
"2185","8916.225"
"2186","8890.828"
"2187","8900.402"
"2188","8843.447"
"2189","8725.626"
"2190","8649.362"
"2191","8668.141"
"2192","8732.17"
"2193","8783.357"
"2194","8781.538"
"2195","8699.825"
"2196","8607.706"
"2197","8633.921"
"2198","8774.669"
"2199","8843.244"
"2200","8724.503"
"2201","8560.062"
"2202","8515.629"
"2203","8581.557"
"2204","8672.878"
"2205","8719.051"
"2206","8663.561"
"2207","8501.991"
"2208","8329.953"
"2209","8235.115"
"2210","8219.59"
"2211","8260.834"
"2212","8320.605"
"2213","8352.006"
"2214","8334.283"
"2215","8278.876"
"2216","8206.613"
"2217","8157.208"
"2218","8161.177"
"2219","8178.463"
"2220","8148.492"
"2221","8078.611"
"2222","8026.328"
"2223","8017.5"
"2224","8028.486"
"2225","8031.309"
"2226","7997.54"
"2227","7906.968"
"2228","7798.329"
"2229","7732.873"
"2230","7720.443"
"2231","7726.43"
"2232","7729.728"
"2233","7735.058"
"2234","7751.741"
"2235","7796.325"
"2236","7874.537"
"2237","7894.279"
"2238","7727.939"
"2239","7471.553"
"2240","7427.958"
"2241","7665.084"
"2242","7807.771"
"2243","7576.232"
"2244","7226.835"
"2245","7096.053"
"2246","7148.594"
"2247","7176.951"
"2248","7125.517"
"2249","7081.332"
"2250","7080.108"
"2251","7055.613"
"2252","6961.734"
"2253","6863.116"
"2254","6837.532"
"2255","6872.273"
"2256","6914.736"
"2257","6938.568"
"2258","6940.238"
"2259","6900.931"
"2260","6775.717"
"2261","6550.844"
"2262","6319.612"
"2263","6185.843"
"2264","6181.187"
"2265","6300.582"
"2266","6422.79"
"2267","6343.034"
"2268","6051.95"
"2269","5814.106"
"2270","5800.384"
"2271","5883.243"
"2272","5908.083"
"2273","5830.814"
"2274","5649.907"
"2275","5441.821"
"2276","5327.486"
"2277","5342.796"
"2278","5429.06"
"2279","5492.478"
"2280","5379.374"
"2281","5018.278"
"2282","4676.851"
"2283","4646.244"
"2284","4788.015"
"2285","4786.452"
"2286","4600.75"
"2287","4412.633"
"2288","4317.576"
"2289","4277.615"
"2290","4247.667"
"2291","4191.227"
"2292","4077.615"
"2293","3898.816"
"2294","3662.538"
"2295","3460.65"
"2296","3424.334"
"2297","3513.623"
"2298","3523.256"
"2299","3382.943"
"2300","3262.049"
