,"Scan 01044"
"400","11701.75"
"401","11695.82"
"402","11666.55"
"403","11632.08"
"404","11610.43"
"405","11617.02"
"406","11645.92"
"407","11680.45"
"408","11703.93"
"409","11700.95"
"410","11670.82"
"411","11623.06"
"412","11567.34"
"413","11513.15"
"414","11467.98"
"415","11437.42"
"416","11426.99"
"417","11441.96"
"418","11481.31"
"419","11536.29"
"420","11597.77"
"421","11656.63"
"422","11704.88"
"423","11736.13"
"424","11744.22"
"425","11723.05"
"426","11672.7"
"427","11606.04"
"428","11537.45"
"429","11481.24"
"430","11448.2"
"431","11439.86"
"432","11456.2"
"433","11497.22"
"434","11559.05"
"435","11624.67"
"436","11674.27"
"437","11688.19"
"438","11654.1"
"439","11591.29"
"440","11527.56"
"441","11490.52"
"442","11501.35"
"443","11546.93"
"444","11602.53"
"445","11643.61"
"446","11649.44"
"447","11624.1"
"448","11581.89"
"449","11537.03"
"450","11502.28"
"451","11479"
"452","11462.92"
"453","11449.76"
"454","11435.51"
"455","11418.4"
"456","11398.01"
"457","11373.9"
"458","11345.94"
"459","11317.37"
"460","11293.66"
"461","11280.27"
"462","11281.98"
"463","11293.82"
"464","11303.58"
"465","11298.98"
"466","11268.73"
"467","11217.58"
"468","11163.67"
"469","11125.43"
"470","11120.22"
"471","11146.66"
"472","11186.2"
"473","11219.78"
"474","11229.19"
"475","11213.61"
"476","11189.38"
"477","11173.52"
"478","11182.34"
"479","11217.1"
"480","11263.13"
"481","11305.08"
"482","11327.97"
"483","11325.51"
"484","11301.05"
"485","11258.45"
"486","11201.64"
"487","11137.95"
"488","11078.65"
"489","11035.17"
"490","11018.46"
"491","11025.82"
"492","11038.29"
"493","11036.05"
"494","10999.87"
"495","10926.32"
"496","10830.98"
"497","10730.5"
"498","10641.22"
"499","10573.05"
"500","10528.08"
"501","10507.96"
"502","10514.01"
"503","10537.19"
"504","10556.24"
"505","10549.26"
"506","10495.23"
"507","10395.29"
"508","10276.12"
"509","10165.71"
"510","10091.16"
"511","10059.6"
"512","10056.1"
"513","10064.65"
"514","10069.63"
"515","10062.93"
"516","10044.34"
"517","10014"
"518","9972.341"
"519","9926.203"
"520","9888.675"
"521","9873.035"
"522","9891.509"
"523","9937.175"
"524","9985.872"
"525","10012.95"
"526","9995.434"
"527","9936.144"
"528","9859.014"
"529","9788.474"
"530","9747.238"
"531","9735.494"
"532","9736.885"
"533","9734.758"
"534","9713.962"
"535","9676.144"
"536","9633.854"
"537","9599.771"
"538","9585.058"
"539","9586.512"
"540","9592.833"
"541","9592.682"
"542","9576.647"
"543","9550.649"
"544","9528.019"
"545","9522.063"
"546","9543.348"
"547","9584.399"
"548","9630.418"
"549","9666.652"
"550","9680.663"
"551","9672.26"
"552","9645.385"
"553","9603.96"
"554","9553.441"
"555","9506.058"
"556","9475.843"
"557","9476.771"
"558","9515.716"
"559","9574.947"
"560","9631.464"
"561","9662.387"
"562","9653.989"
"563","9617.53"
"564","9568.469"
"565","9522.163"
"566","9489.315"
"567","9470.687"
"568","9465.743"
"569","9473.925"
"570","9492.008"
"571","9512.313"
"572","9526.762"
"573","9527.469"
"574","9512.478"
"575","9487.529"
"576","9458.859"
"577","9432.546"
"578","9411.576"
"579","9395.873"
"580","9385.22"
"581","9379.356"
"582","9377.369"
"583","9377.851"
"584","9379.385"
"585","9380.814"
"586","9383.453"
"587","9390.009"
"588","9403.196"
"589","9424.786"
"590","9450.277"
"591","9472.603"
"592","9484.715"
"593","9481.142"
"594","9463.655"
"595","9436.114"
"596","9402.372"
"597","9367.135"
"598","9337.918"
"599","9322.767"
"600","9329.664"
"601","9359.785"
"602","9399.246"
"603","9432.203"
"604","9443.05"
"605","9426.497"
"606","9393.096"
"607","9354.698"
"608","9322.924"
"609","9304.418"
"610","9300.531"
"611","9312.352"
"612","9340.503"
"613","9379.234"
"614","9418.13"
"615","9446.697"
"616","9455.921"
"617","9448.693"
"618","9433.767"
"619","9419.91"
"620","9413.864"
"621","9412.187"
"622","9408.178"
"623","9395.17"
"624","9369.597"
"625","9337.794"
"626","9308.045"
"627","9288.572"
"628","9283.076"
"629","9286.171"
"630","9291.394"
"631","9292.444"
"632","9288.507"
"633","9285.813"
"634","9291.05"
"635","9310.468"
"636","9343.488"
"637","9383.893"
"638","9425.316"
"639","9461.436"
"640","9486.096"
"641","9493.241"
"642","9476.836"
"643","9433.81"
"644","9375.743"
"645","9318.729"
"646","9278.805"
"647","9265.688"
"648","9271.095"
"649","9283.55"
"650","9291.717"
"651","9291.476"
"652","9290.881"
"653","9299.139"
"654","9324.98"
"655","9366.499"
"656","9411.021"
"657","9445.419"
"658","9457.97"
"659","9451.424"
"660","9437.251"
"661","9427"
"662","9429.868"
"663","9442.236"
"664","9456.104"
"665","9463.496"
"666","9459.345"
"667","9447.155"
"668","9432.017"
"669","9418.96"
"670","9410.725"
"671","9406.266"
"672","9404.197"
"673","9403.183"
"674","9402.927"
"675","9404.091"
"676","9407.379"
"677","9413.477"
"678","9422.995"
"679","9436.499"
"680","9454.551"
"681","9477.219"
"682","9502.384"
"683","9527.347"
"684","9549.412"
"685","9566.396"
"686","9577.262"
"687","9581.127"
"688","9577.223"
"689","9568.329"
"690","9561.476"
"691","9563.924"
"692","9581.912"
"693","9610.028"
"694","9635.4"
"695","9645.058"
"696","9629.37"
"697","9596.128"
"698","9558.798"
"699","9530.804"
"700","9520.625"
"701","9524.269"
"702","9535.8"
"703","9549.356"
"704","9561.238"
"705","9570.517"
"706","9576.448"
"707","9578.547"
"708","9579.481"
"709","9583.996"
"710","9596.854"
"711","9620.899"
"712","9649.177"
"713","9671.6"
"714","9678.126"
"715","9665.04"
"716","9643.575"
"717","9627.098"
"718","9628.61"
"719","9650.769"
"720","9684.353"
"721","9719.491"
"722","9746.838"
"723","9761.881"
"724","9762.84"
"725","9747.966"
"726","9717.979"
"727","9683.693"
"728","9658.51"
"729","9655.709"
"730","9680.408"
"731","9722.736"
"732","9771.233"
"733","9814.727"
"734","9846.898"
"735","9865.646"
"736","9869.013"
"737","9856.135"
"738","9833.237"
"739","9809.378"
"740","9793.594"
"741","9792.076"
"742","9803.334"
"743","9824.573"
"744","9852.959"
"745","9883.508"
"746","9908.657"
"747","9920.701"
"748","9913.354"
"749","9893.63"
"750","9875.821"
"751","9874.285"
"752","9897.915"
"753","9935.663"
"754","9971.938"
"755","9991.374"
"756","9990.32"
"757","9983.114"
"758","9985.591"
"759","10012.12"
"760","10059.11"
"761","10110.8"
"762","10151.2"
"763","10168.09"
"764","10165.84"
"765","10153.45"
"766","10139.89"
"767","10130.63"
"768","10124.94"
"769","10121.49"
"770","10119.1"
"771","10119.13"
"772","10124.86"
"773","10139.61"
"774","10165.68"
"775","10200.41"
"776","10239.61"
"777","10279.12"
"778","10316.29"
"779","10351.3"
"780","10384.63"
"781","10416.58"
"782","10444.62"
"783","10463.99"
"784","10469.91"
"785","10460.31"
"786","10446.45"
"787","10443.56"
"788","10466.72"
"789","10517.9"
"790","10575.55"
"791","10615.73"
"792","10616.54"
"793","10584.09"
"794","10544.56"
"795","10524.57"
"796","10543.59"
"797","10590.36"
"798","10645.42"
"799","10689.43"
"800","10711.99"
"801","10716.59"
"802","10707.96"
"803","10690.77"
"804","10669.05"
"805","10646.47"
"806","10626.68"
"807","10613.09"
"808","10608.31"
"809","10614.77"
"810","10634.81"
"811","10667.9"
"812","10709.88"
"813","10756.35"
"814","10802.95"
"815","10845.39"
"816","10879.4"
"817","10900.73"
"818","10906.91"
"819","10899.99"
"820","10882.71"
"821","10858.09"
"822","10834.6"
"823","10825.7"
"824","10845.04"
"825","10900.96"
"826","10974.04"
"827","11035.83"
"828","11058.12"
"829","11030.76"
"830","10974.7"
"831","10913.96"
"832","10871.18"
"833","10854.26"
"834","10861.9"
"835","10892.67"
"836","10943.08"
"837","11002.92"
"838","11060.61"
"839","11104.86"
"840","11130.75"
"841","11140.37"
"842","11136.15"
"843","11120.74"
"844","11097.97"
"845","11072.16"
"846","11047.58"
"847","11029.1"
"848","11022.58"
"849","11033.99"
"850","11068.37"
"851","11119.8"
"852","11175.4"
"853","11222.18"
"854","11250.8"
"855","11263.41"
"856","11264.42"
"857","11258.28"
"858","11250.01"
"859","11245.28"
"860","11249.74"
"861","11267.58"
"862","11294.96"
"863","11325.44"
"864","11352.59"
"865","11373.01"
"866","11388.01"
"867","11399.3"
"868","11408.55"
"869","11416.96"
"870","11425.48"
"871","11435.03"
"872","11446.73"
"873","11462.06"
"874","11482.56"
"875","11509.59"
"876","11542.03"
"877","11576.83"
"878","11610.91"
"879","11641.37"
"880","11666.05"
"881","11682.93"
"882","11690.1"
"883","11688.06"
"884","11679.91"
"885","11668.9"
"886","11658.51"
"887","11653.57"
"888","11659.32"
"889","11680.92"
"890","11719.66"
"891","11771.03"
"892","11830.11"
"893","11891.67"
"894","11948.37"
"895","11991.92"
"896","12014.09"
"897","12012.72"
"898","11997.5"
"899","11979.47"
"900","11968.84"
"901","11967.26"
"902","11971.34"
"903","11977.64"
"904","11984.56"
"905","11995.11"
"906","12013.01"
"907","12041.51"
"908","12077.08"
"909","12111.19"
"910","12135.21"
"911","12143.9"
"912","12142.69"
"913","12139.13"
"914","12140.56"
"915","12150.33"
"916","12168.22"
"917","12193.89"
"918","12224.18"
"919","12245.02"
"920","12239.72"
"921","12192.64"
"922","12114.19"
"923","12041.83"
"924","12014.23"
"925","12058.99"
"926","12153.56"
"927","12261.37"
"928","12346.45"
"929","12393.25"
"930","12410.14"
"931","12406.87"
"932","12392.45"
"933","12372.41"
"934","12351.14"
"935","12333.01"
"936","12321.14"
"937","12317.1"
"938","12322.35"
"939","12336.9"
"940","12352.76"
"941","12359.22"
"942","12345.81"
"943","12313.77"
"944","12280.2"
"945","12263.33"
"946","12277.31"
"947","12312.52"
"948","12350.79"
"949","12374.15"
"950","12374.06"
"951","12355.09"
"952","12322.78"
"953","12283.46"
"954","12248.01"
"955","12228.98"
"956","12238.68"
"957","12278.31"
"958","12333.72"
"959","12389.66"
"960","12432.57"
"961","12458.67"
"962","12467.64"
"963","12459.27"
"964","12436.97"
"965","12408.99"
"966","12383.94"
"967","12369.37"
"968","12367.27"
"969","12377.78"
"970","12400.92"
"971","12432.24"
"972","12461.77"
"973","12479.2"
"974","12476.77"
"975","12459.01"
"976","12434.2"
"977","12410.53"
"978","12392.66"
"979","12381.35"
"980","12377.18"
"981","12380.52"
"982","12391.02"
"983","12408.12"
"984","12431.06"
"985","12455"
"986","12471.07"
"987","12470.2"
"988","12447.64"
"989","12414.16"
"990","12384.01"
"991","12370.84"
"992","12378.11"
"993","12400.73"
"994","12433.32"
"995","12471.25"
"996","12512.02"
"997","12553.52"
"998","12593.43"
"999","12626.57"
"1000","12645.79"
"1001","12643.9"
"1002","12619.91"
"1003","12587.5"
"1004","12562.43"
"1005","12560.47"
"1006","12594.11"
"1007","12653.55"
"1008","12719.82"
"1009","12774.11"
"1010","12806.42"
"1011","12819.5"
"1012","12817.05"
"1013","12803.1"
"1014","12783.35"
"1015","12764.1"
"1016","12751.55"
"1017","12749.19"
"1018","12757.34"
"1019","12776.12"
"1020","12804.92"
"1021","12839.88"
"1022","12876.34"
"1023","12909.72"
"1024","12937.92"
"1025","12961.11"
"1026","12979.55"
"1027","12993.72"
"1028","13004.83"
"1029","13014.22"
"1030","13023.13"
"1031","13031.61"
"1032","13038.82"
"1033","13043.91"
"1034","13047.75"
"1035","13054.99"
"1036","13070.84"
"1037","13099.8"
"1038","13140.48"
"1039","13188.46"
"1040","13239.27"
"1041","13286.14"
"1042","13318.63"
"1043","13325.97"
"1044","13301.31"
"1045","13259.55"
"1046","13223.17"
"1047","13214"
"1048","13236.89"
"1049","13278.04"
"1050","13322.7"
"1051","13358.83"
"1052","13384.06"
"1053","13398.13"
"1054","13401"
"1055","13395.34"
"1056","13385.8"
"1057","13377.09"
"1058","13373.68"
"1059","13379.57"
"1060","13398.66"
"1061","13433.57"
"1062","13476.96"
"1063","13516.97"
"1064","13541.95"
"1065","13550.48"
"1066","13554.92"
"1067","13568.61"
"1068","13600.05"
"1069","13637.4"
"1070","13663.43"
"1071","13662.17"
"1072","13638.33"
"1073","13613.29"
"1074","13608.92"
"1075","13636.36"
"1076","13681.81"
"1077","13727.92"
"1078","13758.86"
"1079","13770.67"
"1080","13764.84"
"1081","13743"
"1082","13710.24"
"1083","13676.18"
"1084","13650.76"
"1085","13641.85"
"1086","13649.44"
"1087","13671.66"
"1088","13706.04"
"1089","13742.82"
"1090","13767.01"
"1091","13763.59"
"1092","13729.57"
"1093","13685.1"
"1094","13652.97"
"1095","13651.37"
"1096","13671.64"
"1097","13695.48"
"1098","13705.06"
"1099","13693.75"
"1100","13665.94"
"1101","13626.54"
"1102","13582.27"
"1103","13544.83"
"1104","13526.73"
"1105","13538.58"
"1106","13575.58"
"1107","13625.47"
"1108","13676.04"
"1109","13718.84"
"1110","13750.19"
"1111","13766.68"
"1112","13766.57"
"1113","13753.72"
"1114","13733.18"
"1115","13709.88"
"1116","13687.43"
"1117","13668.67"
"1118","13656.43"
"1119","13654"
"1120","13665.3"
"1121","13694.34"
"1122","13740.92"
"1123","13788.32"
"1124","13815.77"
"1125","13804.69"
"1126","13762.71"
"1127","13714.61"
"1128","13685.25"
"1129","13685.63"
"1130","13704.65"
"1131","13729.21"
"1132","13748.09"
"1133","13757.96"
"1134","13757.54"
"1135","13746.28"
"1136","13732.64"
"1137","13731.1"
"1138","13756.01"
"1139","13807.82"
"1140","13865.02"
"1141","13904.13"
"1142","13907.46"
"1143","13880.37"
"1144","13833.93"
"1145","13779.51"
"1146","13731.32"
"1147","13705.41"
"1148","13717.52"
"1149","13767.4"
"1150","13831.86"
"1151","13885.91"
"1152","13912.37"
"1153","13921.01"
"1154","13927.44"
"1155","13945.34"
"1156","13970.71"
"1157","13990.14"
"1158","13990.59"
"1159","13973.65"
"1160","13958.53"
"1161","13965.43"
"1162","14003.9"
"1163","14054.06"
"1164","14091.03"
"1165","14094.68"
"1166","14077.15"
"1167","14064"
"1168","14079.44"
"1169","14119.05"
"1170","14152.01"
"1171","14146.66"
"1172","14094.63"
"1173","14034.37"
"1174","14009.98"
"1175","14053.18"
"1176","14137.81"
"1177","14220.81"
"1178","14262.26"
"1179","14259.93"
"1180","14236.23"
"1181","14213.71"
"1182","14203.12"
"1183","14198.95"
"1184","14194.55"
"1185","14186.58"
"1186","14181.54"
"1187","14187.77"
"1188","14211.5"
"1189","14244.62"
"1190","14273.06"
"1191","14283.61"
"1192","14279.26"
"1193","14277.14"
"1194","14294.68"
"1195","14337.02"
"1196","14387.61"
"1197","14427.65"
"1198","14443.82"
"1199","14443.3"
"1200","14438.1"
"1201","14439.14"
"1202","14448.1"
"1203","14461.98"
"1204","14477.73"
"1205","14491.47"
"1206","14498.53"
"1207","14494.23"
"1208","14478.94"
"1209","14462.95"
"1210","14457.67"
"1211","14470.5"
"1212","14492.5"
"1213","14510.6"
"1214","14513.3"
"1215","14503.23"
"1216","14490.26"
"1217","14484.15"
"1218","14489.61"
"1219","14506.46"
"1220","14534.24"
"1221","14568.76"
"1222","14598.79"
"1223","14612.37"
"1224","14603.14"
"1225","14585.55"
"1226","14578.87"
"1227","14599.36"
"1228","14640.75"
"1229","14686.43"
"1230","14720.48"
"1231","14739.33"
"1232","14749.91"
"1233","14759.45"
"1234","14771.26"
"1235","14782.68"
"1236","14790.54"
"1237","14794.33"
"1238","14801.09"
"1239","14819.25"
"1240","14854.03"
"1241","14893.07"
"1242","14917.98"
"1243","14912.65"
"1244","14886.77"
"1245","14866.22"
"1246","14876.25"
"1247","14917.64"
"1248","14964.29"
"1249","14988.86"
"1250","14980.93"
"1251","14962.55"
"1252","14959.49"
"1253","14987.62"
"1254","15028.71"
"1255","15057.11"
"1256","15052.37"
"1257","15027.31"
"1258","15007.87"
"1259","15018.02"
"1260","15056.55"
"1261","15105.13"
"1262","15145.31"
"1263","15165.93"
"1264","15164.07"
"1265","15137.37"
"1266","15092.98"
"1267","15056.13"
"1268","15054.06"
"1269","15101.7"
"1270","15173.64"
"1271","15236.32"
"1272","15261.5"
"1273","15251.54"
"1274","15219.63"
"1275","15179.34"
"1276","15148.09"
"1277","15145.6"
"1278","15190.04"
"1279","15266.41"
"1280","15328.39"
"1281","15329.08"
"1282","15258.64"
"1283","15162.64"
"1284","15091.16"
"1285","15075.4"
"1286","15101.13"
"1287","15147.45"
"1288","15194.98"
"1289","15230.23"
"1290","15241.19"
"1291","15219.05"
"1292","15175.89"
"1293","15132.17"
"1294","15107.45"
"1295","15110.72"
"1296","15144.38"
"1297","15210.24"
"1298","15299.24"
"1299","15392.07"
"1300","15469.01"
"1301","15513.06"
"1302","15511.09"
"1303","15450.36"
"1304","15338.32"
"1305","15226.03"
"1306","15170.23"
"1307","15205.39"
"1308","15292.1"
"1309","15375.64"
"1310","15411.22"
"1311","15404.93"
"1312","15379.13"
"1313","15354.55"
"1314","15338.86"
"1315","15333.45"
"1316","15339.08"
"1317","15349.3"
"1318","15352.52"
"1319","15337.75"
"1320","15309.25"
"1321","15286.5"
"1322","15289.35"
"1323","15323.65"
"1324","15375.54"
"1325","15429.7"
"1326","15472.88"
"1327","15495.94"
"1328","15490.23"
"1329","15454.02"
"1330","15405.11"
"1331","15364.79"
"1332","15349.69"
"1333","15357.41"
"1334","15380.71"
"1335","15412.89"
"1336","15450.45"
"1337","15491.06"
"1338","15531.53"
"1339","15561.29"
"1340","15566.1"
"1341","15533.72"
"1342","15477.52"
"1343","15428.27"
"1344","15415.61"
"1345","15440.08"
"1346","15475.94"
"1347","15496.92"
"1348","15492.38"
"1349","15470.25"
"1350","15439.64"
"1351","15413.76"
"1352","15412.21"
"1353","15455.02"
"1354","15541.47"
"1355","15628.37"
"1356","15667.34"
"1357","15632.19"
"1358","15556.19"
"1359","15482.54"
"1360","15443.14"
"1361","15430.12"
"1362","15426.85"
"1363","15420.63"
"1364","15416.88"
"1365","15426.22"
"1366","15455.99"
"1367","15494"
"1368","15520.77"
"1369","15518.9"
"1370","15487.29"
"1371","15432.43"
"1372","15362.3"
"1373","15299.33"
"1374","15274.37"
"1375","15314.8"
"1376","15399.79"
"1377","15474.09"
"1378","15484.74"
"1379","15434.02"
"1380","15371.92"
"1381","15348.43"
"1382","15373.11"
"1383","15413.55"
"1384","15436.09"
"1385","15430.93"
"1386","15417.76"
"1387","15417.78"
"1388","15435.04"
"1389","15448.63"
"1390","15435.86"
"1391","15391.7"
"1392","15341.41"
"1393","15313.15"
"1394","15320.81"
"1395","15349.65"
"1396","15381.53"
"1397","15403.83"
"1398","15416.75"
"1399","15422.29"
"1400","15421.52"
"1401","15413.01"
"1402","15394.88"
"1403","15367.23"
"1404","15336.21"
"1405","15309.14"
"1406","15292.57"
"1407","15290.3"
"1408","15305.53"
"1409","15338.08"
"1410","15374.4"
"1411","15397.57"
"1412","15395.35"
"1413","15376.33"
"1414","15354.89"
"1415","15343.03"
"1416","15340.94"
"1417","15345.2"
"1418","15352.36"
"1419","15359.04"
"1420","15361.83"
"1421","15358.48"
"1422","15353.32"
"1423","15353.13"
"1424","15364.9"
"1425","15397.11"
"1426","15458.76"
"1427","15554.04"
"1428","15653.87"
"1429","15715.19"
"1430","15704.24"
"1431","15655.23"
"1432","15632.42"
"1433","15688.88"
"1434","15790.49"
"1435","15862.9"
"1436","15842.88"
"1437","15758.03"
"1438","15679.3"
"1439","15669.68"
"1440","15723.87"
"1441","15803.1"
"1442","15870.54"
"1443","15908"
"1444","15906.5"
"1445","15860.6"
"1446","15793.96"
"1447","15744.87"
"1448","15746.64"
"1449","15789.29"
"1450","15841.09"
"1451","15872.06"
"1452","15868.54"
"1453","15824.95"
"1454","15739.46"
"1455","15640.17"
"1456","15569.85"
"1457","15563.72"
"1458","15596.14"
"1459","15612.55"
"1460","15567.23"
"1461","15483.6"
"1462","15416.88"
"1463","15413.03"
"1464","15449.77"
"1465","15474.78"
"1466","15444.03"
"1467","15371.22"
"1468","15294.07"
"1469","15244.9"
"1470","15220.92"
"1471","15205.6"
"1472","15184.45"
"1473","15155.32"
"1474","15120.55"
"1475","15084.55"
"1476","15062.88"
"1477","15074.84"
"1478","15130.01"
"1479","15190.35"
"1480","15203.21"
"1481","15133.59"
"1482","15024.58"
"1483","14940.84"
"1484","14928.24"
"1485","14958.15"
"1486","14983.5"
"1487","14970.34"
"1488","14930.68"
"1489","14886.57"
"1490","14856.23"
"1491","14845.99"
"1492","14859.94"
"1493","14894.47"
"1494","14925.34"
"1495","14924.92"
"1496","14881.84"
"1497","14822.62"
"1498","14779.07"
"1499","14770.32"
"1500","14789.98"
"1501","14828.52"
"1502","14870.05"
"1503","14887.77"
"1504","14854.35"
"1505","14773.66"
"1506","14695.55"
"1507","14672.39"
"1508","14713.81"
"1509","14775.98"
"1510","14812.77"
"1511","14808.09"
"1512","14777.47"
"1513","14737.9"
"1514","14705.16"
"1515","14693.93"
"1516","14716.94"
"1517","14760.45"
"1518","14791.23"
"1519","14779.07"
"1520","14730.74"
"1521","14675.26"
"1522","14639.6"
"1523","14631.12"
"1524","14647.62"
"1525","14684.4"
"1526","14721.41"
"1527","14732.6"
"1528","14699.21"
"1529","14638.39"
"1530","14578.27"
"1531","14541.14"
"1532","14527.16"
"1533","14531.24"
"1534","14546.92"
"1535","14563.77"
"1536","14570.69"
"1537","14563.55"
"1538","14553.86"
"1539","14555.11"
"1540","14570.98"
"1541","14588.19"
"1542","14592.06"
"1543","14577.19"
"1544","14550.5"
"1545","14519.7"
"1546","14490.97"
"1547","14468.93"
"1548","14457.77"
"1549","14455.94"
"1550","14457.46"
"1551","14457.05"
"1552","14457.5"
"1553","14466.34"
"1554","14489.22"
"1555","14518.42"
"1556","14540.48"
"1557","14544.3"
"1558","14530.73"
"1559","14504.31"
"1560","14471.07"
"1561","14442.24"
"1562","14430.17"
"1563","14437.73"
"1564","14444.39"
"1565","14426.17"
"1566","14374.55"
"1567","14308.18"
"1568","14248.2"
"1569","14205.21"
"1570","14176.41"
"1571","14158.24"
"1572","14149.4"
"1573","14150.62"
"1574","14162.7"
"1575","14186.24"
"1576","14221.77"
"1577","14267.52"
"1578","14304.96"
"1579","14308.09"
"1580","14261.53"
"1581","14201.14"
"1582","14178.21"
"1583","14221.62"
"1584","14289.34"
"1585","14325.44"
"1586","14302.59"
"1587","14253.66"
"1588","14218.75"
"1589","14217.5"
"1590","14240.44"
"1591","14275.61"
"1592","14305.43"
"1593","14306.85"
"1594","14260.11"
"1595","14186.71"
"1596","14134.81"
"1597","14144.79"
"1598","14199.14"
"1599","14255.87"
"1600","14281.2"
"1601","14277.26"
"1602","14255.81"
"1603","14226.92"
"1604","14196.17"
"1605","14168.37"
"1606","14147.52"
"1607","14136.26"
"1608","14137.06"
"1609","14151.37"
"1610","14179.51"
"1611","14220.71"
"1612","14260.56"
"1613","14275.04"
"1614","14246.21"
"1615","14202.14"
"1616","14191.29"
"1617","14245.58"
"1618","14326"
"1619","14374.7"
"1620","14358.26"
"1621","14305.15"
"1622","14253.13"
"1623","14218.97"
"1624","14187.05"
"1625","14140.48"
"1626","14093.21"
"1627","14088.51"
"1628","14164.15"
"1629","14289.21"
"1630","14392.77"
"1631","14416.91"
"1632","14378.7"
"1633","14320.92"
"1634","14277.85"
"1635","14257.14"
"1636","14261.14"
"1637","14280.85"
"1638","14286.79"
"1639","14248.97"
"1640","14179.6"
"1641","14135.79"
"1642","14170.34"
"1643","14262.43"
"1644","14344.89"
"1645","14363.36"
"1646","14342.1"
"1647","14333.52"
"1648","14369.45"
"1649","14417.33"
"1650","14432.43"
"1651","14397.24"
"1652","14341.3"
"1653","14297.95"
"1654","14279.46"
"1655","14277.2"
"1656","14282.6"
"1657","14296.21"
"1658","14323.71"
"1659","14364.92"
"1660","14390.89"
"1661","14363.97"
"1662","14273.13"
"1663","14174.93"
"1664","14135.45"
"1665","14167.96"
"1666","14212.86"
"1667","14209.09"
"1668","14154.72"
"1669","14093.15"
"1670","14062.89"
"1671","14061.8"
"1672","14070.99"
"1673","14072.6"
"1674","14052.56"
"1675","13997.76"
"1676","13914.83"
"1677","13844.29"
"1678","13827.98"
"1679","13865.66"
"1680","13918.27"
"1681","13948.68"
"1682","13948.07"
"1683","13921.35"
"1684","13873.63"
"1685","13810.18"
"1686","13736.41"
"1687","13665.13"
"1688","13623.24"
"1689","13637.34"
"1690","13689.81"
"1691","13719.25"
"1692","13672.12"
"1693","13578.91"
"1694","13513.03"
"1695","13523.28"
"1696","13560.43"
"1697","13551.64"
"1698","13474.12"
"1699","13399.13"
"1700","13404.6"
"1701","13488.63"
"1702","13573.61"
"1703","13589.53"
"1704","13550.21"
"1705","13509.02"
"1706","13505.09"
"1707","13526.77"
"1708","13551.44"
"1709","13562.74"
"1710","13554.65"
"1711","13523.07"
"1712","13479.82"
"1713","13449.58"
"1714","13451.77"
"1715","13470.46"
"1716","13476.08"
"1717","13449.4"
"1718","13399.58"
"1719","13340.69"
"1720","13288.74"
"1721","13262.25"
"1722","13277.65"
"1723","13326.77"
"1724","13386.35"
"1725","13435.5"
"1726","13464.93"
"1727","13468.59"
"1728","13450.28"
"1729","13432.71"
"1730","13439.35"
"1731","13465.92"
"1732","13483.32"
"1733","13466.61"
"1734","13424.79"
"1735","13380.76"
"1736","13351.22"
"1737","13335.69"
"1738","13330.82"
"1739","13334.05"
"1740","13343.88"
"1741","13358.59"
"1742","13373.84"
"1743","13383.83"
"1744","13382.1"
"1745","13359.71"
"1746","13307.41"
"1747","13233.36"
"1748","13173.07"
"1749","13161.61"
"1750","13195.56"
"1751","13244.37"
"1752","13282.59"
"1753","13311.87"
"1754","13341.78"
"1755","13369.51"
"1756","13368.65"
"1757","13312.91"
"1758","13224.52"
"1759","13166.06"
"1760","13185.61"
"1761","13242.36"
"1762","13264.6"
"1763","13219.56"
"1764","13159.73"
"1765","13146.06"
"1766","13182.1"
"1767","13218.4"
"1768","13212.4"
"1769","13177.24"
"1770","13147.3"
"1771","13143.98"
"1772","13158.09"
"1773","13176.22"
"1774","13188.08"
"1775","13186.37"
"1776","13166.75"
"1777","13142.72"
"1778","13134.81"
"1779","13154.17"
"1780","13189.94"
"1781","13228.49"
"1782","13263.72"
"1783","13296.68"
"1784","13325.64"
"1785","13330.46"
"1786","13284.16"
"1787","13190.54"
"1788","13120.94"
"1789","13150.38"
"1790","13255.53"
"1791","13327.17"
"1792","13278.97"
"1793","13164.5"
"1794","13083.97"
"1795","13087.62"
"1796","13129.1"
"1797","13154.1"
"1798","13154.57"
"1799","13157.5"
"1800","13181.46"
"1801","13203.35"
"1802","13188.89"
"1803","13136.59"
"1804","13097.51"
"1805","13121.05"
"1806","13186.06"
"1807","13227.76"
"1808","13202.79"
"1809","13144.65"
"1810","13102.82"
"1811","13099.11"
"1812","13120.66"
"1813","13150.99"
"1814","13162.74"
"1815","13123.46"
"1816","13031.81"
"1817","12965.36"
"1818","13008.93"
"1819","13142.42"
"1820","13248.48"
"1821","13231.72"
"1822","13133.91"
"1823","13041.77"
"1824","13003.28"
"1825","12997.92"
"1826","12999.94"
"1827","13003.78"
"1828","13016.95"
"1829","13041.27"
"1830","13058.52"
"1831","13046.79"
"1832","13004.82"
"1833","12955.61"
"1834","12920.71"
"1835","12902.44"
"1836","12895.16"
"1837","12897.22"
"1838","12915.39"
"1839","12956.59"
"1840","13013.93"
"1841","13070.36"
"1842","13108.59"
"1843","13111.56"
"1844","13063.16"
"1845","12982.2"
"1846","12931.48"
"1847","12964.41"
"1848","13047.02"
"1849","13107.7"
"1850","13108.34"
"1851","13082.53"
"1852","13070.36"
"1853","13074.68"
"1854","13071.43"
"1855","13048"
"1856","13035.37"
"1857","13072.79"
"1858","13149.23"
"1859","13195.7"
"1860","13154.92"
"1861","13061.93"
"1862","12986.41"
"1863","12968.23"
"1864","12993.28"
"1865","13041.01"
"1866","13083.67"
"1867","13089.18"
"1868","13044.31"
"1869","12989.39"
"1870","12972.02"
"1871","12997.77"
"1872","13034.52"
"1873","13054.29"
"1874","13053.48"
"1875","13035.46"
"1876","13013.58"
"1877","13014.23"
"1878","13057.71"
"1879","13116.87"
"1880","13145.12"
"1881","13123.6"
"1882","13085.5"
"1883","13065.66"
"1884","13055.44"
"1885","13020.52"
"1886","12947.82"
"1887","12881.91"
"1888","12873.73"
"1889","12922.28"
"1890","12984.26"
"1891","13021.79"
"1892","13022.12"
"1893","12979.29"
"1894","12912.85"
"1895","12869.99"
"1896","12886.86"
"1897","12935.04"
"1898","12965.93"
"1899","12957.84"
"1900","12927.28"
"1901","12893.37"
"1902","12873.3"
"1903","12883.29"
"1904","12921.84"
"1905","12955.47"
"1906","12951.67"
"1907","12918.99"
"1908","12887.98"
"1909","12880.18"
"1910","12896.14"
"1911","12932.98"
"1912","12981.5"
"1913","13028.34"
"1914","13060.89"
"1915","13069.03"
"1916","13044.39"
"1917","12999.49"
"1918","12963.43"
"1919","12954.76"
"1920","12955.02"
"1921","12938.93"
"1922","12900.48"
"1923","12851.37"
"1924","12805.2"
"1925","12780.15"
"1926","12794.16"
"1927","12830.06"
"1928","12833.92"
"1929","12770.99"
"1930","12700.55"
"1931","12705.65"
"1932","12785.61"
"1933","12842.76"
"1934","12800.47"
"1935","12714.68"
"1936","12680.77"
"1937","12726.13"
"1938","12792.92"
"1939","12826.99"
"1940","12823.83"
"1941","12795.54"
"1942","12756.89"
"1943","12726.06"
"1944","12718.28"
"1945","12730.35"
"1946","12752.57"
"1947","12772.98"
"1948","12776.55"
"1949","12750.65"
"1950","12697.8"
"1951","12626.28"
"1952","12558.07"
"1953","12533.97"
"1954","12583.76"
"1955","12666.04"
"1956","12715.08"
"1957","12708.11"
"1958","12680.28"
"1959","12666.18"
"1960","12674.54"
"1961","12704.85"
"1962","12742.62"
"1963","12755.4"
"1964","12717.13"
"1965","12641.68"
"1966","12555.69"
"1967","12482.41"
"1968","12440.94"
"1969","12444.75"
"1970","12481.54"
"1971","12531.37"
"1972","12573.02"
"1973","12583.91"
"1974","12548.32"
"1975","12479.82"
"1976","12399.96"
"1977","12336.01"
"1978","12320.81"
"1979","12366.82"
"1980","12411.32"
"1981","12379.8"
"1982","12295.09"
"1983","12263.57"
"1984","12345.22"
"1985","12448.46"
"1986","12460.56"
"1987","12381.11"
"1988","12291.66"
"1989","12244.79"
"1990","12214.47"
"1991","12167.82"
"1992","12130.54"
"1993","12163.47"
"1994","12273.88"
"1995","12357.86"
"1996","12317.01"
"1997","12211.96"
"1998","12179.47"
"1999","12252.08"
"2000","12290.79"
"2001","12175.91"
"2002","12006.34"
"2003","11960.44"
"2004","12069.28"
"2005","12175.19"
"2006","12152.17"
"2007","12077.39"
"2008","12080.51"
"2009","12161.71"
"2010","12194.14"
"2011","12094.28"
"2012","11941.89"
"2013","11846.25"
"2014","11851.11"
"2015","11951.91"
"2016","12103.37"
"2017","12165.78"
"2018","12012.13"
"2019","11760.44"
"2020","11657.86"
"2021","11782.4"
"2022","11922.18"
"2023","11887.9"
"2024","11800.44"
"2025","11889.32"
"2026","12138.1"
"2027","12235.53"
"2028","11971.52"
"2029","11612.23"
"2030","11522.5"
"2031","11712.4"
"2032","11897.97"
"2033","11894.13"
"2034","11797.88"
"2035","11740.71"
"2036","11746.82"
"2037","11780.79"
"2038","11813.67"
"2039","11828.73"
"2040","11814.76"
"2041","11786"
"2042","11764.77"
"2043","11743.8"
"2044","11683.06"
"2045","11566.86"
"2046","11470.56"
"2047","11481.67"
"2048","11581.78"
"2049","11677.68"
"2050","11706.9"
"2051","11675.48"
"2052","11602"
"2053","11532.34"
"2054","11522.77"
"2055","11569.19"
"2056","11589.75"
"2057","11525.12"
"2058","11427.8"
"2059","11374.56"
"2060","11381.03"
"2061","11415.29"
"2062","11452.96"
"2063","11489.77"
"2064","11520.55"
"2065","11513.18"
"2066","11424.72"
"2067","11269.49"
"2068","11136.46"
"2069","11094.27"
"2070","11110.4"
"2071","11130.5"
"2072","11146.82"
"2073","11186.19"
"2074","11254.44"
"2075","11311.43"
"2076","11316.6"
"2077","11265.95"
"2078","11171.23"
"2079","11067.61"
"2080","11017.13"
"2081","11056.1"
"2082","11130.05"
"2083","11170.23"
"2084","11160.7"
"2085","11118.41"
"2086","11068.39"
"2087","11048.48"
"2088","11085.31"
"2089","11142.1"
"2090","11164.59"
"2091","11147.93"
"2092","11131.11"
"2093","11139"
"2094","11158.44"
"2095","11169.8"
"2096","11147.58"
"2097","11064.98"
"2098","10942.59"
"2099","10857.93"
"2100","10860.34"
"2101","10893.56"
"2102","10888.06"
"2103","10866.55"
"2104","10905.48"
"2105","11001.55"
"2106","11026.2"
"2107","10889.71"
"2108","10720.7"
"2109","10693.97"
"2110","10784.03"
"2111","10815.99"
"2112","10707.32"
"2113","10561.04"
"2114","10483.63"
"2115","10482.83"
"2116","10532.46"
"2117","10599.46"
"2118","10644.61"
"2119","10638.67"
"2120","10575.92"
"2121","10462.5"
"2122","10360.03"
"2123","10349.12"
"2124","10430.54"
"2125","10523.7"
"2126","10565.82"
"2127","10550.42"
"2128","10483.4"
"2129","10395.95"
"2130","10329.51"
"2131","10296.55"
"2132","10277.39"
"2133","10264.17"
"2134","10286.84"
"2135","10370.75"
"2136","10453.95"
"2137","10436.5"
"2138","10314.92"
"2139","10196.88"
"2140","10157.48"
"2141","10160.46"
"2142","10155.3"
"2143","10136.11"
"2144","10117.7"
"2145","10103.4"
"2146","10083.27"
"2147","10054.28"
"2148","10034.58"
"2149","10039.89"
"2150","10039.71"
"2151","9984.666"
"2152","9882.627"
"2153","9803.293"
"2154","9795.346"
"2155","9844.892"
"2156","9923.859"
"2157","9976.247"
"2158","9938.189"
"2159","9831.541"
"2160","9761.65"
"2161","9778.612"
"2162","9798.306"
"2163","9739.84"
"2164","9650.171"
"2165","9617.203"
"2166","9640.752"
"2167","9646.494"
"2168","9596.785"
"2169","9529.25"
"2170","9486.03"
"2171","9489.545"
"2172","9551.696"
"2173","9622.815"
"2174","9611.348"
"2175","9499.156"
"2176","9383.935"
"2177","9347.41"
"2178","9374.694"
"2179","9428.168"
"2180","9465.873"
"2181","9444.983"
"2182","9376.993"
"2183","9339.253"
"2184","9371.762"
"2185","9401.29"
"2186","9350.125"
"2187","9240.117"
"2188","9133.081"
"2189","9074.828"
"2190","9096.272"
"2191","9185.438"
"2192","9247.209"
"2193","9201.581"
"2194","9083.327"
"2195","8959.12"
"2196","8884.114"
"2197","8904.788"
"2198","9007.483"
"2199","9096.385"
"2200","9100.924"
"2201","9045.333"
"2202","8968.561"
"2203","8886.979"
"2204","8807.981"
"2205","8753.099"
"2206","8756.65"
"2207","8812.479"
"2208","8835.096"
"2209","8757.886"
"2210","8636.478"
"2211","8553.256"
"2212","8522.446"
"2213","8518.112"
"2214","8524.214"
"2215","8537.481"
"2216","8558.035"
"2217","8592.714"
"2218","8640.197"
"2219","8646.483"
"2220","8546.391"
"2221","8385.585"
"2222","8290.998"
"2223","8302.038"
"2224","8323.403"
"2225","8280.859"
"2226","8202.382"
"2227","8132.767"
"2228","8093.196"
"2229","8093.79"
"2230","8125.986"
"2231","8165.008"
"2232","8181.123"
"2233","8137.158"
"2234","8021.02"
"2235","7913.118"
"2236","7898.946"
"2237","7938.919"
"2238","7937.208"
"2239","7859.701"
"2240","7730.493"
"2241","7593.729"
"2242","7525.886"
"2243","7573.859"
"2244","7660.412"
"2245","7686.444"
"2246","7613.142"
"2247","7434.208"
"2248","7215.079"
"2249","7087.29"
"2250","7100.455"
"2251","7152.543"
"2252","7155.637"
"2253","7130.218"
"2254","7115.718"
"2255","7110.502"
"2256","7094.812"
"2257","7059.864"
"2258","7006.394"
"2259","6926.114"
"2260","6795.524"
"2261","6611.863"
"2262","6442.832"
"2263","6359.966"
"2264","6367.061"
"2265","6437.408"
"2266","6493.708"
"2267","6422.904"
"2268","6225.43"
"2269","6060.307"
"2270","6016.383"
"2271","5968.216"
"2272","5800.757"
"2273","5631.735"
"2274","5631.25"
"2275","5726.159"
"2276","5702.01"
"2277","5527.626"
"2278","5375.041"
"2279","5329.809"
"2280","5283.52"
"2281","5142.296"
"2282","4955.491"
"2283","4799.261"
"2284","4695.579"
"2285","4639.921"
"2286","4593.259"
"2287","4489.893"
"2288","4329.978"
"2289","4209.384"
"2290","4185.473"
"2291","4196.017"
"2292","4168.896"
"2293","4078.399"
"2294","3917.507"
"2295","3723.521"
"2296","3557.478"
"2297","3456.348"
"2298","3432.876"
"2299","3457.534"
"2300","3431.252"
