,"Scan 00977"
"400","4892.605"
"401","4940.191"
"402","5012.485"
"403","5095.903"
"404","5176.956"
"405","5243.652"
"406","5296.122"
"407","5340.631"
"408","5383.451"
"409","5430.031"
"410","5475.759"
"411","5509.04"
"412","5518.222"
"413","5492.253"
"414","5430.782"
"415","5343.425"
"416","5240.109"
"417","5130.662"
"418","5023.778"
"419","4926.768"
"420","4846.816"
"421","4790.952"
"422","4759.69"
"423","4743.082"
"424","4730.294"
"425","4710.608"
"426","4679.05"
"427","4642.575"
"428","4609.588"
"429","4588.427"
"430","4583.59"
"431","4589.305"
"432","4598.129"
"433","4602.672"
"434","4597.5"
"435","4583.828"
"436","4564.287"
"437","4541.495"
"438","4518.199"
"439","4497.81"
"440","4483.89"
"441","4479.983"
"442","4488.38"
"443","4504.625"
"444","4521.996"
"445","4533.82"
"446","4534.187"
"447","4522.093"
"448","4498.569"
"449","4464.642"
"450","4422.133"
"451","4379.507"
"452","4348.462"
"453","4340.639"
"454","4365.637"
"455","4413.228"
"456","4461.828"
"457","4489.859"
"458","4477.916"
"459","4431.322"
"460","4371.713"
"461","4320.874"
"462","4299.042"
"463","4305.942"
"464","4325.988"
"465","4343.318"
"466","4342.953"
"467","4323.25"
"468","4293.676"
"469","4263.975"
"470","4243.555"
"471","4236.265"
"472","4240.873"
"473","4255.962"
"474","4279.99"
"475","4308.278"
"476","4333.044"
"477","4346.419"
"478","4340.934"
"479","4318.251"
"480","4289.71"
"481","4267.049"
"482","4261.579"
"483","4274.376"
"484","4295.088"
"485","4312.82"
"486","4316.991"
"487","4304.764"
"488","4282.299"
"489","4256.22"
"490","4233.018"
"491","4215.86"
"492","4203.972"
"493","4196.347"
"494","4191.946"
"495","4188.389"
"496","4181.674"
"497","4167.724"
"498","4142.643"
"499","4107.624"
"500","4070.004"
"501","4037.445"
"502","4017.351"
"503","4010.21"
"504","4008.308"
"505","4003.495"
"506","3987.915"
"507","3961.288"
"508","3932.066"
"509","3909.14"
"510","3901.05"
"511","3907.84"
"512","3920.163"
"513","3928.233"
"514","3922.685"
"515","3903.468"
"516","3880.272"
"517","3863.197"
"518","3861.946"
"519","3878.574"
"520","3907.67"
"521","3943.534"
"522","3980.492"
"523","4012.768"
"524","4034.49"
"525","4039.817"
"526","4023.516"
"527","3989.979"
"528","3951.476"
"529","3920.445"
"530","3908.233"
"531","3911.708"
"532","3917.111"
"533","3910.505"
"534","3879.423"
"535","3827.932"
"536","3770.84"
"537","3723.059"
"538","3697.885"
"539","3693.417"
"540","3699.162"
"541","3704.576"
"542","3700.321"
"543","3686.454"
"544","3667.585"
"545","3648.333"
"546","3632.918"
"547","3623.049"
"548","3619.399"
"549","3622.637"
"550","3632.621"
"551","3644.818"
"552","3653.23"
"553","3651.884"
"554","3637.027"
"555","3614.521"
"556","3592.838"
"557","3580.406"
"558","3582.361"
"559","3592.441"
"560","3601.932"
"561","3602.171"
"562","3588.625"
"563","3568.064"
"564","3549.151"
"565","3540.478"
"566","3545.881"
"567","3558.992"
"568","3572.149"
"569","3577.789"
"570","3573.436"
"571","3565.105"
"572","3559.607"
"573","3563.556"
"574","3577.175"
"575","3592.392"
"576","3600.616"
"577","3593.738"
"578","3574.064"
"579","3554.29"
"580","3547.514"
"581","3565.602"
"582","3603.122"
"583","3641.535"
"584","3662.049"
"585","3648.346"
"586","3607.635"
"587","3560.418"
"588","3527.262"
"589","3525.155"
"590","3547.502"
"591","3578.027"
"592","3600.489"
"593","3602.383"
"594","3588.365"
"595","3568.067"
"596","3551.075"
"597","3544.164"
"598","3545.138"
"599","3550.023"
"600","3554.863"
"601","3557.165"
"602","3557.64"
"603","3557.431"
"604","3557.643"
"605","3557.294"
"606","3552.218"
"607","3537.987"
"608","3510.506"
"609","3473.902"
"610","3441.067"
"611","3425.271"
"612","3438.561"
"613","3476.5"
"614","3522.569"
"615","3560.034"
"616","3574.217"
"617","3567.008"
"618","3548.455"
"619","3528.628"
"620","3516.075"
"621","3511.704"
"622","3513.983"
"623","3521.385"
"624","3532.334"
"625","3545.102"
"626","3557.925"
"627","3569.062"
"628","3578.139"
"629","3587.544"
"630","3599.986"
"631","3618.068"
"632","3640.494"
"633","3660.942"
"634","3672.786"
"635","3669.832"
"636","3652.899"
"637","3628.578"
"638","3603.613"
"639","3583.939"
"640","3568.569"
"641","3552.944"
"642","3532.488"
"643","3504.242"
"644","3473.218"
"645","3446.882"
"646","3432.675"
"647","3434.927"
"648","3449.098"
"649","3469.077"
"650","3488.804"
"651","3504.206"
"652","3514.562"
"653","3519.473"
"654","3518.643"
"655","3514.071"
"656","3510.085"
"657","3511.108"
"658","3520.968"
"659","3537.338"
"660","3554.191"
"661","3565.463"
"662","3566.446"
"663","3559.82"
"664","3550.783"
"665","3544.522"
"666","3544.124"
"667","3546.476"
"668","3547.334"
"669","3542.505"
"670","3530.939"
"671","3516.728"
"672","3504.437"
"673","3498.45"
"674","3499.862"
"675","3506.693"
"676","3516.852"
"677","3528.706"
"678","3544.615"
"679","3569.009"
"680","3606.321"
"681","3659.114"
"682","3721.792"
"683","3786.542"
"684","3845.581"
"685","3891.378"
"686","3916.968"
"687","3915.474"
"688","3880.38"
"689","3816.342"
"690","3741.36"
"691","3674.176"
"692","3631.9"
"693","3613.259"
"694","3605.195"
"695","3594.484"
"696","3570.662"
"697","3537.626"
"698","3503.956"
"699","3478.208"
"700","3465.818"
"701","3464.357"
"702","3470.173"
"703","3479.637"
"704","3489.783"
"705","3498.479"
"706","3503.654"
"707","3503.452"
"708","3498.512"
"709","3491.117"
"710","3483.573"
"711","3477.752"
"712","3473.328"
"713","3469.267"
"714","3464.543"
"715","3458.94"
"716","3454.159"
"717","3452.177"
"718","3454.918"
"719","3462.927"
"720","3475.157"
"721","3490.477"
"722","3507.41"
"723","3521.07"
"724","3524.658"
"725","3511.367"
"726","3478.065"
"727","3436.692"
"728","3403.022"
"729","3392.708"
"730","3411.737"
"731","3448.37"
"732","3488.992"
"733","3520.434"
"734","3537.213"
"735","3540.526"
"736","3531.791"
"737","3513.201"
"738","3492.021"
"739","3477.529"
"740","3478.986"
"741","3500.143"
"742","3529.854"
"743","3554.492"
"744","3560.763"
"745","3545.681"
"746","3518.72"
"747","3490.087"
"748","3469.289"
"749","3459.384"
"750","3459.885"
"751","3470.272"
"752","3489.089"
"753","3511.469"
"754","3531.771"
"755","3544.426"
"756","3547.637"
"757","3545.396"
"758","3542.179"
"759","3542.102"
"760","3544.863"
"761","3547.167"
"762","3545.667"
"763","3538.626"
"764","3531.475"
"765","3531.64"
"766","3546.46"
"767","3576.217"
"768","3608.676"
"769","3630.329"
"770","3628.723"
"771","3606.691"
"772","3578.639"
"773","3559.248"
"774","3559.663"
"775","3573.785"
"776","3590.249"
"777","3597.77"
"778","3592.179"
"779","3582.612"
"780","3579.658"
"781","3593.15"
"782","3621.739"
"783","3655.439"
"784","3684.05"
"785","3699.245"
"786","3701.729"
"787","3694.936"
"788","3682.284"
"789","3666.644"
"790","3649.901"
"791","3633.834"
"792","3620.243"
"793","3611.171"
"794","3608.845"
"795","3615.489"
"796","3631.877"
"797","3652.534"
"798","3670.307"
"799","3678.141"
"800","3674.574"
"801","3666.901"
"802","3663.17"
"803","3670.522"
"804","3686.328"
"805","3701.998"
"806","3708.861"
"807","3701.381"
"808","3684.828"
"809","3666.808"
"810","3654.799"
"811","3651.854"
"812","3655.495"
"813","3662.889"
"814","3671.601"
"815","3682.272"
"816","3696.99"
"817","3717.842"
"818","3744.165"
"819","3768.314"
"820","3781.563"
"821","3775.705"
"822","3752.826"
"823","3724.499"
"824","3702.643"
"825","3696.827"
"826","3704.355"
"827","3718.531"
"828","3732.699"
"829","3742.825"
"830","3749.393"
"831","3753.332"
"832","3755.571"
"833","3757.06"
"834","3758.755"
"835","3761.616"
"836","3765.667"
"837","3767.925"
"838","3764.803"
"839","3752.877"
"840","3733.059"
"841","3710.995"
"842","3692.563"
"843","3682.876"
"844","3682.422"
"845","3689.963"
"846","3704.253"
"847","3723.529"
"848","3745.07"
"849","3766.046"
"850","3783.7"
"851","3796.065"
"852","3801.672"
"853","3799.067"
"854","3788.83"
"855","3777.969"
"856","3774.759"
"857","3787.024"
"858","3811.917"
"859","3835.672"
"860","3844.035"
"861","3826.936"
"862","3796.462"
"863","3772.011"
"864","3772.738"
"865","3802.515"
"866","3841.05"
"867","3865.918"
"868","3857.812"
"869","3824.718"
"870","3788.741"
"871","3772.067"
"872","3786.83"
"873","3821.024"
"874","3859.095"
"875","3886.244"
"876","3898.752"
"877","3901.364"
"878","3899.035"
"879","3896.001"
"880","3893.896"
"881","3893.774"
"882","3896.642"
"883","3902.232"
"884","3908.917"
"885","3914.995"
"886","3919.022"
"887","3920.868"
"888","3920.833"
"889","3919.23"
"890","3917.023"
"891","3916.13"
"892","3918.544"
"893","3926.026"
"894","3938.625"
"895","3955.622"
"896","3976.28"
"897","3998.385"
"898","4016.842"
"899","4026.225"
"900","4021.917"
"901","4007.607"
"902","3991.855"
"903","3983.278"
"904","3986.186"
"905","3994.08"
"906","3998.79"
"907","3992.85"
"908","3978.712"
"909","3966.13"
"910","3965.027"
"911","3980.895"
"912","4005.243"
"913","4026.826"
"914","4034.949"
"915","4029.258"
"916","4018.601"
"917","4012.146"
"918","4015.37"
"919","4019.594"
"920","4012.743"
"921","3983.436"
"922","3937.548"
"923","3898.863"
"924","3891.998"
"925","3933.083"
"926","4000.067"
"927","4060.167"
"928","4081.427"
"929","4057.9"
"930","4014.128"
"931","3976.392"
"932","3966.017"
"933","3979.152"
"934","4003.97"
"935","4028.785"
"936","4047.506"
"937","4061.216"
"938","4071.462"
"939","4079.411"
"940","4084.108"
"941","4083.869"
"942","4077.079"
"943","4065.156"
"944","4053.622"
"945","4048.293"
"946","4053.562"
"947","4065.515"
"948","4077.257"
"949","4081.977"
"950","4076.841"
"951","4064.553"
"952","4048.229"
"953","4031.267"
"954","4018.764"
"955","4016.426"
"956","4029.792"
"957","4056.615"
"958","4083.904"
"959","4097.877"
"960","4088.196"
"961","4064.143"
"962","4041.947"
"963","4037.525"
"964","4053.491"
"965","4074.789"
"966","4085.139"
"967","4072.075"
"968","4043.575"
"969","4014.428"
"970","3999.118"
"971","4001.046"
"972","4009.892"
"973","4014.479"
"974","4006.764"
"975","3993.948"
"976","3987.849"
"977","3999.928"
"978","4031.249"
"979","4071.226"
"980","4108.652"
"981","4134.321"
"982","4147.529"
"983","4149.835"
"984","4142.845"
"985","4129.228"
"986","4112.705"
"987","4097.038"
"988","4085.284"
"989","4077.935"
"990","4074.909"
"991","4076.065"
"992","4080.272"
"993","4085.565"
"994","4089.953"
"995","4092.068"
"996","4092.38"
"997","4091.696"
"998","4090.779"
"999","4089.809"
"1000","4088.56"
"1001","4086.802"
"1002","4085.272"
"1003","4086.992"
"1004","4095.311"
"1005","4113.582"
"1006","4143.41"
"1007","4174.645"
"1008","4192.289"
"1009","4181.632"
"1010","4143.22"
"1011","4099.49"
"1012","4074.587"
"1013","4086.794"
"1014","4122.485"
"1015","4157.243"
"1016","4167.2"
"1017","4146.454"
"1018","4110.208"
"1019","4074.88"
"1020","4053.891"
"1021","4047.954"
"1022","4054.43"
"1023","4070.59"
"1024","4091.888"
"1025","4112.095"
"1026","4124.918"
"1027","4126.995"
"1028","4124.199"
"1029","4124.223"
"1030","4134.305"
"1031","4155.686"
"1032","4185.405"
"1033","4220.408"
"1034","4256.669"
"1035","4287.967"
"1036","4307.772"
"1037","4310.674"
"1038","4300.84"
"1039","4287.292"
"1040","4279.014"
"1041","4279.781"
"1042","4285.032"
"1043","4289.455"
"1044","4288.579"
"1045","4282.63"
"1046","4273.456"
"1047","4262.928"
"1048","4253.6"
"1049","4248.769"
"1050","4251.771"
"1051","4264.378"
"1052","4282.835"
"1053","4302.163"
"1054","4317.495"
"1055","4325.53"
"1056","4324.101"
"1057","4311.085"
"1058","4288.471"
"1059","4267.238"
"1060","4259.56"
"1061","4275.387"
"1062","4307.912"
"1063","4342.706"
"1064","4365.522"
"1065","4371.755"
"1066","4369.771"
"1067","4368.857"
"1068","4375.771"
"1069","4386.589"
"1070","4394.569"
"1071","4393.514"
"1072","4386.139"
"1073","4382.355"
"1074","4392.265"
"1075","4418.327"
"1076","4445.175"
"1077","4454.896"
"1078","4433.087"
"1079","4392.188"
"1080","4357"
"1081","4351.879"
"1082","4380.561"
"1083","4420.034"
"1084","4445.484"
"1085","4439.807"
"1086","4415.461"
"1087","4391.999"
"1088","4387.496"
"1089","4400.374"
"1090","4415.139"
"1091","4416.066"
"1092","4396.949"
"1093","4369.924"
"1094","4349.226"
"1095","4346.19"
"1096","4355.31"
"1097","4365.012"
"1098","4364.084"
"1099","4349.537"
"1100","4326.502"
"1101","4300.458"
"1102","4277.649"
"1103","4266.359"
"1104","4275.213"
"1105","4310.508"
"1106","4359.738"
"1107","4401.31"
"1108","4414.024"
"1109","4393.775"
"1110","4357.964"
"1111","4325.376"
"1112","4310.188"
"1113","4310.933"
"1114","4322.824"
"1115","4340.884"
"1116","4358.224"
"1117","4366.828"
"1118","4358.835"
"1119","4335.62"
"1120","4312.204"
"1121","4304.72"
"1122","4323.579"
"1123","4356.601"
"1124","4386.037"
"1125","4395.547"
"1126","4385.651"
"1127","4367.872"
"1128","4353.832"
"1129","4348.684"
"1130","4347.254"
"1131","4343.447"
"1132","4333.149"
"1133","4320.518"
"1134","4311.857"
"1135","4312.888"
"1136","4322.196"
"1137","4333.621"
"1138","4340.979"
"1139","4342.415"
"1140","4342.897"
"1141","4348.003"
"1142","4360.78"
"1143","4374.214"
"1144","4378.783"
"1145","4366.161"
"1146","4341.282"
"1147","4317.34"
"1148","4307.48"
"1149","4316.1"
"1150","4335.057"
"1151","4355.229"
"1152","4369.371"
"1153","4376.746"
"1154","4378.019"
"1155","4374.244"
"1156","4369.999"
"1157","4371.73"
"1158","4385.7"
"1159","4411.223"
"1160","4439.285"
"1161","4460.377"
"1162","4467.47"
"1163","4460.344"
"1164","4439.943"
"1165","4408.032"
"1166","4371.946"
"1167","4341.343"
"1168","4325.502"
"1169","4325.877"
"1170","4336.694"
"1171","4351.913"
"1172","4366.972"
"1173","4380.279"
"1174","4390.598"
"1175","4397.201"
"1176","4401.747"
"1177","4406.592"
"1178","4413.987"
"1179","4424.886"
"1180","4439.397"
"1181","4457.565"
"1182","4477.142"
"1183","4492.746"
"1184","4498.768"
"1185","4492.964"
"1186","4483.075"
"1187","4478.682"
"1188","4487.114"
"1189","4500.306"
"1190","4503.767"
"1191","4483.985"
"1192","4445.667"
"1193","4409.356"
"1194","4395.975"
"1195","4412.35"
"1196","4440.437"
"1197","4459.646"
"1198","4455.703"
"1199","4438.122"
"1200","4422.008"
"1201","4420.772"
"1202","4433.375"
"1203","4451.518"
"1204","4467.073"
"1205","4477.073"
"1206","4483.697"
"1207","4489.344"
"1208","4495.277"
"1209","4500.564"
"1210","4504.009"
"1211","4504.783"
"1212","4503.529"
"1213","4501.263"
"1214","4498.995"
"1215","4497.663"
"1216","4498.166"
"1217","4501.294"
"1218","4505.287"
"1219","4505.868"
"1220","4498.701"
"1221","4484.656"
"1222","4474.344"
"1223","4479.45"
"1224","4505.862"
"1225","4538.059"
"1226","4555.572"
"1227","4541.677"
"1228","4507.998"
"1229","4479.101"
"1230","4478.299"
"1231","4505.605"
"1232","4541.279"
"1233","4565.167"
"1234","4570.414"
"1235","4570.616"
"1236","4581.109"
"1237","4609.944"
"1238","4644.336"
"1239","4667.792"
"1240","4667.18"
"1241","4647.971"
"1242","4622.023"
"1243","4600.713"
"1244","4589.905"
"1245","4592.002"
"1246","4609.061"
"1247","4635.077"
"1248","4655.188"
"1249","4654.19"
"1250","4630.363"
"1251","4607.874"
"1252","4613.828"
"1253","4662.941"
"1254","4727.021"
"1255","4768.582"
"1256","4757.542"
"1257","4711.304"
"1258","4665.979"
"1259","4655.113"
"1260","4679.217"
"1261","4716.319"
"1262","4744.419"
"1263","4754.069"
"1264","4750.107"
"1265","4738.141"
"1266","4723.029"
"1267","4708.197"
"1268","4696.915"
"1269","4691.199"
"1270","4688.985"
"1271","4687.374"
"1272","4684.077"
"1273","4680.253"
"1274","4678.289"
"1275","4680.063"
"1276","4682.233"
"1277","4678.385"
"1278","4662.527"
"1279","4638.296"
"1280","4618.422"
"1281","4615.836"
"1282","4634.294"
"1283","4663.832"
"1284","4693.355"
"1285","4715.464"
"1286","4731.602"
"1287","4744.517"
"1288","4755.543"
"1289","4760.472"
"1290","4753.72"
"1291","4731.933"
"1292","4706.238"
"1293","4693.563"
"1294","4709.08"
"1295","4748.001"
"1296","4793.054"
"1297","4827.234"
"1298","4843.512"
"1299","4844.357"
"1300","4832.648"
"1301","4813.026"
"1302","4792.651"
"1303","4778.862"
"1304","4775.199"
"1305","4777.001"
"1306","4778.542"
"1307","4776.511"
"1308","4775.626"
"1309","4782.265"
"1310","4800.553"
"1311","4823.052"
"1312","4838.628"
"1313","4837.797"
"1314","4824.331"
"1315","4808.36"
"1316","4799.193"
"1317","4794.869"
"1318","4785.562"
"1319","4761.815"
"1320","4726.483"
"1321","4694.662"
"1322","4681.758"
"1323","4692.15"
"1324","4714.71"
"1325","4737.179"
"1326","4752.941"
"1327","4766.621"
"1328","4784.176"
"1329","4807.303"
"1330","4825.62"
"1331","4826.606"
"1332","4804.788"
"1333","4783.446"
"1334","4793.197"
"1335","4857.759"
"1336","4960.43"
"1337","5069.849"
"1338","5159.109"
"1339","5239.208"
"1340","5340.176"
"1341","5487.538"
"1342","5648.544"
"1343","5750.819"
"1344","5725.024"
"1345","5576.29"
"1346","5377.156"
"1347","5201.43"
"1348","5083.377"
"1349","5010.078"
"1350","4965.859"
"1351","4936.156"
"1352","4908.146"
"1353","4869.212"
"1354","4816.138"
"1355","4764.956"
"1356","4734.044"
"1357","4732.782"
"1358","4746.371"
"1359","4755.998"
"1360","4748.026"
"1361","4727.08"
"1362","4701.803"
"1363","4679.899"
"1364","4664.722"
"1365","4658.377"
"1366","4661.949"
"1367","4670.41"
"1368","4676.469"
"1369","4673.992"
"1370","4665.91"
"1371","4659.397"
"1372","4660.512"
"1373","4663.683"
"1374","4656.568"
"1375","4628.392"
"1376","4590.565"
"1377","4570.33"
"1378","4593.361"
"1379","4650.709"
"1380","4703.479"
"1381","4713.155"
"1382","4675.453"
"1383","4621.613"
"1384","4584.051"
"1385","4577.843"
"1386","4596.663"
"1387","4632.771"
"1388","4674.128"
"1389","4702.415"
"1390","4699.019"
"1391","4662.368"
"1392","4620.116"
"1393","4602.687"
"1394","4623.659"
"1395","4662.896"
"1396","4696.251"
"1397","4707.838"
"1398","4700.986"
"1399","4681.758"
"1400","4657.107"
"1401","4636.373"
"1402","4629.292"
"1403","4640.033"
"1404","4655.549"
"1405","4659.481"
"1406","4641.187"
"1407","4610.146"
"1408","4580.256"
"1409","4563.172"
"1410","4561.596"
"1411","4576.009"
"1412","4605.03"
"1413","4638.994"
"1414","4665.927"
"1415","4676.471"
"1416","4674.214"
"1417","4666.73"
"1418","4660.445"
"1419","4655.503"
"1420","4649.928"
"1421","4642.333"
"1422","4634.817"
"1423","4630.771"
"1424","4633.608"
"1425","4646.919"
"1426","4674.36"
"1427","4717.419"
"1428","4762.703"
"1429","4790.568"
"1430","4785.518"
"1431","4762.444"
"1432","4749.677"
"1433","4771.632"
"1434","4822.19"
"1435","4881.133"
"1436","4928.908"
"1437","4952.009"
"1438","4939.804"
"1439","4885.763"
"1440","4816.861"
"1441","4776.514"
"1442","4801.245"
"1443","4868.695"
"1444","4927.154"
"1445","4931.287"
"1446","4891.815"
"1447","4847.624"
"1448","4833.205"
"1449","4843.89"
"1450","4855.344"
"1451","4846.136"
"1452","4820.523"
"1453","4795.541"
"1454","4786.321"
"1455","4791.495"
"1456","4801.633"
"1457","4807.654"
"1458","4803.77"
"1459","4785.75"
"1460","4751.145"
"1461","4710.971"
"1462","4682.439"
"1463","4679.674"
"1464","4694.163"
"1465","4707.434"
"1466","4703.573"
"1467","4684.45"
"1468","4659.349"
"1469","4636.263"
"1470","4614.754"
"1471","4591.083"
"1472","4562.875"
"1473","4535.791"
"1474","4518.431"
"1475","4517.061"
"1476","4525.323"
"1477","4532.622"
"1478","4530.812"
"1479","4523.812"
"1480","4519.231"
"1481","4521.688"
"1482","4522.563"
"1483","4509.566"
"1484","4475.747"
"1485","4435.244"
"1486","4407.417"
"1487","4405.254"
"1488","4419.43"
"1489","4435.737"
"1490","4443.693"
"1491","4444.301"
"1492","4440.763"
"1493","4436.143"
"1494","4433.134"
"1495","4434.354"
"1496","4439.04"
"1497","4438.543"
"1498","4423.15"
"1499","4391.166"
"1500","4357.018"
"1501","4336.972"
"1502","4338.485"
"1503","4353.814"
"1504","4373.748"
"1505","4391.344"
"1506","4403.011"
"1507","4405.566"
"1508","4400.928"
"1509","4397.403"
"1510","4403.391"
"1511","4419.278"
"1512","4436.986"
"1513","4448.289"
"1514","4449.927"
"1515","4443.021"
"1516","4428.945"
"1517","4410.404"
"1518","4391.078"
"1519","4374.596"
"1520","4363.687"
"1521","4360.542"
"1522","4366.988"
"1523","4381.898"
"1524","4402.708"
"1525","4426.11"
"1526","4444.224"
"1527","4447.373"
"1528","4431.904"
"1529","4423.682"
"1530","4457.616"
"1531","4557.02"
"1532","4701.261"
"1533","4859.312"
"1534","5001.615"
"1535","5102.963"
"1536","5138.974"
"1537","5099.231"
"1538","5004.5"
"1539","4879.776"
"1540","4749.256"
"1541","4635.748"
"1542","4561.426"
"1543","4527.163"
"1544","4505.666"
"1545","4468.695"
"1546","4411.943"
"1547","4355.38"
"1548","4318.933"
"1549","4305.108"
"1550","4302.956"
"1551","4301.866"
"1552","4298.319"
"1553","4292.916"
"1554","4286.428"
"1555","4280.458"
"1556","4276.966"
"1557","4276.885"
"1558","4276.028"
"1559","4268.625"
"1560","4250.75"
"1561","4224.979"
"1562","4195.313"
"1563","4167.117"
"1564","4149.123"
"1565","4150.493"
"1566","4172.25"
"1567","4201.072"
"1568","4222.387"
"1569","4230.178"
"1570","4229.246"
"1571","4224.892"
"1572","4218.622"
"1573","4208.497"
"1574","4193.106"
"1575","4178.496"
"1576","4175.512"
"1577","4191.897"
"1578","4212.002"
"1579","4209.75"
"1580","4168.304"
"1581","4115.589"
"1582","4092.983"
"1583","4124.246"
"1584","4177.279"
"1585","4209.051"
"1586","4197.545"
"1587","4165.038"
"1588","4139.151"
"1589","4133.973"
"1590","4144.344"
"1591","4163.571"
"1592","4183.633"
"1593","4195.228"
"1594","4189.906"
"1595","4169.924"
"1596","4144.462"
"1597","4122.718"
"1598","4113.077"
"1599","4123.594"
"1600","4157.922"
"1601","4200.834"
"1602","4232.035"
"1603","4237.11"
"1604","4217.411"
"1605","4176.983"
"1606","4126.886"
"1607","4090.069"
"1608","4089.729"
"1609","4123.476"
"1610","4160.865"
"1611","4172.478"
"1612","4161.634"
"1613","4154.735"
"1614","4173.861"
"1615","4205.882"
"1616","4222.092"
"1617","4202.544"
"1618","4164.999"
"1619","4137.25"
"1620","4134.759"
"1621","4141.814"
"1622","4138.117"
"1623","4120.108"
"1624","4109.972"
"1625","4130.728"
"1626","4176.149"
"1627","4212.173"
"1628","4207.753"
"1629","4174.075"
"1630","4146.926"
"1631","4154.61"
"1632","4182.241"
"1633","4200.095"
"1634","4189.623"
"1635","4167.09"
"1636","4155.401"
"1637","4166.551"
"1638","4192.931"
"1639","4224.868"
"1640","4252.345"
"1641","4264.981"
"1642","4253.863"
"1643","4226.905"
"1644","4202.614"
"1645","4196.644"
"1646","4207.087"
"1647","4225.751"
"1648","4245.078"
"1649","4259.544"
"1650","4264.059"
"1651","4257.65"
"1652","4246.464"
"1653","4237.178"
"1654","4232.198"
"1655","4229.714"
"1656","4228.152"
"1657","4230.056"
"1658","4240.283"
"1659","4259.755"
"1660","4270.145"
"1661","4247.289"
"1662","4182.932"
"1663","4109.213"
"1664","4064.211"
"1665","4066.663"
"1666","4108.592"
"1667","4178.972"
"1668","4250.802"
"1669","4284.831"
"1670","4250.022"
"1671","4172.954"
"1672","4103.951"
"1673","4078.578"
"1674","4082.744"
"1675","4092.13"
"1676","4092.859"
"1677","4089.045"
"1678","4086.386"
"1679","4086.585"
"1680","4087.656"
"1681","4087.27"
"1682","4081.462"
"1683","4065.468"
"1684","4037.08"
"1685","4004.015"
"1686","3976.383"
"1687","3962.476"
"1688","3967.092"
"1689","3994.034"
"1690","4033.339"
"1691","4061.401"
"1692","4057.229"
"1693","4027.575"
"1694","3993.341"
"1695","3970.474"
"1696","3954.963"
"1697","3937.953"
"1698","3916.353"
"1699","3897.905"
"1700","3891.174"
"1701","3896.816"
"1702","3907.983"
"1703","3917.87"
"1704","3922.409"
"1705","3918.819"
"1706","3906.782"
"1707","3894.549"
"1708","3892.149"
"1709","3902.125"
"1710","3914.729"
"1711","3919.67"
"1712","3916.538"
"1713","3912.907"
"1714","3914.412"
"1715","3913.069"
"1716","3895.647"
"1717","3857.664"
"1718","3818.642"
"1719","3801.693"
"1720","3810.154"
"1721","3822.037"
"1722","3816.308"
"1723","3800.721"
"1724","3800.708"
"1725","3833.252"
"1726","3876.918"
"1727","3899.838"
"1728","3888.825"
"1729","3866.657"
"1730","3858.964"
"1731","3867.199"
"1732","3871.148"
"1733","3854.046"
"1734","3827.414"
"1735","3814.335"
"1736","3827.49"
"1737","3850.759"
"1738","3863.539"
"1739","3860.908"
"1740","3857.155"
"1741","3865.908"
"1742","3882.941"
"1743","3894.082"
"1744","3889.519"
"1745","3876.175"
"1746","3864.779"
"1747","3858.848"
"1748","3850.519"
"1749","3831.919"
"1750","3808.377"
"1751","3794.521"
"1752","3801.199"
"1753","3820.328"
"1754","3838.272"
"1755","3849.109"
"1756","3861.688"
"1757","3885.429"
"1758","3911.081"
"1759","3913.842"
"1760","3875.348"
"1761","3816.266"
"1762","3770.826"
"1763","3757.766"
"1764","3761.913"
"1765","3764.372"
"1766","3761.901"
"1767","3765.717"
"1768","3784.389"
"1769","3806.65"
"1770","3813.666"
"1771","3797.455"
"1772","3775.469"
"1773","3768.134"
"1774","3781.218"
"1775","3806.357"
"1776","3834.415"
"1777","3855.073"
"1778","3857.565"
"1779","3839.213"
"1780","3816.284"
"1781","3806.883"
"1782","3810.418"
"1783","3808.615"
"1784","3786.646"
"1785","3754.987"
"1786","3733.571"
"1787","3732.477"
"1788","3740.091"
"1789","3742.596"
"1790","3738.992"
"1791","3739.453"
"1792","3752.245"
"1793","3773.208"
"1794","3793.997"
"1795","3805.275"
"1796","3795.828"
"1797","3756.04"
"1798","3703.041"
"1799","3674.242"
"1800","3695.693"
"1801","3740.084"
"1802","3765.473"
"1803","3752.519"
"1804","3718.066"
"1805","3682.137"
"1806","3663.486"
"1807","3680.115"
"1808","3736.75"
"1809","3792.057"
"1810","3795.948"
"1811","3745.89"
"1812","3698.891"
"1813","3706.78"
"1814","3750.688"
"1815","3778.562"
"1816","3761.753"
"1817","3731.536"
"1818","3726.862"
"1819","3751.538"
"1820","3776.818"
"1821","3777.432"
"1822","3753.381"
"1823","3713.067"
"1824","3669.22"
"1825","3642.156"
"1826","3650.354"
"1827","3681.544"
"1828","3703.647"
"1829","3694.713"
"1830","3668.779"
"1831","3647.317"
"1832","3642.53"
"1833","3655.732"
"1834","3685.186"
"1835","3712.735"
"1836","3713.493"
"1837","3679.876"
"1838","3640.865"
"1839","3628.108"
"1840","3644.471"
"1841","3671.509"
"1842","3693.513"
"1843","3707.459"
"1844","3713.308"
"1845","3708.974"
"1846","3689.786"
"1847","3653.572"
"1848","3617.103"
"1849","3605.272"
"1850","3627.078"
"1851","3657.641"
"1852","3669.479"
"1853","3659.546"
"1854","3642.431"
"1855","3631.205"
"1856","3631.916"
"1857","3648.722"
"1858","3676.081"
"1859","3697.269"
"1860","3698.499"
"1861","3687.993"
"1862","3682.204"
"1863","3688.3"
"1864","3696.622"
"1865","3696.927"
"1866","3691.558"
"1867","3690.369"
"1868","3697.651"
"1869","3701.694"
"1870","3688.797"
"1871","3661.247"
"1872","3635.675"
"1873","3627.186"
"1874","3641.735"
"1875","3682.342"
"1876","3734.613"
"1877","3761.404"
"1878","3733.097"
"1879","3681.756"
"1880","3664.662"
"1881","3702.955"
"1882","3749.763"
"1883","3755.583"
"1884","3722.583"
"1885","3683.484"
"1886","3660.27"
"1887","3645.141"
"1888","3626.431"
"1889","3609.681"
"1890","3614.428"
"1891","3649.607"
"1892","3682.899"
"1893","3673.749"
"1894","3621.688"
"1895","3569.792"
"1896","3554.989"
"1897","3570.854"
"1898","3597.265"
"1899","3623.703"
"1900","3653.271"
"1901","3687.474"
"1902","3709.663"
"1903","3695.704"
"1904","3642.974"
"1905","3587.798"
"1906","3566.821"
"1907","3581.051"
"1908","3612.337"
"1909","3642.675"
"1910","3654.903"
"1911","3634.183"
"1912","3592.846"
"1913","3561.205"
"1914","3556.527"
"1915","3558.74"
"1916","3543.297"
"1917","3517.338"
"1918","3513.077"
"1919","3548.563"
"1920","3591.984"
"1921","3602.797"
"1922","3576.098"
"1923","3539.809"
"1924","3519.525"
"1925","3526.584"
"1926","3567.768"
"1927","3622.597"
"1928","3642.086"
"1929","3593.523"
"1930","3523.552"
"1931","3499.419"
"1932","3535.004"
"1933","3582.341"
"1934","3599.706"
"1935","3594.267"
"1936","3587.902"
"1937","3585.798"
"1938","3572.218"
"1939","3535.636"
"1940","3494.428"
"1941","3476.545"
"1942","3490.814"
"1943","3520.736"
"1944","3549.405"
"1945","3567.732"
"1946","3569.45"
"1947","3553.33"
"1948","3525.005"
"1949","3492.502"
"1950","3474.596"
"1951","3493.339"
"1952","3543.671"
"1953","3583.359"
"1954","3576.538"
"1955","3539.759"
"1956","3507.753"
"1957","3496.556"
"1958","3496.972"
"1959","3499.052"
"1960","3498.595"
"1961","3493.375"
"1962","3482.016"
"1963","3464.228"
"1964","3441.341"
"1965","3422.651"
"1966","3419.613"
"1967","3429.308"
"1968","3431.471"
"1969","3412.952"
"1970","3399.288"
"1971","3425.766"
"1972","3479.645"
"1973","3495.239"
"1974","3431.278"
"1975","3361.098"
"1976","3383.615"
"1977","3491.572"
"1978","3573.19"
"1979","3548.667"
"1980","3471.555"
"1981","3422.678"
"1982","3425.375"
"1983","3453.687"
"1984","3481.028"
"1985","3484.046"
"1986","3442.758"
"1987","3376.329"
"1988","3332.462"
"1989","3336.856"
"1990","3357.492"
"1991","3357.515"
"1992","3345.765"
"1993","3358.587"
"1994","3409.072"
"1995","3461.611"
"1996","3479.435"
"1997","3466.02"
"1998","3444.31"
"1999","3426.629"
"2000","3407.664"
"2001","3381.74"
"2002","3351.079"
"2003","3321.06"
"2004","3302.592"
"2005","3313.642"
"2006","3360.936"
"2007","3397.614"
"2008","3364.453"
"2009","3271.342"
"2010","3196.027"
"2011","3194.553"
"2012","3240.536"
"2013","3291.825"
"2014","3326.804"
"2015","3338.943"
"2016","3325.67"
"2017","3293.066"
"2018","3249.812"
"2019","3216.453"
"2020","3219.641"
"2021","3263.96"
"2022","3316.359"
"2023","3340.854"
"2024","3306.677"
"2025","3187.089"
"2026","3025.869"
"2027","2951.222"
"2028","3048.67"
"2029","3212.202"
"2030","3295.35"
"2031","3281.257"
"2032","3260.489"
"2033","3290.07"
"2034","3330.751"
"2035","3332.569"
"2036","3292.444"
"2037","3233.422"
"2038","3179.178"
"2039","3153.893"
"2040","3174.482"
"2041","3215.293"
"2042","3236.437"
"2043","3228.098"
"2044","3213.795"
"2045","3211.289"
"2046","3212.025"
"2047","3202.797"
"2048","3185.129"
"2049","3170.966"
"2050","3170.154"
"2051","3187.589"
"2052","3223.688"
"2053","3251.391"
"2054","3232.676"
"2055","3169.64"
"2056","3116.068"
"2057","3113.045"
"2058","3136.39"
"2059","3147.751"
"2060","3143.652"
"2061","3147.714"
"2062","3167.93"
"2063","3175.27"
"2064","3142.921"
"2065","3099.48"
"2066","3097.399"
"2067","3136.582"
"2068","3148.307"
"2069","3085.171"
"2070","3002.712"
"2071","2976.511"
"2072","3002.935"
"2073","3019.417"
"2074","2994.064"
"2075","2962.605"
"2076","2962.858"
"2077","2988.935"
"2078","3017.552"
"2079","3039.476"
"2080","3061.696"
"2081","3087.197"
"2082","3102.679"
"2083","3092.895"
"2084","3058.914"
"2085","3011.946"
"2086","2961.58"
"2087","2914.365"
"2088","2878.162"
"2089","2868.771"
"2090","2902.825"
"2091","2964.618"
"2092","3009.77"
"2093","3010.351"
"2094","2980.821"
"2095","2942.619"
"2096","2921.882"
"2097","2945.692"
"2098","3000.324"
"2099","3023"
"2100","2975.556"
"2101","2911.744"
"2102","2896.897"
"2103","2915.815"
"2104","2906.008"
"2105","2852.571"
"2106","2815.685"
"2107","2844.349"
"2108","2909.538"
"2109","2962.101"
"2110","2971.637"
"2111","2921.992"
"2112","2825.115"
"2113","2746.484"
"2114","2743.39"
"2115","2793.836"
"2116","2850.094"
"2117","2889.145"
"2118","2910.071"
"2119","2910.516"
"2120","2883.071"
"2121","2825.966"
"2122","2778.537"
"2123","2793.969"
"2124","2861.769"
"2125","2906.588"
"2126","2882.936"
"2127","2830.631"
"2128","2796.065"
"2129","2772.965"
"2130","2732.843"
"2131","2680.232"
"2132","2656.333"
"2133","2686.578"
"2134","2746.798"
"2135","2805.885"
"2136","2846.492"
"2137","2858.024"
"2138","2840.283"
"2139","2804.985"
"2140","2766.005"
"2141","2741.365"
"2142","2745.021"
"2143","2752.694"
"2144","2723.848"
"2145","2673.491"
"2146","2679.959"
"2147","2776.235"
"2148","2859.037"
"2149","2822.685"
"2150","2722.587"
"2151","2683.467"
"2152","2727.042"
"2153","2763.625"
"2154","2741.794"
"2155","2723.54"
"2156","2770.624"
"2157","2820.066"
"2158","2762.885"
"2159","2618.882"
"2160","2533.469"
"2161","2582.834"
"2162","2672.937"
"2163","2702.371"
"2164","2665.634"
"2165","2592.339"
"2166","2524.409"
"2167","2513.795"
"2168","2567.951"
"2169","2608.047"
"2170","2570.481"
"2171","2511.042"
"2172","2513.738"
"2173","2569.172"
"2174","2603.474"
"2175","2589.604"
"2176","2575.642"
"2177","2595.475"
"2178","2606.575"
"2179","2556.326"
"2180","2463.806"
"2181","2386.701"
"2182","2354.957"
"2183","2364.354"
"2184","2407.573"
"2185","2474.462"
"2186","2549.816"
"2187","2588.555"
"2188","2537.828"
"2189","2433.256"
"2190","2390.022"
"2191","2449.286"
"2192","2500.954"
"2193","2452.618"
"2194","2374.564"
"2195","2373.417"
"2196","2435.766"
"2197","2471.985"
"2198","2445.002"
"2199","2391.577"
"2200","2345.377"
"2201","2314.361"
"2202","2302.072"
"2203","2314.571"
"2204","2357.329"
"2205","2402.055"
"2206","2389.67"
"2207","2311.886"
"2208","2261.149"
"2209","2310.615"
"2210","2398.755"
"2211","2435.236"
"2212","2411.737"
"2213","2367.918"
"2214","2319.244"
"2215","2250.843"
"2216","2167.592"
"2217","2129.594"
"2218","2185.589"
"2219","2268.051"
"2220","2275.009"
"2221","2207.224"
"2222","2141.644"
"2223","2124.971"
"2224","2155.507"
"2225","2214.694"
"2226","2243.575"
"2227","2190.509"
"2228","2112.251"
"2229","2105.562"
"2230","2149.209"
"2231","2120.76"
"2232","1997.94"
"2233","1936.491"
"2234","2040.965"
"2235","2168.713"
"2236","2150.156"
"2237","2042.568"
"2238","2003.245"
"2239","2038.167"
"2240","2012.398"
"2241","1890.269"
"2242","1827.086"
"2243","1934.894"
"2244","2086.784"
"2245","2120.531"
"2246","2043.237"
"2247","1942.558"
"2248","1880.245"
"2249","1892.811"
"2250","1968.303"
"2251","2009.664"
"2252","1950.388"
"2253","1866.356"
"2254","1850.711"
"2255","1883.621"
"2256","1896.38"
"2257","1870.352"
"2258","1830.734"
"2259","1799.355"
"2260","1790.066"
"2261","1806.954"
"2262","1825.285"
"2263","1816.646"
"2264","1766.571"
"2265","1669.519"
"2266","1569.27"
"2267","1545.357"
"2268","1607.09"
"2269","1665.12"
"2270","1656.607"
"2271","1607.354"
"2272","1553.71"
"2273","1512.401"
"2274","1492.604"
"2275","1489.291"
"2276","1488.958"
"2277","1482.855"
"2278","1467.557"
"2279","1435.472"
"2280","1370.185"
"2281","1270.286"
"2282","1195.072"
"2283","1204.269"
"2284","1252.351"
"2285","1251.669"
"2286","1203.844"
"2287","1181.918"
"2288","1192.708"
"2289","1144.991"
"2290","1004.458"
"2291","904.3439"
"2292","961.0591"
"2293","1075.612"
"2294","1098.709"
"2295","1032.747"
"2296","961.7538"
"2297","906.2152"
"2298","824.6393"
"2299","730.2622"
"2300","732.9032"
