,"Scan 00958"
"400","11018.1"
"401","11003.46"
"402","10992.82"
"403","10991.92"
"404","11006.44"
"405","11040.39"
"406","11083.3"
"407","11117.44"
"408","11125.16"
"409","11090.66"
"410","11020.8"
"411","10938.13"
"412","10865.4"
"413","10824.29"
"414","10818.95"
"415","10837.14"
"416","10866.09"
"417","10893.31"
"418","10913.07"
"419","10927.98"
"420","10941.13"
"421","10955.52"
"422","10970.53"
"423","10979.65"
"424","10975.88"
"425","10952.32"
"426","10908.58"
"427","10857.86"
"428","10814.97"
"429","10794.6"
"430","10804.77"
"431","10835.57"
"432","10874.21"
"433","10907.99"
"434","10927.19"
"435","10932.25"
"436","10925.81"
"437","10910.47"
"438","10888.93"
"439","10864.25"
"440","10839.61"
"441","10818.17"
"442","10802.36"
"443","10790.92"
"444","10781.35"
"445","10771.15"
"446","10758.58"
"447","10747.07"
"448","10742.15"
"449","10749.32"
"450","10772.64"
"451","10804.42"
"452","10831.25"
"453","10839.77"
"454","10818.35"
"455","10771.78"
"456","10714.32"
"457","10660.22"
"458","10622.72"
"459","10603.77"
"460","10597.83"
"461","10599.26"
"462","10602.45"
"463","10601.49"
"464","10590.29"
"465","10562.77"
"466","10513.56"
"467","10448.69"
"468","10383.67"
"469","10334.19"
"470","10315.17"
"471","10327.72"
"472","10360.4"
"473","10401.32"
"474","10438.93"
"475","10466.9"
"476","10484.13"
"477","10489.73"
"478","10482.91"
"479","10465.12"
"480","10440.17"
"481","10411.97"
"482","10384.35"
"483","10359.53"
"484","10337.92"
"485","10319.85"
"486","10305.58"
"487","10293.57"
"488","10280.19"
"489","10261.71"
"490","10234.52"
"491","10198.05"
"492","10155.39"
"493","10109.81"
"494","10064.5"
"495","10020.45"
"496","9975.983"
"497","9929.271"
"498","9878.569"
"499","9824.188"
"500","9768.919"
"501","9715.69"
"502","9667.328"
"503","9623.924"
"504","9582.329"
"505","9539.226"
"506","9491.476"
"507","9441.069"
"508","9395.903"
"509","9364.153"
"510","9353.502"
"511","9358.853"
"512","9360.98"
"513","9340.036"
"514","9277.229"
"515","9178.042"
"516","9073.352"
"517","8995.065"
"518","8973.561"
"519","9008.821"
"520","9071.13"
"521","9129.682"
"522","9155.029"
"523","9140.894"
"524","9101.85"
"525","9053.15"
"526","9009.202"
"527","8971.718"
"528","8932.012"
"529","8881.135"
"530","8811.37"
"531","8731.68"
"532","8663.272"
"533","8627.525"
"534","8643.19"
"535","8699.179"
"536","8765.049"
"537","8810.179"
"538","8807.439"
"539","8762.603"
"540","8700.046"
"541","8644.235"
"542","8616.86"
"543","8617.897"
"544","8636.802"
"545","8663.011"
"546","8686.558"
"547","8701.15"
"548","8702.021"
"549","8684.431"
"550","8645.836"
"551","8595.59"
"552","8547.015"
"553","8513.369"
"554","8503.846"
"555","8509.982"
"556","8518.527"
"557","8516.296"
"558","8495.473"
"559","8466.833"
"560","8445.148"
"561","8445.109"
"562","8473.201"
"563","8513.48"
"564","8546.258"
"565","8552.001"
"566","8523.243"
"567","8478.393"
"568","8439.138"
"569","8426.874"
"570","8448.558"
"571","8486.979"
"572","8522.7"
"573","8536.66"
"574","8521.57"
"575","8485.396"
"576","8437.094"
"577","8385.542"
"578","8338.656"
"579","8303.4"
"580","8286.661"
"581","8294.447"
"582","8320.131"
"583","8347.526"
"584","8360.271"
"585","8344.171"
"586","8305.65"
"587","8262.783"
"588","8233.699"
"589","8233.412"
"590","8256.435"
"591","8288.855"
"592","8316.796"
"593","8329.375"
"594","8329.47"
"595","8323.945"
"596","8319.638"
"597","8321.491"
"598","8328.435"
"599","8338.199"
"600","8348.518"
"601","8356.574"
"602","8358.313"
"603","8349.522"
"604","8326.106"
"605","8289.455"
"606","8249.39"
"607","8216.414"
"608","8200.686"
"609","8204.414"
"610","8221.343"
"611","8244.818"
"612","8268.327"
"613","8286.856"
"614","8296.508"
"615","8293.426"
"616","8274.721"
"617","8245.445"
"618","8214.551"
"619","8190.986"
"620","8181.515"
"621","8181.85"
"622","8184.186"
"623","8180.746"
"624","8166.654"
"625","8146.246"
"626","8125.689"
"627","8111.1"
"628","8105.174"
"629","8103.733"
"630","8101.784"
"631","8094.48"
"632","8081.838"
"633","8070.134"
"634","8066.047"
"635","8075.75"
"636","8097.37"
"637","8122.399"
"638","8142.163"
"639","8149.064"
"640","8144.743"
"641","8135.613"
"642","8128.097"
"643","8126.888"
"644","8128.08"
"645","8125.122"
"646","8111.493"
"647","8084.727"
"648","8053.982"
"649","8030.446"
"650","8025.163"
"651","8039.847"
"652","8060.497"
"653","8071.637"
"654","8058.533"
"655","8023.122"
"656","7984.212"
"657","7961.319"
"658","7971.834"
"659","8011.211"
"660","8061.699"
"661","8105.411"
"662","8127.059"
"663","8125.41"
"664","8104.044"
"665","8066.537"
"666","8019.008"
"667","7975.162"
"668","7950.07"
"669","7958.563"
"670","8001.704"
"671","8057.946"
"672","8103.707"
"673","8116.479"
"674","8094.554"
"675","8055.58"
"676","8017.905"
"677","7998.078"
"678","7997.251"
"679","8008.583"
"680","8025.183"
"681","8041.454"
"682","8057.417"
"683","8074.627"
"684","8094.623"
"685","8116.325"
"686","8132.814"
"687","8136.387"
"688","8119.662"
"689","8085.046"
"690","8046.64"
"691","8019.196"
"692","8016.005"
"693","8033.801"
"694","8058.703"
"695","8076.693"
"696","8076.583"
"697","8061.947"
"698","8041.173"
"699","8022.629"
"700","8012.186"
"701","8009.43"
"702","8012.965"
"703","8021.406"
"704","8033.489"
"705","8048.109"
"706","8064.179"
"707","8080.493"
"708","8094.509"
"709","8102.796"
"710","8101.917"
"711","8090.027"
"712","8073.432"
"713","8061.035"
"714","8061.702"
"715","8078.596"
"716","8101.424"
"717","8117.971"
"718","8116.468"
"719","8097.798"
"720","8077.405"
"721","8071.507"
"722","8093.874"
"723","8134.666"
"724","8170.761"
"725","8178.93"
"726","8144.392"
"727","8086.932"
"728","8035.159"
"729","8017.445"
"730","8043.524"
"731","8088.958"
"732","8125.688"
"733","8127.16"
"734","8093.274"
"735","8046.909"
"736","8011.671"
"737","8007.338"
"738","8029.048"
"739","8062.11"
"740","8091.836"
"741","8108.005"
"742","8112.454"
"743","8109.033"
"744","8101.587"
"745","8093.794"
"746","8089.15"
"747","8091.131"
"748","8102.733"
"749","8122.533"
"750","8146.673"
"751","8171.277"
"752","8193.313"
"753","8212.816"
"754","8230.521"
"755","8247.156"
"756","8262.796"
"757","8276.53"
"758","8287.354"
"759","8294.37"
"760","8297.877"
"761","8298.979"
"762","8298.795"
"763","8298.409"
"764","8298.708"
"765","8300.534"
"766","8304.726"
"767","8311.556"
"768","8320.332"
"769","8330.253"
"770","8340.517"
"771","8350.247"
"772","8358.507"
"773","8364.361"
"774","8367.448"
"775","8370.198"
"776","8375.898"
"777","8387.803"
"778","8407.238"
"779","8431.896"
"780","8459.073"
"781","8486.319"
"782","8514.93"
"783","8549.097"
"784","8593.082"
"785","8647.711"
"786","8697.189"
"787","8720.725"
"788","8697.756"
"789","8627.114"
"790","8542.372"
"791","8480.687"
"792","8476.228"
"793","8523.125"
"794","8586.725"
"795","8631.768"
"796","8632.271"
"797","8602.021"
"798","8565.502"
"799","8546.953"
"800","8557.302"
"801","8586.645"
"802","8623.269"
"803","8655.953"
"804","8678.652"
"805","8688.49"
"806","8682.634"
"807","8661.483"
"808","8636.609"
"809","8621.987"
"810","8631.231"
"811","8665.216"
"812","8708.859"
"813","8746.08"
"814","8763.163"
"815","8764.805"
"816","8764.366"
"817","8775.227"
"818","8802.782"
"819","8832.168"
"820","8845.378"
"821","8825.546"
"822","8778.443"
"823","8730.7"
"824","8709.714"
"825","8735.334"
"826","8787.998"
"827","8835.308"
"828","8845.151"
"829","8807.215"
"830","8748.698"
"831","8700.487"
"832","8690.858"
"833","8719.484"
"834","8768.311"
"835","8819.028"
"836","8857.118"
"837","8880.254"
"838","8888.563"
"839","8882.302"
"840","8865.187"
"841","8844.708"
"842","8828.549"
"843","8823.303"
"844","8829.02"
"845","8843.315"
"846","8863.797"
"847","8888.095"
"848","8913.88"
"849","8938.821"
"850","8960.791"
"851","8979.798"
"852","8997.23"
"853","9014.499"
"854","9032.068"
"855","9047.418"
"856","9057.437"
"857","9059.229"
"858","9054.857"
"859","9051.465"
"860","9056.416"
"861","9074.52"
"862","9096.998"
"863","9110.602"
"864","9102.27"
"865","9071.273"
"866","9036.378"
"867","9018.074"
"868","9034.041"
"869","9077.424"
"870","9128.676"
"871","9168.171"
"872","9184.144"
"873","9183.694"
"874","9176.702"
"875","9172.724"
"876","9176.691"
"877","9190.006"
"878","9213.979"
"879","9247.427"
"880","9280.191"
"881","9300.107"
"882","9295.533"
"883","9268.729"
"884","9236.915"
"885","9218.048"
"886","9225.995"
"887","9253.243"
"888","9285.32"
"889","9307.946"
"890","9317.073"
"891","9323.662"
"892","9339.875"
"893","9375.752"
"894","9425.648"
"895","9476.888"
"896","9516.802"
"897","9537.623"
"898","9541.117"
"899","9530.145"
"900","9507.917"
"901","9481.161"
"902","9458.675"
"903","9449.271"
"904","9458.461"
"905","9483.462"
"906","9520.207"
"907","9564.313"
"908","9607.004"
"909","9636.27"
"910","9640.021"
"911","9612.762"
"912","9569.779"
"913","9530.461"
"914","9513.439"
"915","9523.267"
"916","9551.955"
"917","9591.091"
"918","9631.595"
"919","9661.898"
"920","9669.826"
"921","9644"
"922","9592.732"
"923","9544.761"
"924","9529.779"
"925","9568.837"
"926","9644.09"
"927","9726.765"
"928","9788.579"
"929","9816.646"
"930","9816.146"
"931","9793.275"
"932","9754.744"
"933","9709.782"
"934","9668.426"
"935","9640.546"
"936","9629.723"
"937","9631.469"
"938","9640.773"
"939","9652.724"
"940","9663.005"
"941","9667.505"
"942","9662.251"
"943","9649.479"
"944","9639.842"
"945","9644.592"
"946","9671.639"
"947","9709.493"
"948","9739.689"
"949","9744.055"
"950","9718.467"
"951","9678.348"
"952","9640.565"
"953","9619.324"
"954","9613.223"
"955","9615.193"
"956","9618.246"
"957","9619.223"
"958","9620.252"
"959","9623.855"
"960","9631.673"
"961","9640.349"
"962","9644.754"
"963","9639.87"
"964","9625.242"
"965","9606.478"
"966","9589.607"
"967","9579.481"
"968","9574.633"
"969","9571.489"
"970","9566.569"
"971","9559.789"
"972","9555.262"
"973","9557.369"
"974","9568.908"
"975","9585.021"
"976","9598.521"
"977","9602.429"
"978","9595.591"
"979","9583.382"
"980","9571.527"
"981","9565.01"
"982","9565.655"
"983","9574.445"
"984","9592.22"
"985","9616.467"
"986","9641.381"
"987","9661.017"
"988","9670.902"
"989","9671.89"
"990","9666.02"
"991","9655.498"
"992","9645.281"
"993","9642.625"
"994","9654.863"
"995","9685.516"
"996","9726.84"
"997","9769.021"
"998","9802.639"
"999","9823.442"
"1000","9830.76"
"1001","9823.999"
"1002","9805.061"
"1003","9781.72"
"1004","9762.604"
"1005","9756.354"
"1006","9769.553"
"1007","9795.026"
"1008","9819.921"
"1009","9831.495"
"1010","9823.842"
"1011","9800.835"
"1012","9767.117"
"1013","9728.32"
"1014","9695.479"
"1015","9681.456"
"1016","9698.661"
"1017","9744.983"
"1018","9801.256"
"1019","9847.323"
"1020","9868.711"
"1021","9874.973"
"1022","9882.005"
"1023","9904.953"
"1024","9943.597"
"1025","9983.48"
"1026","10009.61"
"1027","10012.97"
"1028","10003.45"
"1029","9994.643"
"1030","9999.383"
"1031","10020.61"
"1032","10054.33"
"1033","10096.36"
"1034","10140.15"
"1035","10173.75"
"1036","10184.42"
"1037","10162.22"
"1038","10121.15"
"1039","10087.3"
"1040","10086.57"
"1041","10124.88"
"1042","10176.2"
"1043","10211.6"
"1044","10208.12"
"1045","10175.8"
"1046","10136.12"
"1047","10110.11"
"1048","10106.07"
"1049","10118.36"
"1050","10140.63"
"1051","10166.98"
"1052","10193.04"
"1053","10214.82"
"1054","10228.24"
"1055","10227.93"
"1056","10207.67"
"1057","10161.21"
"1058","10093.35"
"1059","10032.89"
"1060","10011.85"
"1061","10055.79"
"1062","10141.61"
"1063","10224.05"
"1064","10258.56"
"1065","10234.82"
"1066","10188.68"
"1067","10159.21"
"1068","10175.23"
"1069","10222.09"
"1070","10273.65"
"1071","10304.99"
"1072","10310.35"
"1073","10299.53"
"1074","10282.77"
"1075","10268.56"
"1076","10261.28"
"1077","10264.73"
"1078","10281.54"
"1079","10305.33"
"1080","10325.58"
"1081","10332.01"
"1082","10323.85"
"1083","10312.73"
"1084","10311.12"
"1085","10326.8"
"1086","10349.64"
"1087","10365.19"
"1088","10360.04"
"1089","10334.7"
"1090","10299.52"
"1091","10265.05"
"1092","10239.55"
"1093","10226.81"
"1094","10230.16"
"1095","10250.91"
"1096","10279.05"
"1097","10300.41"
"1098","10301.37"
"1099","10280.22"
"1100","10246.97"
"1101","10212.15"
"1102","10185.24"
"1103","10172.91"
"1104","10181.39"
"1105","10214.66"
"1106","10258.67"
"1107","10290.66"
"1108","10288.45"
"1109","10253.43"
"1110","10216.68"
"1111","10211.21"
"1112","10256.09"
"1113","10323.19"
"1114","10374.31"
"1115","10375.35"
"1116","10334.3"
"1117","10283.9"
"1118","10256.82"
"1119","10264.47"
"1120","10286.81"
"1121","10301.23"
"1122","10292.08"
"1123","10270.99"
"1124","10256.33"
"1125","10264.76"
"1126","10292.5"
"1127","10322.43"
"1128","10337.32"
"1129","10329.54"
"1130","10306.67"
"1131","10277.69"
"1132","10250.71"
"1133","10230.27"
"1134","10219.98"
"1135","10222.99"
"1136","10236.79"
"1137","10255.13"
"1138","10271.71"
"1139","10282.59"
"1140","10287.62"
"1141","10286.93"
"1142","10280.05"
"1143","10263.95"
"1144","10234.99"
"1145","10190.86"
"1146","10144.12"
"1147","10116.57"
"1148","10129.78"
"1149","10184.85"
"1150","10253.59"
"1151","10305.52"
"1152","10320.31"
"1153","10312.84"
"1154","10305.57"
"1155","10318.01"
"1156","10342.72"
"1157","10357.88"
"1158","10342.3"
"1159","10300.27"
"1160","10266.58"
"1161","10277.83"
"1162","10349.32"
"1163","10437.86"
"1164","10490.25"
"1165","10463.75"
"1166","10386.63"
"1167","10316.67"
"1168","10308.98"
"1169","10362.94"
"1170","10426.41"
"1171","10445.53"
"1172","10399.65"
"1173","10334.93"
"1174","10305.54"
"1175","10349.94"
"1176","10433.06"
"1177","10498.34"
"1178","10494.47"
"1179","10432.78"
"1180","10365.45"
"1181","10344.57"
"1182","10384.05"
"1183","10445.5"
"1184","10486.73"
"1185","10480.82"
"1186","10446.14"
"1187","10409.4"
"1188","10393.84"
"1189","10398.8"
"1190","10413.63"
"1191","10428.06"
"1192","10438.54"
"1193","10447.41"
"1194","10457.21"
"1195","10471.07"
"1196","10493.16"
"1197","10527.78"
"1198","10575.76"
"1199","10624.91"
"1200","10659.96"
"1201","10667.87"
"1202","10654.23"
"1203","10634"
"1204","10621.73"
"1205","10620.54"
"1206","10622.16"
"1207","10617.86"
"1208","10605.12"
"1209","10593.54"
"1210","10594.18"
"1211","10613.95"
"1212","10643.17"
"1213","10667.91"
"1214","10675.95"
"1215","10669.79"
"1216","10659.56"
"1217","10655.14"
"1218","10658.53"
"1219","10664.03"
"1220","10665.64"
"1221","10662.05"
"1222","10660.76"
"1223","10670.21"
"1224","10694.17"
"1225","10719.04"
"1226","10727.2"
"1227","10704.71"
"1228","10665.31"
"1229","10635.36"
"1230","10639.93"
"1231","10679.56"
"1232","10734.06"
"1233","10782.69"
"1234","10812.93"
"1235","10824.84"
"1236","10819.56"
"1237","10800.18"
"1238","10775.26"
"1239","10754.39"
"1240","10745.63"
"1241","10748.79"
"1242","10760.82"
"1243","10778.9"
"1244","10802.79"
"1245","10833.9"
"1246","10873.35"
"1247","10915.07"
"1248","10945.04"
"1249","10948.93"
"1250","10924.67"
"1251","10893.68"
"1252","10880.09"
"1253","10898.77"
"1254","10932.59"
"1255","10957.49"
"1256","10954.43"
"1257","10936.34"
"1258","10928.77"
"1259","10954.89"
"1260","11007.3"
"1261","11057.83"
"1262","11078.61"
"1263","11064.13"
"1264","11034.25"
"1265","11010.19"
"1266","11004.72"
"1267","11014.67"
"1268","11035.08"
"1269","11060.37"
"1270","11083.11"
"1271","11095.44"
"1272","11091.71"
"1273","11078.51"
"1274","11066.82"
"1275","11066.78"
"1276","11079.76"
"1277","11101.97"
"1278","11129.33"
"1279","11153.25"
"1280","11160.85"
"1281","11139.36"
"1282","11089.52"
"1283","11032.35"
"1284","10990.53"
"1285","10978.02"
"1286","10987.87"
"1287","11010.05"
"1288","11035.75"
"1289","11060.97"
"1290","11082.9"
"1291","11098.7"
"1292","11105.45"
"1293","11100.2"
"1294","11080.92"
"1295","11055.95"
"1296","11040.14"
"1297","11047.82"
"1298","11079.99"
"1299","11124.99"
"1300","11170.63"
"1301","11205.58"
"1302","11219.63"
"1303","11202.73"
"1304","11154.86"
"1305","11097.69"
"1306","11055.7"
"1307","11047.12"
"1308","11069.39"
"1309","11115.65"
"1310","11177.51"
"1311","11238.71"
"1312","11280.48"
"1313","11287.18"
"1314","11268.28"
"1315","11245.29"
"1316","11238.17"
"1317","11245.03"
"1318","11248.8"
"1319","11232.97"
"1320","11200.95"
"1321","11175.97"
"1322","11181.72"
"1323","11222"
"1324","11272.58"
"1325","11307.19"
"1326","11311"
"1327","11291.96"
"1328","11260.71"
"1329","11228.26"
"1330","11206.66"
"1331","11208.15"
"1332","11239.57"
"1333","11285.58"
"1334","11325.24"
"1335","11341.63"
"1336","11341.68"
"1337","11340.95"
"1338","11352.84"
"1339","11372.46"
"1340","11385.68"
"1341","11379.31"
"1342","11352.63"
"1343","11313.37"
"1344","11269.71"
"1345","11235.44"
"1346","11229.33"
"1347","11269.51"
"1348","11345.6"
"1349","11413.23"
"1350","11426.56"
"1351","11373.95"
"1352","11297.24"
"1353","11242.82"
"1354","11235.37"
"1355","11255.16"
"1356","11277.04"
"1357","11282.3"
"1358","11269.65"
"1359","11240.68"
"1360","11198.21"
"1361","11149.46"
"1362","11102.59"
"1363","11065.67"
"1364","11046.13"
"1365","11051.25"
"1366","11085.27"
"1367","11134.32"
"1368","11177.84"
"1369","11197.02"
"1370","11187.05"
"1371","11149.69"
"1372","11088.04"
"1373","11018.71"
"1374","10966.2"
"1375","10953.15"
"1376","10975.97"
"1377","11012.38"
"1378","11040.46"
"1379","11052.96"
"1380","11055.26"
"1381","11053.11"
"1382","11050"
"1383","11047.16"
"1384","11045.64"
"1385","11044"
"1386","11037.75"
"1387","11022.33"
"1388","11000.32"
"1389","10984.69"
"1390","10989.09"
"1391","11016.34"
"1392","11050.59"
"1393","11074.25"
"1394","11076.57"
"1395","11060.68"
"1396","11031.32"
"1397","10996.09"
"1398","10969.22"
"1399","10965.82"
"1400","10992.06"
"1401","11029.92"
"1402","11057.33"
"1403","11060.02"
"1404","11047.57"
"1405","11034.21"
"1406","11030.42"
"1407","11033.63"
"1408","11038.41"
"1409","11040.2"
"1410","11038.07"
"1411","11031.95"
"1412","11022.91"
"1413","11016.96"
"1414","11021.5"
"1415","11041.24"
"1416","11067.55"
"1417","11087.73"
"1418","11091.04"
"1419","11077.57"
"1420","11051.1"
"1421","11016.34"
"1422","10983.66"
"1423","10965.48"
"1424","10972.07"
"1425","10999.74"
"1426","11039.32"
"1427","11080.86"
"1428","11109.21"
"1429","11107.07"
"1430","11062.27"
"1431","11000.05"
"1432","10962.19"
"1433","10983.25"
"1434","11041.6"
"1435","11089.65"
"1436","11086.92"
"1437","11050.75"
"1438","11026.13"
"1439","11051.57"
"1440","11111.11"
"1441","11162"
"1442","11166.58"
"1443","11131.03"
"1444","11083.46"
"1445","11050.16"
"1446","11040.81"
"1447","11056.7"
"1448","11097.6"
"1449","11150.63"
"1450","11196.58"
"1451","11218.17"
"1452","11214.88"
"1453","11194.5"
"1454","11164.53"
"1455","11129.19"
"1456","11091.17"
"1457","11053.44"
"1458","11021.44"
"1459","11001.78"
"1460","10999.63"
"1461","11009.14"
"1462","11019.39"
"1463","11019.92"
"1464","11004.17"
"1465","10967.21"
"1466","10906.4"
"1467","10834.38"
"1468","10770.17"
"1469","10729.51"
"1470","10707.05"
"1471","10689.16"
"1472","10663.28"
"1473","10623.28"
"1474","10565.35"
"1475","10489.61"
"1476","10417.25"
"1477","10376.51"
"1478","10386.27"
"1479","10419.21"
"1480","10433.89"
"1481","10401.21"
"1482","10346.8"
"1483","10311.47"
"1484","10321.86"
"1485","10348.77"
"1486","10349.2"
"1487","10295.47"
"1488","10213.7"
"1489","10141.77"
"1490","10107.08"
"1491","10104.84"
"1492","10124.08"
"1493","10153.42"
"1494","10180.54"
"1495","10192.91"
"1496","10183.06"
"1497","10155.24"
"1498","10115.37"
"1499","10071.94"
"1500","10038.54"
"1501","10029.25"
"1502","10046.94"
"1503","10075.11"
"1504","10095.51"
"1505","10099.92"
"1506","10094.91"
"1507","10088.15"
"1508","10084.06"
"1509","10083.04"
"1510","10085.14"
"1511","10088.28"
"1512","10088.16"
"1513","10080.73"
"1514","10068.96"
"1515","10061.98"
"1516","10068.02"
"1517","10079.49"
"1518","10077.2"
"1519","10044.32"
"1520","9991.954"
"1521","9948.042"
"1522","9936.879"
"1523","9950.871"
"1524","9966.857"
"1525","9964.584"
"1526","9942.946"
"1527","9908.296"
"1528","9868.79"
"1529","9841.287"
"1530","9845.319"
"1531","9888.324"
"1532","9931.987"
"1533","9927.162"
"1534","9850.021"
"1535","9750.274"
"1536","9690.821"
"1537","9704.904"
"1538","9759.55"
"1539","9813.013"
"1540","9840.876"
"1541","9848.5"
"1542","9844.14"
"1543","9834.069"
"1544","9821.962"
"1545","9811.326"
"1546","9806.105"
"1547","9810.675"
"1548","9828.678"
"1549","9852.319"
"1550","9864.953"
"1551","9851.979"
"1552","9821.962"
"1553","9796.927"
"1554","9794.924"
"1555","9804.737"
"1556","9802.596"
"1557","9771.52"
"1558","9728.561"
"1559","9701.309"
"1560","9706.449"
"1561","9722.413"
"1562","9719.274"
"1563","9682.329"
"1564","9634.551"
"1565","9604.469"
"1566","9604.624"
"1567","9619.321"
"1568","9630.254"
"1569","9629.484"
"1570","9622.19"
"1571","9614.314"
"1572","9610.243"
"1573","9612.94"
"1574","9624.69"
"1575","9640.453"
"1576","9650.483"
"1577","9646.626"
"1578","9633.056"
"1579","9619.441"
"1580","9613.106"
"1581","9609.913"
"1582","9602.288"
"1583","9586.133"
"1584","9568.375"
"1585","9558.115"
"1586","9562.32"
"1587","9583.424"
"1588","9623.128"
"1589","9674.469"
"1590","9718.182"
"1591","9734.637"
"1592","9716.995"
"1593","9670.737"
"1594","9603.021"
"1595","9534.674"
"1596","9495.362"
"1597","9509.521"
"1598","9563.944"
"1599","9629.459"
"1600","9681.589"
"1601","9716.382"
"1602","9735.38"
"1603","9738.843"
"1604","9723.616"
"1605","9686.131"
"1606","9635.255"
"1607","9600.984"
"1608","9614.102"
"1609","9670.128"
"1610","9725.93"
"1611","9739.407"
"1612","9708.662"
"1613","9660.146"
"1614","9619.15"
"1615","9597.99"
"1616","9603.25"
"1617","9635.699"
"1618","9671.458"
"1619","9680.096"
"1620","9648.243"
"1621","9605.656"
"1622","9588.434"
"1623","9608.935"
"1624","9642.982"
"1625","9664.411"
"1626","9671.275"
"1627","9684.665"
"1628","9723.778"
"1629","9779.057"
"1630","9824.18"
"1631","9837.53"
"1632","9824.718"
"1633","9800.705"
"1634","9778.21"
"1635","9762.924"
"1636","9759.18"
"1637","9771.339"
"1638","9803.794"
"1639","9860.291"
"1640","9927.682"
"1641","9974.847"
"1642","9973.777"
"1643","9941.852"
"1644","9925.003"
"1645","9959.501"
"1646","10023.01"
"1647","10072.19"
"1648","10076.71"
"1649","10046.95"
"1650","10001.12"
"1651","9954.466"
"1652","9917.06"
"1653","9898.071"
"1654","9897.882"
"1655","9908.16"
"1656","9920.154"
"1657","9924.773"
"1658","9912.733"
"1659","9877.349"
"1660","9824.654"
"1661","9764.56"
"1662","9707.443"
"1663","9664.842"
"1664","9648.189"
"1665","9655.263"
"1666","9664.98"
"1667","9655.981"
"1668","9623.757"
"1669","9576.69"
"1670","9524.896"
"1671","9487.783"
"1672","9488.604"
"1673","9535.958"
"1674","9589.474"
"1675","9598.926"
"1676","9546.723"
"1677","9471.464"
"1678","9415.615"
"1679","9386.731"
"1680","9360.147"
"1681","9314.431"
"1682","9264.609"
"1683","9243.503"
"1684","9269.866"
"1685","9307.542"
"1686","9307.33"
"1687","9250.733"
"1688","9177.921"
"1689","9133.842"
"1690","9120.911"
"1691","9099.399"
"1692","9033.898"
"1693","8941.972"
"1694","8868.211"
"1695","8846.199"
"1696","8865.317"
"1697","8904.12"
"1698","8943.413"
"1699","8968.258"
"1700","8964.706"
"1701","8930.24"
"1702","8873.188"
"1703","8804.135"
"1704","8747.925"
"1705","8736.152"
"1706","8784.204"
"1707","8850.698"
"1708","8882.282"
"1709","8859.8"
"1710","8820.238"
"1711","8803.292"
"1712","8807.227"
"1713","8796.816"
"1714","8744.564"
"1715","8677.524"
"1716","8643.771"
"1717","8666.571"
"1718","8700.993"
"1719","8691.842"
"1720","8636.069"
"1721","8597.429"
"1722","8635.431"
"1723","8714.872"
"1724","8742.392"
"1725","8654.161"
"1726","8520.483"
"1727","8448.167"
"1728","8486.375"
"1729","8573.339"
"1730","8636.83"
"1731","8647.337"
"1732","8613.632"
"1733","8548.639"
"1734","8483.755"
"1735","8457.957"
"1736","8491.433"
"1737","8552.52"
"1738","8601.243"
"1739","8618.096"
"1740","8608.643"
"1741","8580.422"
"1742","8545.07"
"1743","8516.511"
"1744","8505.905"
"1745","8513.885"
"1746","8538.508"
"1747","8570.401"
"1748","8588.495"
"1749","8572.988"
"1750","8534.745"
"1751","8506.234"
"1752","8512.386"
"1753","8540.006"
"1754","8564.688"
"1755","8571.998"
"1756","8566.643"
"1757","8555.268"
"1758","8540.73"
"1759","8522.72"
"1760","8501.044"
"1761","8476.63"
"1762","8450.79"
"1763","8422.214"
"1764","8383.881"
"1765","8329.307"
"1766","8277.983"
"1767","8273.4"
"1768","8346.188"
"1769","8441.34"
"1770","8471.171"
"1771","8395.573"
"1772","8285.883"
"1773","8226.677"
"1774","8242.378"
"1775","8299.433"
"1776","8363.149"
"1777","8406.994"
"1778","8407.658"
"1779","8361.937"
"1780","8313.671"
"1781","8311.133"
"1782","8353.096"
"1783","8391.521"
"1784","8385.565"
"1785","8349.701"
"1786","8319.087"
"1787","8313.035"
"1788","8315.926"
"1789","8308.752"
"1790","8295.698"
"1791","8301.191"
"1792","8342.528"
"1793","8394.685"
"1794","8418.571"
"1795","8396.863"
"1796","8354.319"
"1797","8319.296"
"1798","8301.761"
"1799","8297.765"
"1800","8301.859"
"1801","8303.48"
"1802","8290.719"
"1803","8258.938"
"1804","8215.142"
"1805","8168.08"
"1806","8133.921"
"1807","8133.45"
"1808","8174.28"
"1809","8218.052"
"1810","8217.614"
"1811","8170.99"
"1812","8132.777"
"1813","8151.082"
"1814","8194.616"
"1815","8194.837"
"1816","8121.931"
"1817","8044.895"
"1818","8044.471"
"1819","8124.336"
"1820","8216.78"
"1821","8262.095"
"1822","8258.134"
"1823","8221.753"
"1824","8169.646"
"1825","8118.157"
"1826","8082.771"
"1827","8068.903"
"1828","8075.498"
"1829","8097.567"
"1830","8117.073"
"1831","8113.61"
"1832","8081.377"
"1833","8031.71"
"1834","7978.033"
"1835","7941.019"
"1836","7944.279"
"1837","7992.924"
"1838","8053.027"
"1839","8087.757"
"1840","8090.456"
"1841","8076.803"
"1842","8061.376"
"1843","8052.338"
"1844","8056.135"
"1845","8072.213"
"1846","8091.193"
"1847","8103.417"
"1848","8101.505"
"1849","8079.08"
"1850","8038.017"
"1851","7997.697"
"1852","7978.305"
"1853","7979.772"
"1854","7987.411"
"1855","7991.582"
"1856","8002.159"
"1857","8032.61"
"1858","8071.477"
"1859","8078.549"
"1860","8022.933"
"1861","7940.923"
"1862","7893.941"
"1863","7910.319"
"1864","7958.46"
"1865","8001.545"
"1866","8014.844"
"1867","7980.814"
"1868","7899.766"
"1869","7822.124"
"1870","7804.497"
"1871","7851.321"
"1872","7920.257"
"1873","7972"
"1874","7988.362"
"1875","7957.657"
"1876","7897.727"
"1877","7865.021"
"1878","7906.049"
"1879","7981.825"
"1880","8018.337"
"1881","7982.477"
"1882","7918.184"
"1883","7875.246"
"1884","7874.777"
"1885","7920.94"
"1886","8001.929"
"1887","8064.084"
"1888","8051.152"
"1889","7979.233"
"1890","7923.318"
"1891","7931.545"
"1892","7944.742"
"1893","7882.003"
"1894","7756.207"
"1895","7682.083"
"1896","7749.221"
"1897","7890.443"
"1898","7989.485"
"1899","7992.175"
"1900","7932.343"
"1901","7850.255"
"1902","7783.827"
"1903","7769.695"
"1904","7808.302"
"1905","7834.655"
"1906","7786.618"
"1907","7692.995"
"1908","7631.39"
"1909","7644.949"
"1910","7697.449"
"1911","7744.398"
"1912","7774.597"
"1913","7798.84"
"1914","7823.356"
"1915","7840.531"
"1916","7841.041"
"1917","7826.621"
"1918","7807.739"
"1919","7790.926"
"1920","7768.65"
"1921","7731.261"
"1922","7685.891"
"1923","7655.137"
"1924","7654.527"
"1925","7669.422"
"1926","7678.381"
"1927","7676.266"
"1928","7674.976"
"1929","7683.432"
"1930","7693.505"
"1931","7692.479"
"1932","7673.923"
"1933","7638.694"
"1934","7594.371"
"1935","7579.768"
"1936","7641.64"
"1937","7760.24"
"1938","7832.475"
"1939","7778.626"
"1940","7674.113"
"1941","7643.995"
"1942","7715.076"
"1943","7784.074"
"1944","7762.28"
"1945","7695.088"
"1946","7673.353"
"1947","7717.502"
"1948","7751.854"
"1949","7710.455"
"1950","7624.179"
"1951","7557.644"
"1952","7534.985"
"1953","7524.724"
"1954","7499.339"
"1955","7477.39"
"1956","7493.026"
"1957","7547.475"
"1958","7597.606"
"1959","7605.131"
"1960","7576.307"
"1961","7532.654"
"1962","7494.844"
"1963","7482.399"
"1964","7505.991"
"1965","7530.682"
"1966","7508.366"
"1967","7445.498"
"1968","7414.326"
"1969","7465.594"
"1970","7529.089"
"1971","7502.417"
"1972","7386.11"
"1973","7294.183"
"1974","7314.378"
"1975","7398.283"
"1976","7463.812"
"1977","7479.002"
"1978","7461.23"
"1979","7430.094"
"1980","7405.487"
"1981","7405.471"
"1982","7413.266"
"1983","7382.198"
"1984","7292.007"
"1985","7206.736"
"1986","7200.516"
"1987","7260.844"
"1988","7312.028"
"1989","7307.635"
"1990","7279.509"
"1991","7268.051"
"1992","7273.392"
"1993","7271.4"
"1994","7251.603"
"1995","7232.369"
"1996","7233.223"
"1997","7253.698"
"1998","7283.604"
"1999","7314.373"
"2000","7340.217"
"2001","7352.209"
"2002","7320.797"
"2003","7210.17"
"2004","7046.732"
"2005","6936.515"
"2006","6962.634"
"2007","7078.261"
"2008","7200.622"
"2009","7276.853"
"2010","7283.458"
"2011","7214.72"
"2012","7120.15"
"2013","7057.265"
"2014","7032.299"
"2015","7013.839"
"2016","6986.452"
"2017","6975.06"
"2018","7004.48"
"2019","7044.228"
"2020","7035.026"
"2021","6983.575"
"2022","7009.141"
"2023","7192.95"
"2024","7318.979"
"2025","7071.121"
"2026","6510.804"
"2027","6151.801"
"2028","6362.938"
"2029","6822.627"
"2030","7059.257"
"2031","6994.661"
"2032","6876.784"
"2033","6879.706"
"2034","6958.092"
"2035","7034.228"
"2036","7059.532"
"2037","7002.108"
"2038","6874.895"
"2039","6766.709"
"2040","6754.248"
"2041","6800.147"
"2042","6827.945"
"2043","6812.243"
"2044","6784.271"
"2045","6772.113"
"2046","6782.368"
"2047","6816.056"
"2048","6862.101"
"2049","6900.851"
"2050","6912.728"
"2051","6878.839"
"2052","6788.877"
"2053","6693.379"
"2054","6667.706"
"2055","6719.418"
"2056","6768.688"
"2057","6752.334"
"2058","6698"
"2059","6654.514"
"2060","6644.526"
"2061","6670.28"
"2062","6724.65"
"2063","6780.548"
"2064","6809.749"
"2065","6796.879"
"2066","6732.951"
"2067","6632.033"
"2068","6538.192"
"2069","6488.558"
"2070","6484.376"
"2071","6517.25"
"2072","6567.431"
"2073","6606.729"
"2074","6617.019"
"2075","6601.892"
"2076","6567.435"
"2077","6518.042"
"2078","6458.149"
"2079","6413.459"
"2080","6434.111"
"2081","6538.984"
"2082","6638.552"
"2083","6632.674"
"2084","6555.88"
"2085","6525.609"
"2086","6581.594"
"2087","6629.457"
"2088","6586.177"
"2089","6493.391"
"2090","6429.521"
"2091","6422.272"
"2092","6454.318"
"2093","6508.692"
"2094","6573.155"
"2095","6631.322"
"2096","6631.674"
"2097","6509.902"
"2098","6304.363"
"2099","6176.872"
"2100","6232.239"
"2101","6360.232"
"2102","6418.095"
"2103","6394.081"
"2104","6354.005"
"2105","6328.387"
"2106","6291.113"
"2107","6224.323"
"2108","6167.782"
"2109","6171.91"
"2110","6212.033"
"2111","6207.662"
"2112","6136.46"
"2113","6091.013"
"2114","6151.015"
"2115","6252.594"
"2116","6287.7"
"2117","6240.102"
"2118","6175.723"
"2119","6147.984"
"2120","6174.691"
"2121","6259.461"
"2122","6345.757"
"2123","6356.003"
"2124","6287.316"
"2125","6212.913"
"2126","6174.055"
"2127","6120.021"
"2128","6002.031"
"2129","5893.931"
"2130","5919.122"
"2131","6058.168"
"2132","6133.281"
"2133","6040.237"
"2134","5904.337"
"2135","5869.751"
"2136","5914.021"
"2137","5939.098"
"2138","5928.739"
"2139","5961.202"
"2140","6063.576"
"2141","6101.528"
"2142","5944.373"
"2143","5719.025"
"2144","5667.531"
"2145","5823.251"
"2146","5981.046"
"2147","6003.657"
"2148","5980.361"
"2149","6019.555"
"2150","6077.58"
"2151","6045.863"
"2152","5925.538"
"2153","5836.323"
"2154","5851.685"
"2155","5909.89"
"2156","5934.805"
"2157","5900.032"
"2158","5802.592"
"2159","5703.433"
"2160","5725.482"
"2161","5901.758"
"2162","6054.274"
"2163","6015.618"
"2164","5852.454"
"2165","5709.44"
"2166","5623.24"
"2167","5539.527"
"2168","5438.051"
"2169","5369.709"
"2170","5377.265"
"2171","5426.232"
"2172","5461.489"
"2173","5457.746"
"2174","5411.063"
"2175","5351.35"
"2176","5360.48"
"2177","5481.241"
"2178","5595.675"
"2179","5568.407"
"2180","5451.834"
"2181","5398.285"
"2182","5447.951"
"2183","5503.782"
"2184","5495.032"
"2185","5445.997"
"2186","5394.646"
"2187","5362.293"
"2188","5362.604"
"2189","5391.284"
"2190","5427.795"
"2191","5451.412"
"2192","5442.287"
"2193","5385.751"
"2194","5290.631"
"2195","5175.875"
"2196","5099.216"
"2197","5141.311"
"2198","5286.656"
"2199","5387.51"
"2200","5341.761"
"2201","5214.813"
"2202","5099.349"
"2203","5056.506"
"2204","5128.66"
"2205","5252.714"
"2206","5269.021"
"2207","5123.946"
"2208","4976.668"
"2209","4965.123"
"2210","5027.588"
"2211","5057.201"
"2212","5041.971"
"2213","5025.151"
"2214","5013.454"
"2215","4968.097"
"2216","4888.658"
"2217","4880.047"
"2218","5022.853"
"2219","5161.173"
"2220","5074.282"
"2221","4825.775"
"2222","4688.548"
"2223","4762.37"
"2224","4878.729"
"2225","4902.983"
"2226","4878.346"
"2227","4872.313"
"2228","4876.719"
"2229","4852.988"
"2230","4798.165"
"2231","4740.18"
"2232","4697.953"
"2233","4673.086"
"2234","4661.483"
"2235","4644.79"
"2236","4606.348"
"2237","4568.375"
"2238","4569.161"
"2239","4598.532"
"2240","4601.269"
"2241","4555.247"
"2242","4501.934"
"2243","4478.885"
"2244","4483.292"
"2245","4499.977"
"2246","4490.356"
"2247","4408.663"
"2248","4295.503"
"2249","4271.371"
"2250","4361.506"
"2251","4414.792"
"2252","4322.321"
"2253","4193.931"
"2254","4167.109"
"2255","4214.457"
"2256","4237.053"
"2257","4205.476"
"2258","4151.007"
"2259","4089.672"
"2260","4009.219"
"2261","3909.92"
"2262","3840.079"
"2263","3847.459"
"2264","3913.277"
"2265","3991.81"
"2266","4032.839"
"2267","3984.013"
"2268","3850.922"
"2269","3719.584"
"2270","3643.027"
"2271","3572.305"
"2272","3460.234"
"2273","3353.827"
"2274","3322.767"
"2275","3354.049"
"2276","3385.218"
"2277","3376.884"
"2278","3316.013"
"2279","3214.905"
"2280","3133.68"
"2281","3122.812"
"2282","3173.915"
"2283","3256.479"
"2284","3279.739"
"2285","3135.818"
"2286","2884.979"
"2287","2721.873"
"2288","2716.181"
"2289","2752.218"
"2290","2730.649"
"2291","2632.566"
"2292","2469.278"
"2293","2337.037"
"2294","2338.88"
"2295","2391.029"
"2296","2315.543"
"2297","2155.939"
"2298","2169.492"
"2299","2396.907"
"2300","2498.283"
