,"Scan 00947"
"400","13239.96"
"401","13175.49"
"402","13105.16"
"403","13041.53"
"404","12997.07"
"405","12981.95"
"406","12987.1"
"407","12993.73"
"408","12983.15"
"409","12938.6"
"410","12867.03"
"411","12791.9"
"412","12736.79"
"413","12724.15"
"414","12756.2"
"415","12816.25"
"416","12887.02"
"417","12951.64"
"418","13002.68"
"419","13044.32"
"420","13081.47"
"421","13118.88"
"422","13156.37"
"423","13185.76"
"424","13198.23"
"425","13185.04"
"426","13145.81"
"427","13097.48"
"428","13059.08"
"429","13049.47"
"430","13078.65"
"431","13132.93"
"432","13194.76"
"433","13246.71"
"434","13275.19"
"435","13279.63"
"436","13262.24"
"437","13225.21"
"438","13171.83"
"439","13110.19"
"440","13049.66"
"441","12999.53"
"442","12967.53"
"443","12953"
"444","12952.44"
"445","12962.41"
"446","12978.91"
"447","12994.27"
"448","12999.33"
"449","12984.97"
"450","12944.11"
"451","12885.7"
"452","12826.6"
"453","12783.58"
"454","12771.52"
"455","12787.15"
"456","12816.81"
"457","12846.78"
"458","12864.34"
"459","12867.93"
"460","12863.33"
"461","12856.41"
"462","12852.37"
"463","12847.18"
"464","12829.9"
"465","12789.51"
"466","12716.16"
"467","12618.93"
"468","12522.64"
"469","12452.44"
"470","12432.02"
"471","12459.29"
"472","12508.51"
"473","12553.26"
"474","12568.18"
"475","12548.91"
"476","12511.94"
"477","12474.51"
"478","12453.28"
"479","12451.63"
"480","12458.88"
"481","12463.74"
"482","12455.31"
"483","12432.39"
"484","12404.6"
"485","12382.07"
"486","12374.55"
"487","12382.21"
"488","12394.06"
"489","12398.56"
"490","12384.48"
"491","12349.15"
"492","12300.01"
"493","12245.08"
"494","12192.2"
"495","12144.77"
"496","12100.84"
"497","12058.18"
"498","12014.61"
"499","11970.09"
"500","11927.16"
"501","11888.49"
"502","11856.63"
"503","11830.31"
"504","11803.71"
"505","11770.8"
"506","11725.77"
"507","11668.43"
"508","11605.09"
"509","11542.4"
"510","11486.78"
"511","11439.39"
"512","11395.6"
"513","11350.51"
"514","11299.48"
"515","11243.98"
"516","11191.89"
"517","11151.35"
"518","11130.12"
"519","11128.48"
"520","11139.44"
"521","11155.72"
"522","11170.15"
"523","11176.89"
"524","11171.31"
"525","11148.82"
"526","11105.39"
"527","11045.63"
"528","10981.18"
"529","10923.85"
"530","10884.59"
"531","10863.21"
"532","10851.34"
"533","10840.47"
"534","10822.79"
"535","10798.44"
"536","10772.66"
"537","10750.8"
"538","10737.67"
"539","10733.29"
"540","10734.97"
"541","10740.03"
"542","10745.74"
"543","10749.28"
"544","10747.78"
"545","10738.36"
"546","10718.77"
"547","10690.63"
"548","10657.18"
"549","10621.65"
"550","10587.34"
"551","10558.05"
"552","10537.75"
"553","10530.39"
"554","10538.24"
"555","10556.25"
"556","10577.39"
"557","10594.69"
"558","10602.85"
"559","10602.49"
"560","10595.46"
"561","10583.64"
"562","10568.14"
"563","10548.03"
"564","10522.03"
"565","10488.9"
"566","10451.04"
"567","10418.68"
"568","10403.06"
"569","10415.19"
"570","10454.88"
"571","10503.17"
"572","10539.4"
"573","10543.37"
"574","10510.88"
"575","10458.42"
"576","10403.79"
"577","10364.21"
"578","10344.67"
"579","10337.96"
"580","10336.38"
"581","10332.68"
"582","10325.78"
"583","10319.28"
"584","10316.88"
"585","10321.75"
"586","10332.13"
"587","10343.46"
"588","10351.18"
"589","10351.55"
"590","10346.32"
"591","10339.52"
"592","10335.15"
"593","10335.8"
"594","10337.61"
"595","10334.84"
"596","10321.77"
"597","10295.81"
"598","10264.37"
"599","10236.82"
"600","10222.48"
"601","10225.55"
"602","10238.87"
"603","10253.82"
"604","10261.84"
"605","10257.27"
"606","10238.83"
"607","10205.63"
"608","10157.11"
"609","10101.28"
"610","10055.29"
"611","10036.67"
"612","10061.15"
"613","10120.03"
"614","10186.71"
"615","10234.25"
"616","10239.59"
"617","10210.74"
"618","10170.98"
"619","10143.63"
"620","10146.19"
"621","10166.67"
"622","10183.66"
"623","10175.87"
"624","10130.95"
"625","10065.11"
"626","10000.17"
"627","9957.822"
"628","9948.237"
"629","9958.466"
"630","9972.826"
"631","9975.973"
"632","9963.549"
"633","9945.341"
"634","9932.047"
"635","9933.683"
"636","9949.495"
"637","9969.848"
"638","9984.872"
"639","9985.869"
"640","9974.114"
"641","9956.043"
"642","9938.103"
"643","9925.757"
"644","9919.6"
"645","9918.72"
"646","9922.217"
"647","9928.719"
"648","9935.541"
"649","9939.756"
"650","9938.49"
"651","9931.284"
"652","9921.767"
"653","9913.952"
"654","9911.673"
"655","9914.832"
"656","9919.356"
"657","9920.998"
"658","9916.029"
"659","9906.119"
"660","9896.179"
"661","9891.146"
"662","9894.737"
"663","9903.982"
"664","9913.628"
"665","9918.439"
"666","9915.149"
"667","9906.287"
"668","9895.448"
"669","9886.195"
"670","9880.275"
"671","9876.445"
"672","9873.203"
"673","9869.085"
"674","9863.63"
"675","9857.29"
"676","9850.559"
"677","9843.857"
"678","9837.067"
"679","9829.776"
"680","9821.576"
"681","9811.877"
"682","9799.31"
"683","9782.292"
"684","9759.266"
"685","9731.14"
"686","9704.382"
"687","9686.198"
"688","9683.644"
"689","9699.473"
"690","9731.313"
"691","9776.497"
"692","9831.805"
"693","9887.655"
"694","9930.376"
"695","9946.265"
"696","9926.061"
"697","9883.693"
"698","9840.657"
"699","9818.367"
"700","9828.283"
"701","9856.716"
"702","9886.081"
"703","9899.167"
"704","9891.217"
"705","9873.418"
"706","9857.982"
"707","9856.046"
"708","9866.215"
"709","9878.854"
"710","9884.203"
"711","9874.925"
"712","9856.086"
"713","9836.696"
"714","9825.747"
"715","9828.189"
"716","9839.481"
"717","9853.721"
"718","9865.164"
"719","9872.435"
"720","9879.195"
"721","9889.377"
"722","9906.008"
"723","9923.415"
"724","9931.023"
"725","9918.22"
"726","9879.335"
"727","9828.912"
"728","9786.659"
"729","9772.111"
"730","9792.119"
"731","9830.244"
"732","9867.592"
"733","9886.24"
"734","9885.415"
"735","9879.23"
"736","9882.281"
"737","9906.273"
"738","9944.327"
"739","9982.149"
"740","10005.46"
"741","10005.83"
"742","9990.652"
"743","9969.965"
"744","9953.642"
"745","9946.742"
"746","9948.517"
"747","9957.865"
"748","9973.563"
"749","9993.166"
"750","10013.55"
"751","10031.61"
"752","10044.36"
"753","10049.34"
"754","10044.22"
"755","10026.77"
"756","10001.08"
"757","9980.979"
"758","9981.061"
"759","10014.16"
"760","10071.12"
"761","10127.9"
"762","10160.22"
"763","10150.99"
"764","10115.28"
"765","10077.09"
"766","10060.23"
"767","10074.56"
"768","10105.19"
"769","10134.7"
"770","10146.78"
"771","10140.81"
"772","10128.09"
"773","10120.21"
"774","10126.5"
"775","10145.24"
"776","10171.38"
"777","10199.88"
"778","10227.27"
"779","10253.1"
"780","10277.23"
"781","10299.42"
"782","10317.94"
"783","10329.9"
"784","10332.39"
"785","10324.14"
"786","10311.86"
"787","10304.66"
"788","10311.56"
"789","10335.82"
"790","10370.37"
"791","10407.04"
"792","10437.91"
"793","10458.09"
"794","10464.86"
"795","10455.55"
"796","10429.6"
"797","10395.46"
"798","10364.04"
"799","10346.11"
"800","10347.26"
"801","10364.88"
"802","10395.66"
"803","10435.83"
"804","10476.31"
"805","10504.84"
"806","10509.11"
"807","10483.1"
"808","10442.52"
"809","10407.75"
"810","10398.77"
"811","10421.21"
"812","10462.76"
"813","10509.95"
"814","10550.56"
"815","10581.82"
"816","10605.44"
"817","10623.15"
"818","10635.96"
"819","10643.1"
"820","10643.51"
"821","10636.23"
"822","10622.35"
"823","10604.83"
"824","10586.71"
"825","10570.86"
"826","10559.39"
"827","10554.15"
"828","10556.98"
"829","10567.36"
"830","10580.8"
"831","10592.41"
"832","10597.58"
"833","10594.94"
"834","10585.09"
"835","10568.64"
"836","10548.4"
"837","10534.1"
"838","10536.86"
"839","10567.33"
"840","10622.54"
"841","10684.67"
"842","10735.19"
"843","10758.43"
"844","10756.18"
"845","10736.72"
"846","10708.32"
"847","10679.35"
"848","10658.34"
"849","10653.82"
"850","10673.13"
"851","10710.15"
"852","10750.12"
"853","10778.17"
"854","10785.29"
"855","10780.98"
"856","10778.41"
"857","10790.17"
"858","10816.36"
"859","10844.23"
"860","10860.45"
"861","10855"
"862","10835.35"
"863","10814.75"
"864","10806.29"
"865","10815.24"
"866","10834.39"
"867","10855.44"
"868","10870.94"
"869","10880.83"
"870","10888.91"
"871","10898.99"
"872","10913.9"
"873","10934.22"
"874","10960.15"
"875","10991.73"
"876","11026.1"
"877","11058.16"
"878","11082.82"
"879","11096.52"
"880","11101.42"
"881","11100.95"
"882","11098.53"
"883","11097.09"
"884","11099"
"885","11106.64"
"886","11121.17"
"887","11137.56"
"888","11148.76"
"889","11147.88"
"890","11137.53"
"891","11134.22"
"892","11155.59"
"893","11215.22"
"894","11296.83"
"895","11370.73"
"896","11407.36"
"897","11395.93"
"898","11362.28"
"899","11336.46"
"900","11345.34"
"901","11382.98"
"902","11424.23"
"903","11443.71"
"904","11427.61"
"905","11391.13"
"906","11353.99"
"907","11334.8"
"908","11336.3"
"909","11349.64"
"910","11365.64"
"911","11376.81"
"912","11380.83"
"913","11376.42"
"914","11362.65"
"915","11345.69"
"916","11338"
"917","11352.28"
"918","11394.15"
"919","11442.21"
"920","11468.54"
"921","11446.49"
"922","11380.83"
"923","11308.88"
"924","11269.49"
"925","11290.99"
"926","11354.41"
"927","11427.46"
"928","11478.53"
"929","11496.19"
"930","11492.76"
"931","11481.88"
"932","11475.55"
"933","11477.42"
"934","11488.5"
"935","11509.65"
"936","11537.3"
"937","11562.16"
"938","11574.53"
"939","11566.89"
"940","11543.51"
"941","11512.72"
"942","11482.8"
"943","11459.73"
"944","11446.29"
"945","11445.06"
"946","11457.1"
"947","11474.63"
"948","11486.71"
"949","11482.59"
"950","11460.68"
"951","11432.19"
"952","11409.26"
"953","11401.83"
"954","11407.04"
"955","11417.34"
"956","11425.27"
"957","11426.74"
"958","11422.26"
"959","11412.71"
"960","11399.17"
"961","11384.01"
"962","11370.03"
"963","11360"
"964","11355.49"
"965","11356.43"
"966","11362.63"
"967","11373.51"
"968","11386.23"
"969","11397.2"
"970","11402.89"
"971","11401.7"
"972","11394.41"
"973","11381.94"
"974","11365.26"
"975","11345.5"
"976","11323.79"
"977","11301.34"
"978","11279.73"
"979","11261.08"
"980","11247.49"
"981","11241.2"
"982","11244.89"
"983","11261.38"
"984","11293.05"
"985","11332.25"
"986","11361.53"
"987","11362.99"
"988","11327.06"
"989","11274.12"
"990","11231.33"
"991","11224.48"
"992","11256.3"
"993","11310.19"
"994","11368.92"
"995","11420.04"
"996","11465.17"
"997","11508.52"
"998","11553.7"
"999","11596.46"
"1000","11627.17"
"1001","11636.04"
"1002","11619.18"
"1003","11586.42"
"1004","11549.59"
"1005","11520.56"
"1006","11509.19"
"1007","11512.07"
"1008","11520.29"
"1009","11525.03"
"1010","11521.98"
"1011","11513.35"
"1012","11501.82"
"1013","11489.86"
"1014","11478.68"
"1015","11469.08"
"1016","11461.86"
"1017","11457.97"
"1018","11458.55"
"1019","11464.75"
"1020","11477.21"
"1021","11494.48"
"1022","11514.57"
"1023","11535.53"
"1024","11556.7"
"1025","11578.58"
"1026","11601.75"
"1027","11625.61"
"1028","11646.05"
"1029","11658.22"
"1030","11658.1"
"1031","11652.22"
"1032","11654.57"
"1033","11679.25"
"1034","11729.54"
"1035","11784.18"
"1036","11818.52"
"1037","11811.67"
"1038","11775.02"
"1039","11736.3"
"1040","11723.14"
"1041","11744.76"
"1042","11781"
"1043","11809.03"
"1044","11810.43"
"1045","11791.2"
"1046","11765.76"
"1047","11748.26"
"1048","11743.9"
"1049","11748.19"
"1050","11756.1"
"1051","11763.44"
"1052","11768.89"
"1053","11771.8"
"1054","11771.63"
"1055","11769.71"
"1056","11768.7"
"1057","11771.31"
"1058","11779.58"
"1059","11794.1"
"1060","11815.29"
"1061","11842.92"
"1062","11872"
"1063","11895.37"
"1064","11905.99"
"1065","11902.88"
"1066","11893.24"
"1067","11884.83"
"1068","11883.85"
"1069","11889.88"
"1070","11900.75"
"1071","11914.39"
"1072","11930.5"
"1073","11950.16"
"1074","11974.49"
"1075","12001"
"1076","12018.75"
"1077","12015.62"
"1078","11982.52"
"1079","11933.68"
"1080","11894.1"
"1081","11888.28"
"1082","11919.92"
"1083","11965.73"
"1084","12000.58"
"1085","12006.63"
"1086","11994"
"1087","11979.53"
"1088","11978.79"
"1089","11991.06"
"1090","12004.05"
"1091","12005.27"
"1092","11989.14"
"1093","11963.38"
"1094","11937.21"
"1095","11918.11"
"1096","11903.33"
"1097","11886.41"
"1098","11861.13"
"1099","11826.3"
"1100","11785.73"
"1101","11743.42"
"1102","11705.31"
"1103","11682.43"
"1104","11686.67"
"1105","11727.09"
"1106","11789.91"
"1107","11850.29"
"1108","11883.79"
"1109","11883.76"
"1110","11865.87"
"1111","11847.23"
"1112","11840.84"
"1113","11845.63"
"1114","11857.54"
"1115","11872.17"
"1116","11881.36"
"1117","11874.72"
"1118","11842.16"
"1119","11789.57"
"1120","11746.48"
"1121","11744.34"
"1122","11801.94"
"1123","11888.04"
"1124","11959.06"
"1125","11975.37"
"1126","11944.2"
"1127","11903.39"
"1128","11890.96"
"1129","11918.67"
"1130","11956.46"
"1131","11970.52"
"1132","11937.6"
"1133","11878.41"
"1134","11825.1"
"1135","11807.11"
"1136","11820.98"
"1137","11841.32"
"1138","11842.61"
"1139","11816.95"
"1140","11784.18"
"1141","11766.63"
"1142","11779.25"
"1143","11807.69"
"1144","11830.27"
"1145","11827.56"
"1146","11805.23"
"1147","11784.5"
"1148","11786.53"
"1149","11816.71"
"1150","11857.81"
"1151","11890.81"
"1152","11902.84"
"1153","11902.16"
"1154","11901.62"
"1155","11912.05"
"1156","11925.71"
"1157","11925"
"1158","11892.88"
"1159","11834.46"
"1160","11781.35"
"1161","11766.74"
"1162","11807.32"
"1163","11874.46"
"1164","11931.78"
"1165","11949.12"
"1166","11938.51"
"1167","11929.53"
"1168","11950.2"
"1169","11996.03"
"1170","12032.47"
"1171","12024.01"
"1172","11960.53"
"1173","11882.96"
"1174","11838.37"
"1175","11861.19"
"1176","11926.8"
"1177","11993.34"
"1178","12022.27"
"1179","12014.84"
"1180","11998.29"
"1181","11999.87"
"1182","12026.21"
"1183","12055.73"
"1184","12064.8"
"1185","12040.75"
"1186","12003.46"
"1187","11978.82"
"1188","11988.44"
"1189","12024.81"
"1190","12068.26"
"1191","12099.81"
"1192","12114.08"
"1193","12117.48"
"1194","12116.83"
"1195","12118.13"
"1196","12126.05"
"1197","12145.08"
"1198","12176.62"
"1199","12210.4"
"1200","12233.4"
"1201","12234.73"
"1202","12221.48"
"1203","12209.83"
"1204","12215.29"
"1205","12237.11"
"1206","12258.23"
"1207","12261.04"
"1208","12240.26"
"1209","12214.9"
"1210","12206.77"
"1211","12229.48"
"1212","12263.3"
"1213","12280.03"
"1214","12255.56"
"1215","12201.58"
"1216","12148.26"
"1217","12124.9"
"1218","12136.52"
"1219","12164.14"
"1220","12187.87"
"1221","12197.8"
"1222","12202.83"
"1223","12213.89"
"1224","12237.64"
"1225","12264.99"
"1226","12283.18"
"1227","12281.78"
"1228","12267.69"
"1229","12255.77"
"1230","12260.22"
"1231","12282.93"
"1232","12315.37"
"1233","12348.7"
"1234","12377.13"
"1235","12399.56"
"1236","12415.27"
"1237","12424.17"
"1238","12427.96"
"1239","12428.69"
"1240","12428.65"
"1241","12431.66"
"1242","12442.06"
"1243","12463.33"
"1244","12489.55"
"1245","12508.9"
"1246","12509.93"
"1247","12494.42"
"1248","12478.71"
"1249","12479.78"
"1250","12504.66"
"1251","12541.17"
"1252","12575"
"1253","12594.92"
"1254","12600.59"
"1255","12594.01"
"1256","12578.08"
"1257","12561.42"
"1258","12554.9"
"1259","12568.15"
"1260","12594.8"
"1261","12617.63"
"1262","12619.75"
"1263","12600.91"
"1264","12579.75"
"1265","12575.86"
"1266","12597.85"
"1267","12633.4"
"1268","12667.87"
"1269","12690.34"
"1270","12702.02"
"1271","12706.6"
"1272","12707.26"
"1273","12704.13"
"1274","12696.29"
"1275","12683.32"
"1276","12669.71"
"1277","12662.84"
"1278","12669.64"
"1279","12686.24"
"1280","12698.56"
"1281","12692.37"
"1282","12665.12"
"1283","12631.77"
"1284","12608.73"
"1285","12606.08"
"1286","12618.74"
"1287","12639.43"
"1288","12661.19"
"1289","12678.47"
"1290","12686.07"
"1291","12680.18"
"1292","12666.02"
"1293","12652.43"
"1294","12647.82"
"1295","12655.45"
"1296","12675.39"
"1297","12707.55"
"1298","12749.15"
"1299","12794.95"
"1300","12839.53"
"1301","12874.25"
"1302","12885.94"
"1303","12861.13"
"1304","12800.37"
"1305","12734.4"
"1306","12697.94"
"1307","12713.65"
"1308","12764.19"
"1309","12823.94"
"1310","12870.47"
"1311","12897.72"
"1312","12904.84"
"1313","12892.3"
"1314","12870.92"
"1315","12856.5"
"1316","12863.35"
"1317","12886.11"
"1318","12905.67"
"1319","12903.44"
"1320","12879.66"
"1321","12853.26"
"1322","12843.73"
"1323","12857.15"
"1324","12880.73"
"1325","12900.33"
"1326","12904.66"
"1327","12888.23"
"1328","12846.27"
"1329","12782.79"
"1330","12726.83"
"1331","12711.9"
"1332","12758.76"
"1333","12836.3"
"1334","12900.17"
"1335","12912.77"
"1336","12876.17"
"1337","12806.82"
"1338","12720.85"
"1339","12631.68"
"1340","12551.33"
"1341","12490.97"
"1342","12450.99"
"1343","12424.45"
"1344","12404.73"
"1345","12394.08"
"1346","12402.76"
"1347","12440.95"
"1348","12505.44"
"1349","12577.12"
"1350","12636.06"
"1351","12671.36"
"1352","12686.23"
"1353","12685.12"
"1354","12675.68"
"1355","12672.06"
"1356","12689.18"
"1357","12731.21"
"1358","12773.35"
"1359","12786"
"1360","12751.03"
"1361","12690.64"
"1362","12635.94"
"1363","12611.28"
"1364","12609.93"
"1365","12616.21"
"1366","12615.94"
"1367","12604.03"
"1368","12578.73"
"1369","12539.99"
"1370","12500.74"
"1371","12479.97"
"1372","12494.54"
"1373","12538.75"
"1374","12593.8"
"1375","12641.31"
"1376","12671.12"
"1377","12678.88"
"1378","12661.1"
"1379","12626.85"
"1380","12596.09"
"1381","12588.49"
"1382","12606.76"
"1383","12636.05"
"1384","12660.9"
"1385","12672.72"
"1386","12671.46"
"1387","12657.64"
"1388","12633.84"
"1389","12605.76"
"1390","12579.27"
"1391","12557.96"
"1392","12541.45"
"1393","12528.99"
"1394","12520.05"
"1395","12514.52"
"1396","12512.36"
"1397","12514.57"
"1398","12524.54"
"1399","12546.03"
"1400","12578.54"
"1401","12610.3"
"1402","12627.62"
"1403","12622.3"
"1404","12603.02"
"1405","12581.74"
"1406","12567.72"
"1407","12560.8"
"1408","12558.76"
"1409","12560.27"
"1410","12567.55"
"1411","12583.68"
"1412","12610.01"
"1413","12640.16"
"1414","12665.61"
"1415","12679.05"
"1416","12679.14"
"1417","12666.4"
"1418","12642.59"
"1419","12616.15"
"1420","12597.84"
"1421","12596.01"
"1422","12604.9"
"1423","12613.54"
"1424","12612.64"
"1425","12603.59"
"1426","12591.98"
"1427","12582.72"
"1428","12575.83"
"1429","12569.28"
"1430","12562.72"
"1431","12567.98"
"1432","12602.27"
"1433","12677.08"
"1434","12759.86"
"1435","12797.71"
"1436","12748.06"
"1437","12651.94"
"1438","12590.27"
"1439","12631.92"
"1440","12744.16"
"1441","12844.41"
"1442","12860.11"
"1443","12805.7"
"1444","12739.01"
"1445","12712.48"
"1446","12730.3"
"1447","12772.38"
"1448","12819.51"
"1449","12861.65"
"1450","12893.29"
"1451","12909.07"
"1452","12904.34"
"1453","12874.81"
"1454","12818.15"
"1455","12748.16"
"1456","12686.58"
"1457","12651.85"
"1458","12636.29"
"1459","12619.71"
"1460","12585.55"
"1461","12545.32"
"1462","12523.47"
"1463","12539.21"
"1464","12573.57"
"1465","12590.73"
"1466","12561.03"
"1467","12497.32"
"1468","12430.19"
"1469","12384.51"
"1470","12348.38"
"1471","12295.47"
"1472","12206.6"
"1473","12104.81"
"1474","12028.52"
"1475","12007.23"
"1476","12022.03"
"1477","12037.73"
"1478","12026.14"
"1479","11993.49"
"1480","11956.53"
"1481","11928.07"
"1482","11903.61"
"1483","11873.79"
"1484","11832.74"
"1485","11788.21"
"1486","11751.35"
"1487","11729.28"
"1488","11715.03"
"1489","11698.57"
"1490","11673.89"
"1491","11647.41"
"1492","11627.9"
"1493","11620.52"
"1494","11620.69"
"1495","11622.17"
"1496","11619.68"
"1497","11610.04"
"1498","11590.44"
"1499","11562.59"
"1500","11537.41"
"1501","11526.75"
"1502","11532.17"
"1503","11537.34"
"1504","11524.47"
"1505","11492.47"
"1506","11464.88"
"1507","11466.55"
"1508","11498.06"
"1509","11529.67"
"1510","11530.75"
"1511","11497.86"
"1512","11456.28"
"1513","11431.62"
"1514","11430.03"
"1515","11440.47"
"1516","11451.8"
"1517","11460.42"
"1518","11468.22"
"1519","11476.78"
"1520","11483.02"
"1521","11481.08"
"1522","11465.77"
"1523","11438.02"
"1524","11401.73"
"1525","11361.14"
"1526","11322.48"
"1527","11292.74"
"1528","11275.5"
"1529","11257.56"
"1530","11220.54"
"1531","11153.81"
"1532","11075.81"
"1533","11011.92"
"1534","10976.97"
"1535","10955.25"
"1536","10925.6"
"1537","10880.46"
"1538","10842.74"
"1539","10839.27"
"1540","10880.15"
"1541","10946.78"
"1542","11017.9"
"1543","11079.98"
"1544","11129.77"
"1545","11164.91"
"1546","11188.17"
"1547","11207.47"
"1548","11230.1"
"1549","11250.37"
"1550","11252.54"
"1551","11223.31"
"1552","11176.73"
"1553","11142.77"
"1554","11146.45"
"1555","11176.47"
"1556","11205.9"
"1557","11212.38"
"1558","11196.45"
"1559","11165.71"
"1560","11128.17"
"1561","11093.1"
"1562","11070.03"
"1563","11062.72"
"1564","11060.7"
"1565","11051.36"
"1566","11029.73"
"1567","11004.29"
"1568","10984.75"
"1569","10975.54"
"1570","10974.44"
"1571","10978.75"
"1572","10985.92"
"1573","10993.47"
"1574","10999.36"
"1575","11006.59"
"1576","11021.41"
"1577","11047.54"
"1578","11069.74"
"1579","11064.32"
"1580","11016.39"
"1581","10953.71"
"1582","10916.87"
"1583","10931.7"
"1584","10977.3"
"1585","11023.53"
"1586","11047.39"
"1587","11040.84"
"1588","10998.16"
"1589","10933.4"
"1590","10888.72"
"1591","10906.22"
"1592","10979.74"
"1593","11056.6"
"1594","11086.54"
"1595","11070.2"
"1596","11041.2"
"1597","11029.29"
"1598","11033.53"
"1599","11039.97"
"1600","11038.43"
"1601","11035.13"
"1602","11040.72"
"1603","11059"
"1604","11075.45"
"1605","11072.7"
"1606","11047.88"
"1607","11022.79"
"1608","11020.92"
"1609","11046.96"
"1610","11084.92"
"1611","11118.39"
"1612","11139.53"
"1613","11146.54"
"1614","11138.93"
"1615","11125.03"
"1616","11117.07"
"1617","11124.97"
"1618","11148.62"
"1619","11185.25"
"1620","11226.61"
"1621","11250.59"
"1622","11233.33"
"1623","11174.72"
"1624","11111.24"
"1625","11081.08"
"1626","11092.2"
"1627","11123.8"
"1628","11155.56"
"1629","11184.27"
"1630","11216.67"
"1631","11257.09"
"1632","11295.76"
"1633","11318.08"
"1634","11315.03"
"1635","11294.91"
"1636","11269.37"
"1637","11250.95"
"1638","11253.65"
"1639","11291"
"1640","11359.1"
"1641","11435.53"
"1642","11497.89"
"1643","11534.79"
"1644","11541.71"
"1645","11518.22"
"1646","11486.8"
"1647","11478.17"
"1648","11508.06"
"1649","11545.69"
"1650","11551.46"
"1651","11512.49"
"1652","11462"
"1653","11436.55"
"1654","11443.54"
"1655","11461.46"
"1656","11469.21"
"1657","11461.77"
"1658","11443.13"
"1659","11415.35"
"1660","11370.35"
"1661","11297.03"
"1662","11198.96"
"1663","11116.99"
"1664","11096.83"
"1665","11140.05"
"1666","11187.16"
"1667","11178.55"
"1668","11119.94"
"1669","11067.13"
"1670","11066.63"
"1671","11093.78"
"1672","11094.52"
"1673","11034.16"
"1674","10942.84"
"1675","10864.04"
"1676","10822.05"
"1677","10808.17"
"1678","10810.48"
"1679","10818.23"
"1680","10821.8"
"1681","10811.4"
"1682","10775.91"
"1683","10703.49"
"1684","10594.95"
"1685","10499.79"
"1686","10478.92"
"1687","10546.42"
"1688","10626.96"
"1689","10638.07"
"1690","10567.52"
"1691","10472.6"
"1692","10407.52"
"1693","10373.51"
"1694","10344.82"
"1695","10302.52"
"1696","10255.46"
"1697","10219.23"
"1698","10203.33"
"1699","10205.77"
"1700","10222.99"
"1701","10245.74"
"1702","10259.32"
"1703","10250.55"
"1704","10220.08"
"1705","10175.01"
"1706","10123.84"
"1707","10079.63"
"1708","10056.36"
"1709","10060.27"
"1710","10084.92"
"1711","10122.16"
"1712","10155.41"
"1713","10161.25"
"1714","10122.44"
"1715","10061.76"
"1716","10017.4"
"1717","10011.43"
"1718","10021.53"
"1719","10018.33"
"1720","9992.42"
"1721","9959.958"
"1722","9937.38"
"1723","9925.638"
"1724","9916.196"
"1725","9903.235"
"1726","9893.524"
"1727","9897.254"
"1728","9917.434"
"1729","9943.285"
"1730","9962.706"
"1731","9968.603"
"1732","9958.372"
"1733","9931.104"
"1734","9896.12"
"1735","9866.927"
"1736","9853.265"
"1737","9854.435"
"1738","9867.752"
"1739","9883.657"
"1740","9884.197"
"1741","9853.84"
"1742","9805.546"
"1743","9768.153"
"1744","9762.095"
"1745","9775.546"
"1746","9789.284"
"1747","9792.269"
"1748","9786.387"
"1749","9774.865"
"1750","9763.513"
"1751","9759.962"
"1752","9768.943"
"1753","9781.214"
"1754","9783.441"
"1755","9769.811"
"1756","9748.896"
"1757","9730.438"
"1758","9716.181"
"1759","9701.212"
"1760","9682.639"
"1761","9670.063"
"1762","9677.403"
"1763","9706.079"
"1764","9730.249"
"1765","9721.792"
"1766","9680.226"
"1767","9630.571"
"1768","9595.492"
"1769","9576.745"
"1770","9568.104"
"1771","9564.689"
"1772","9564.816"
"1773","9567.265"
"1774","9570.848"
"1775","9574.434"
"1776","9576.867"
"1777","9576.914"
"1778","9573.304"
"1779","9566.853"
"1780","9563.222"
"1781","9568.312"
"1782","9578.153"
"1783","9579.445"
"1784","9561.992"
"1785","9536.8"
"1786","9522.789"
"1787","9527.417"
"1788","9532.958"
"1789","9519.405"
"1790","9486.985"
"1791","9453.573"
"1792","9435.843"
"1793","9440.584"
"1794","9471.186"
"1795","9519.838"
"1796","9557.142"
"1797","9553.679"
"1798","9516.562"
"1799","9480.603"
"1800","9471.034"
"1801","9466.975"
"1802","9435.105"
"1803","9375.046"
"1804","9339.113"
"1805","9377.834"
"1806","9469.018"
"1807","9545.562"
"1808","9557.874"
"1809","9519.779"
"1810","9458.887"
"1811","9402.486"
"1812","9377.465"
"1813","9404.604"
"1814","9456.938"
"1815","9485.063"
"1816","9461.413"
"1817","9414.204"
"1818","9379.248"
"1819","9368.69"
"1820","9372.756"
"1821","9381.116"
"1822","9385.091"
"1823","9376.591"
"1824","9354.563"
"1825","9330.339"
"1826","9315.492"
"1827","9309.382"
"1828","9303.514"
"1829","9293.815"
"1830","9291.866"
"1831","9311.734"
"1832","9340.335"
"1833","9332.735"
"1834","9253.574"
"1835","9145.076"
"1836","9081.429"
"1837","9098.143"
"1838","9148.83"
"1839","9179.714"
"1840","9181.039"
"1841","9175.63"
"1842","9180.435"
"1843","9186.602"
"1844","9179.491"
"1845","9160.908"
"1846","9153.43"
"1847","9175.758"
"1848","9209.468"
"1849","9220.155"
"1850","9194.042"
"1851","9161.325"
"1852","9155.163"
"1853","9171.378"
"1854","9178.835"
"1855","9158.425"
"1856","9136.848"
"1857","9149.765"
"1858","9189.411"
"1859","9197.938"
"1860","9130.427"
"1861","9038.727"
"1862","9010.769"
"1863","9077.229"
"1864","9165.165"
"1865","9197.95"
"1866","9176.234"
"1867","9146.746"
"1868","9137.773"
"1869","9123.672"
"1870","9071.865"
"1871","8998.817"
"1872","8964.995"
"1873","9010.358"
"1874","9077.379"
"1875","9083.58"
"1876","9025.531"
"1877","9003.197"
"1878","9099.778"
"1879","9236.825"
"1880","9269.807"
"1881","9146.785"
"1882","8990.106"
"1883","8929.282"
"1884","8965.805"
"1885","9025.469"
"1886","9054.959"
"1887","9059.521"
"1888","9053.704"
"1889","9046.459"
"1890","9042.188"
"1891","9040.585"
"1892","9024.23"
"1893","8973.011"
"1894","8902.763"
"1895","8868.381"
"1896","8911.229"
"1897","8992.495"
"1898","9048.372"
"1899","9052.749"
"1900","9032.932"
"1901","9016.409"
"1902","9003.488"
"1903","8983.078"
"1904","8953.023"
"1905","8927.395"
"1906","8919.855"
"1907","8924.234"
"1908","8923.733"
"1909","8910.935"
"1910","8899.927"
"1911","8906.234"
"1912","8926.521"
"1913","8944.967"
"1914","8950.055"
"1915","8942.944"
"1916","8926.964"
"1917","8904.986"
"1918","8879.526"
"1919","8854.269"
"1920","8836.796"
"1921","8835.042"
"1922","8847.323"
"1923","8863.092"
"1924","8873.177"
"1925","8875.244"
"1926","8868.688"
"1927","8854.721"
"1928","8836.449"
"1929","8817.479"
"1930","8803.163"
"1931","8799.054"
"1932","8800.708"
"1933","8792.125"
"1934","8761.572"
"1935","8721.916"
"1936","8693.388"
"1937","8685.067"
"1938","8692.027"
"1939","8707.787"
"1940","8722.314"
"1941","8724.64"
"1942","8714.851"
"1943","8707.657"
"1944","8715.136"
"1945","8728.56"
"1946","8732.123"
"1947","8719.452"
"1948","8697.043"
"1949","8673.612"
"1950","8665.091"
"1951","8689.325"
"1952","8732.628"
"1953","8738.121"
"1954","8662.033"
"1955","8554.158"
"1956","8496.268"
"1957","8514.519"
"1958","8560.099"
"1959","8586.244"
"1960","8587.367"
"1961","8571.902"
"1962","8546.081"
"1963","8513.246"
"1964","8479.489"
"1965","8465.871"
"1966","8497.269"
"1967","8562.816"
"1968","8608.545"
"1969","8591.662"
"1970","8535.073"
"1971","8480.445"
"1972","8450.395"
"1973","8446.518"
"1974","8463.899"
"1975","8474.841"
"1976","8447.419"
"1977","8390.824"
"1978","8354.724"
"1979","8373.534"
"1980","8419.53"
"1981","8452.188"
"1982","8456.323"
"1983","8438.475"
"1984","8406.619"
"1985","8370.92"
"1986","8342.152"
"1987","8333.256"
"1988","8358.7"
"1989","8412.61"
"1990","8437.414"
"1991","8376.457"
"1992","8270.959"
"1993","8221.068"
"1994","8269.555"
"1995","8339.279"
"1996","8348.95"
"1997","8305.624"
"1998","8258.976"
"1999","8227.345"
"2000","8177.27"
"2001","8083.755"
"2002","8003.778"
"2003","8023.205"
"2004","8137.347"
"2005","8225.525"
"2006","8194.638"
"2007","8113.8"
"2008","8094.296"
"2009","8149.511"
"2010","8196.703"
"2011","8174.743"
"2012","8108.616"
"2013","8040.075"
"2014","7993.694"
"2015","7981.405"
"2016","8001.802"
"2017","8022.34"
"2018","8010.247"
"2019","7973.238"
"2020","7940.551"
"2021","7930.92"
"2022","7944.79"
"2023","7977.306"
"2024","8002.42"
"2025","7986.969"
"2026","7926.667"
"2027","7851.843"
"2028","7793.723"
"2029","7778.475"
"2030","7827.765"
"2031","7907.191"
"2032","7935.92"
"2033","7879.389"
"2034","7827.499"
"2035","7875.539"
"2036","7975.763"
"2037","8001.646"
"2038","7906.697"
"2039","7782.137"
"2040","7719.476"
"2041","7732.864"
"2042","7807.911"
"2043","7904.765"
"2044","7955.436"
"2045","7914.487"
"2046","7820.897"
"2047","7730.092"
"2048","7669.674"
"2049","7647.548"
"2050","7662.203"
"2051","7693.145"
"2052","7717.262"
"2053","7710.532"
"2054","7649.522"
"2055","7550.65"
"2056","7481.586"
"2057","7488.614"
"2058","7517.887"
"2059","7495.204"
"2060","7421.873"
"2061","7357.95"
"2062","7346.177"
"2063","7386.296"
"2064","7467.192"
"2065","7540.912"
"2066","7544.324"
"2067","7479.722"
"2068","7434.739"
"2069","7471.818"
"2070","7530.532"
"2071","7526.438"
"2072","7468.022"
"2073","7432.844"
"2074","7455.26"
"2075","7475.109"
"2076","7434.022"
"2077","7366.241"
"2078","7342.012"
"2079","7374.13"
"2080","7409.177"
"2081","7408.084"
"2082","7391.979"
"2083","7391.616"
"2084","7405.388"
"2085","7411.667"
"2086","7397.576"
"2087","7365.647"
"2088","7322.364"
"2089","7286.499"
"2090","7279.448"
"2091","7297.809"
"2092","7316.172"
"2093","7317.281"
"2094","7305.573"
"2095","7287.32"
"2096","7258.62"
"2097","7211.508"
"2098","7154.985"
"2099","7118.449"
"2100","7120.669"
"2101","7140.829"
"2102","7152.186"
"2103","7152.758"
"2104","7155.173"
"2105","7161.881"
"2106","7159.21"
"2107","7138.283"
"2108","7117.431"
"2109","7119.81"
"2110","7130.307"
"2111","7105.397"
"2112","7035.674"
"2113","6978.934"
"2114","6986.519"
"2115","7031.582"
"2116","7062.166"
"2117","7055.933"
"2118","7017.099"
"2119","6957.792"
"2120","6906.051"
"2121","6888.699"
"2122","6909.527"
"2123","6961.732"
"2124","7005.246"
"2125","6966.233"
"2126","6821.779"
"2127","6685.036"
"2128","6669.68"
"2129","6731.131"
"2130","6757.478"
"2131","6722.448"
"2132","6694.969"
"2133","6715.527"
"2134","6731.07"
"2135","6684.239"
"2136","6611.978"
"2137","6593.338"
"2138","6638.724"
"2139","6679.358"
"2140","6666.572"
"2141","6622.178"
"2142","6578.958"
"2143","6556.774"
"2144","6568.494"
"2145","6599.305"
"2146","6602.937"
"2147","6558.092"
"2148","6518.025"
"2149","6538.151"
"2150","6592.154"
"2151","6618.056"
"2152","6592.898"
"2153","6536.022"
"2154","6468.376"
"2155","6409.484"
"2156","6375.353"
"2157","6359.206"
"2158","6345.518"
"2159","6334.331"
"2160","6340.851"
"2161","6365.253"
"2162","6372.024"
"2163","6332.118"
"2164","6283.14"
"2165","6282.929"
"2166","6323.3"
"2167","6340.629"
"2168","6313.422"
"2169","6304.736"
"2170","6362.823"
"2171","6419.91"
"2172","6382.65"
"2173","6273.23"
"2174","6193.415"
"2175","6175.896"
"2176","6143.073"
"2177","6044.703"
"2178","5966.696"
"2179","6010.149"
"2180","6121.854"
"2181","6166.744"
"2182","6111.539"
"2183","6047.418"
"2184","6033.296"
"2185","6018.989"
"2186","5950.035"
"2187","5867.421"
"2188","5847.562"
"2189","5894.816"
"2190","5948.364"
"2191","5966.766"
"2192","5951.478"
"2193","5911.064"
"2194","5863.699"
"2195","5829.081"
"2196","5811.798"
"2197","5806.659"
"2198","5805.99"
"2199","5798.972"
"2200","5782.703"
"2201","5778.858"
"2202","5805.896"
"2203","5826.058"
"2204","5780.176"
"2205","5670.538"
"2206","5556.176"
"2207","5478.376"
"2208","5439.679"
"2209","5435.912"
"2210","5453.001"
"2211","5475.229"
"2212","5498.306"
"2213","5524.656"
"2214","5554.281"
"2215","5584.116"
"2216","5609.894"
"2217","5624.784"
"2218","5619.875"
"2219","5576.961"
"2220","5478.012"
"2221","5355.745"
"2222","5280.179"
"2223","5286.385"
"2224","5355.374"
"2225","5450.6"
"2226","5494.647"
"2227","5423.298"
"2228","5323.009"
"2229","5334.204"
"2230","5403.618"
"2231","5312.138"
"2232","5025.617"
"2233","4837.458"
"2234","4958.43"
"2235","5185.444"
"2236","5256.028"
"2237","5174.371"
"2238","5067.477"
"2239","4994.834"
"2240","4952.156"
"2241","4930.01"
"2242","4914.034"
"2243","4890.928"
"2244","4853.544"
"2245","4800.346"
"2246","4763.505"
"2247","4788.501"
"2248","4858.054"
"2249","4896.449"
"2250","4866.453"
"2251","4803.992"
"2252","4742.888"
"2253","4681.71"
"2254","4613.033"
"2255","4543.812"
"2256","4487.045"
"2257","4445.896"
"2258","4414.97"
"2259","4392.045"
"2260","4380.563"
"2261","4378.506"
"2262","4364.899"
"2263","4321.78"
"2264","4275.55"
"2265","4265.725"
"2266","4264.184"
"2267","4193.293"
"2268","4049.502"
"2269","3933.695"
"2270","3907.232"
"2271","3907.793"
"2272","3865.324"
"2273","3773.644"
"2274","3649.919"
"2275","3542.121"
"2276","3514.608"
"2277","3564.782"
"2278","3616.243"
"2279","3611.867"
"2280","3540.924"
"2281","3414.699"
"2282","3306.882"
"2283","3289.504"
"2284","3310.351"
"2285","3267.173"
"2286","3157.853"
"2287","3060.912"
"2288","3005.47"
"2289","2946.268"
"2290","2860.652"
"2291","2799.646"
"2292","2803.523"
"2293","2801.744"
"2294","2703.932"
"2295","2556.176"
"2296","2475.306"
"2297","2459.583"
"2298","2392.105"
"2299","2232.91"
"2300","2080.128"
