,"Scan 00973"
"400","10469.42"
"401","10439.95"
"402","10414.82"
"403","10393.18"
"404","10374.18"
"405","10357.32"
"406","10345"
"407","10341.11"
"408","10349.51"
"409","10373.42"
"410","10408.11"
"411","10443.32"
"412","10468.75"
"413","10474.65"
"414","10460.71"
"415","10435.49"
"416","10407.8"
"417","10386.32"
"418","10376.54"
"419","10380.09"
"420","10398.33"
"421","10432.54"
"422","10477.63"
"423","10518.32"
"424","10538.51"
"425","10522.26"
"426","10466.41"
"427","10394.28"
"428","10332.36"
"429","10306.95"
"430","10330.96"
"431","10381.52"
"432","10429.95"
"433","10447.79"
"434","10417.37"
"435","10357.96"
"436","10296.65"
"437","10260.36"
"438","10267.72"
"439","10301.78"
"440","10335.96"
"441","10343.88"
"442","10305.99"
"443","10239.32"
"444","10173.21"
"445","10136.81"
"446","10153.52"
"447","10208.98"
"448","10273.31"
"449","10316.79"
"450","10313.76"
"451","10270.72"
"452","10209.94"
"453","10153.65"
"454","10121.87"
"455","10113.63"
"456","10115.96"
"457","10115.81"
"458","10101.24"
"459","10072.55"
"460","10038.16"
"461","10006.55"
"462","9985.438"
"463","9971.867"
"464","9954.918"
"465","9923.548"
"466","9867.775"
"467","9794.47"
"468","9724.522"
"469","9679.132"
"470","9678.271"
"471","9720.227"
"472","9783.451"
"473","9845.786"
"474","9885.876"
"475","9897.425"
"476","9889.077"
"477","9870.066"
"478","9849.354"
"479","9830.223"
"480","9809.977"
"481","9785.628"
"482","9754.384"
"483","9718.292"
"484","9684.826"
"485","9661.692"
"486","9656.307"
"487","9668.328"
"488","9688.407"
"489","9706.736"
"490","9713.743"
"491","9705.411"
"492","9684.354"
"493","9653.552"
"494","9615.884"
"495","9571.412"
"496","9516.79"
"497","9448.482"
"498","9363.217"
"499","9265.565"
"500","9169.563"
"501","9089.732"
"502","9040.09"
"503","9021.021"
"504","9016.752"
"505","9010.65"
"506","8986.553"
"507","8939.628"
"508","8878.133"
"509","8810.993"
"510","8746.991"
"511","8692.203"
"512","8649.698"
"513","8622.383"
"514","8612.884"
"515","8617.249"
"516","8624.649"
"517","8623.987"
"518","8604.773"
"519","8568.78"
"520","8529.764"
"521","8501.901"
"522","8498.479"
"523","8516.785"
"524","8539.715"
"525","8549.734"
"526","8530.474"
"527","8483.474"
"528","8424.927"
"529","8371.378"
"530","8338.234"
"531","8326.053"
"532","8324.485"
"533","8322.979"
"534","8311.811"
"535","8290.412"
"536","8264.161"
"537","8238.506"
"538","8218.31"
"539","8202.841"
"540","8188.211"
"541","8170.521"
"542","8146.802"
"543","8121.554"
"544","8102.896"
"545","8098.922"
"546","8115.788"
"547","8146.838"
"548","8180.236"
"549","8204.175"
"550","8208.734"
"551","8193.979"
"552","8163.335"
"553","8120.222"
"554","8069.111"
"555","8019.174"
"556","7980.839"
"557","7964.478"
"558","7976.067"
"559","8006.36"
"560","8042.829"
"561","8073.022"
"562","8087.634"
"563","8085.958"
"564","8068.741"
"565","8036.748"
"566","7994.231"
"567","7952.96"
"568","7925.632"
"569","7924.738"
"570","7951.644"
"571","7989.079"
"572","8018.077"
"573","8020.1"
"574","7990.462"
"575","7942.457"
"576","7890.524"
"577","7848.714"
"578","7823.54"
"579","7813.996"
"580","7818.747"
"581","7836.284"
"582","7862.441"
"583","7891.031"
"584","7915.851"
"585","7931.163"
"586","7935.676"
"587","7930.6"
"588","7917.175"
"589","7896.868"
"590","7872.73"
"591","7848.466"
"592","7827.76"
"593","7813.667"
"594","7806.351"
"595","7805.138"
"596","7809.359"
"597","7818.226"
"598","7830.565"
"599","7845.13"
"600","7860.682"
"601","7876.141"
"602","7890.775"
"603","7903.907"
"604","7914.842"
"605","7921.881"
"606","7921.797"
"607","7911.234"
"608","7887.069"
"609","7851.732"
"610","7813.591"
"611","7781.263"
"612","7762.822"
"613","7759.132"
"614","7765.762"
"615","7778.173"
"616","7791.872"
"617","7802.568"
"618","7806.081"
"619","7798.244"
"620","7776.697"
"621","7748.279"
"622","7722.738"
"623","7709.79"
"624","7714.751"
"625","7728.917"
"626","7740.817"
"627","7739.071"
"628","7719.068"
"629","7689.82"
"630","7661.943"
"631","7645.884"
"632","7646.931"
"633","7663.717"
"634","7694.451"
"635","7737.063"
"636","7784.817"
"637","7827.14"
"638","7853.369"
"639","7854.284"
"640","7832.938"
"641","7798.721"
"642","7761.048"
"643","7728.083"
"644","7701.923"
"645","7682.768"
"646","7670.828"
"647","7665.728"
"648","7665.425"
"649","7667.591"
"650","7669.924"
"651","7671.893"
"652","7675.943"
"653","7684.803"
"654","7701.005"
"655","7722.593"
"656","7743.067"
"657","7755.736"
"658","7754.734"
"659","7742.713"
"660","7727.451"
"661","7716.772"
"662","7716.75"
"663","7723.904"
"664","7731.5"
"665","7732.823"
"666","7724.706"
"667","7714.484"
"668","7711.414"
"669","7724.593"
"670","7754.207"
"671","7785.792"
"672","7803.566"
"673","7792.611"
"674","7754.784"
"675","7707.548"
"676","7668.927"
"677","7655.151"
"678","7667.113"
"679","7697.735"
"680","7739.891"
"681","7786.11"
"682","7827.381"
"683","7854.282"
"684","7857.45"
"685","7834.555"
"686","7799.001"
"687","7766.286"
"688","7751.551"
"689","7759.231"
"690","7780.994"
"691","7807.776"
"692","7830.869"
"693","7845.444"
"694","7849.16"
"695","7839.725"
"696","7816.517"
"697","7787.686"
"698","7764.23"
"699","7757.109"
"700","7771.33"
"701","7796.864"
"702","7821.352"
"703","7832.742"
"704","7829.397"
"705","7823.015"
"706","7826.144"
"707","7849.834"
"708","7887.552"
"709","7921.195"
"710","7932.495"
"711","7908.554"
"712","7863.9"
"713","7821.806"
"714","7805.456"
"715","7825.621"
"716","7863.795"
"717","7897.279"
"718","7904.045"
"719","7880.967"
"720","7846.65"
"721","7820.866"
"722","7821.066"
"723","7842.394"
"724","7867.425"
"725","7878.635"
"726","7864.53"
"727","7838.297"
"728","7819.428"
"729","7827.217"
"730","7865.242"
"731","7908.237"
"732","7927.9"
"733","7897.928"
"734","7827.531"
"735","7756.769"
"736","7726.667"
"737","7769.273"
"738","7858.736"
"739","7946.119"
"740","7982.541"
"741","7942.846"
"742","7866.01"
"743","7801.692"
"744","7798.262"
"745","7863.4"
"746","7955.62"
"747","8030.55"
"748","8048.672"
"749","8015.651"
"750","7961.938"
"751","7918.192"
"752","7906.64"
"753","7918.75"
"754","7938.968"
"755","7951.944"
"756","7952.813"
"757","7952.792"
"758","7964.445"
"759","7998.877"
"760","8049.207"
"761","8096.373"
"762","8121.102"
"763","8109.702"
"764","8073.266"
"765","8029.781"
"766","7997.145"
"767","7986.509"
"768","7997.078"
"769","8026.824"
"770","8073.371"
"771","8129.191"
"772","8182.851"
"773","8222.832"
"774","8240.655"
"775","8242.675"
"776","8239.761"
"777","8242.724"
"778","8256.016"
"779","8272.232"
"780","8282.68"
"781","8279.402"
"782","8265.635"
"783","8253.249"
"784","8254.329"
"785","8277.542"
"786","8315.073"
"787","8354.149"
"788","8382.063"
"789","8391.72"
"790","8386.063"
"791","8369.08"
"792","8344.98"
"793","8321.072"
"794","8306.896"
"795","8312.024"
"796","8342.436"
"797","8388.628"
"798","8436.951"
"799","8473.865"
"800","8492.217"
"801","8494.833"
"802","8485.401"
"803","8467.626"
"804","8445.295"
"805","8422.25"
"806","8402.333"
"807","8389.308"
"808","8386.688"
"809","8397.918"
"810","8426.284"
"811","8468.864"
"812","8514.977"
"813","8553.454"
"814","8574.687"
"815","8581.141"
"816","8580.97"
"817","8582.341"
"818","8588.765"
"819","8591.941"
"820","8581.733"
"821","8548.873"
"822","8501.313"
"823","8462.885"
"824","8457.993"
"825","8503.773"
"826","8579.341"
"827","8651.437"
"828","8687.046"
"829","8671.41"
"830","8621.215"
"831","8556.227"
"832","8495.836"
"833","8455.347"
"834","8447.523"
"835","8485.079"
"836","8570.778"
"837","8675.304"
"838","8762.897"
"839","8798.949"
"840","8779.446"
"841","8733.766"
"842","8692.96"
"843","8682.837"
"844","8697.669"
"845","8719.957"
"846","8732.294"
"847","8727.764"
"848","8718.964"
"849","8720.614"
"850","8745.805"
"851","8789.024"
"852","8832.902"
"853","8859.886"
"854","8859.337"
"855","8842.44"
"856","8824.678"
"857","8820.99"
"858","8833.597"
"859","8851.696"
"860","8863.896"
"861","8861.645"
"862","8851.387"
"863","8844.511"
"864","8852.255"
"865","8876.158"
"866","8902.431"
"867","8915.918"
"868","8903.756"
"869","8873.016"
"870","8841.086"
"871","8825.411"
"872","8836.645"
"873","8869.101"
"874","8914.696"
"875","8965.412"
"876","9014.126"
"877","9054.409"
"878","9079.848"
"879","9085.384"
"880","9070.831"
"881","9037.098"
"882","8985.457"
"883","8926.735"
"884","8882.055"
"885","8873.041"
"886","8914.757"
"887","8987.964"
"888","9062.256"
"889","9107.658"
"890","9117.25"
"891","9117.932"
"892","9139.304"
"893","9205.202"
"894","9296.899"
"895","9376.572"
"896","9406.514"
"897","9373.427"
"898","9311.514"
"899","9260.45"
"900","9256.055"
"901","9294.506"
"902","9348.734"
"903","9391.395"
"904","9405.255"
"905","9398.512"
"906","9383.3"
"907","9371.228"
"908","9366.569"
"909","9368.205"
"910","9374.885"
"911","9385.164"
"912","9396.981"
"913","9408.149"
"914","9416.547"
"915","9421.318"
"916","9422.73"
"917","9421.091"
"918","9415.813"
"919","9402.891"
"920","9377.502"
"921","9335.397"
"922","9286.527"
"923","9255.58"
"924","9267.935"
"925","9339.963"
"926","9447.564"
"927","9555.256"
"928","9628.233"
"929","9653.269"
"930","9642.415"
"931","9609.161"
"932","9566.046"
"933","9520.754"
"934","9479.434"
"935","9448.214"
"936","9432.539"
"937","9436.963"
"938","9465.994"
"939","9519.877"
"940","9575.364"
"941","9601.124"
"942","9566.576"
"943","9474.242"
"944","9371.516"
"945","9309.008"
"946","9326.915"
"947","9404.969"
"948","9501.171"
"949","9573.95"
"950","9603.048"
"951","9597.84"
"952","9569.895"
"953","9530.96"
"954","9493.839"
"955","9471.717"
"956","9477.498"
"957","9511.446"
"958","9556.358"
"959","9593.747"
"960","9608.59"
"961","9605.636"
"962","9596.615"
"963","9593.061"
"964","9597.438"
"965","9600.19"
"966","9590.924"
"967","9562.608"
"968","9526.247"
"969","9498.845"
"970","9496.947"
"971","9520.225"
"972","9547.472"
"973","9556.164"
"974","9530.542"
"975","9487.655"
"976","9454.507"
"977","9457.152"
"978","9494.604"
"979","9535.557"
"980","9547.096"
"981","9508.32"
"982","9449.478"
"983","9414.399"
"984","9444.908"
"985","9537.189"
"986","9642.522"
"987","9710.266"
"988","9705.214"
"989","9647.77"
"990","9570.853"
"991","9506.459"
"992","9470.465"
"993","9465.233"
"994","9492.705"
"995","9550.21"
"996","9621.464"
"997","9687.667"
"998","9731.278"
"999","9750.972"
"1000","9756.674"
"1001","9758.519"
"1002","9762.883"
"1003","9767.251"
"1004","9767.824"
"1005","9760.798"
"1006","9743.421"
"1007","9720.003"
"1008","9697.761"
"1009","9683.828"
"1010","9680.434"
"1011","9682.769"
"1012","9685.477"
"1013","9684.569"
"1014","9683.504"
"1015","9688.256"
"1016","9704.555"
"1017","9730.147"
"1018","9753.401"
"1019","9762.148"
"1020","9748.263"
"1021","9720.734"
"1022","9693.074"
"1023","9678.342"
"1024","9680.313"
"1025","9694.179"
"1026","9714.797"
"1027","9738.17"
"1028","9763.925"
"1029","9792.395"
"1030","9823.761"
"1031","9856.215"
"1032","9886.554"
"1033","9911.544"
"1034","9928.846"
"1035","9938.142"
"1036","9939.398"
"1037","9933.356"
"1038","9927.375"
"1039","9932.166"
"1040","9958.312"
"1041","10005.27"
"1042","10054.76"
"1043","10086.88"
"1044","10086.74"
"1045","10067.33"
"1046","10051.26"
"1047","10060.43"
"1048","10096.48"
"1049","10138.82"
"1050","10165.7"
"1051","10162.89"
"1052","10142.59"
"1053","10122.86"
"1054","10120.43"
"1055","10133.79"
"1056","10148.21"
"1057","10148.69"
"1058","10130.81"
"1059","10113.26"
"1060","10117.8"
"1061","10162.07"
"1062","10232.6"
"1063","10301.78"
"1064","10342.37"
"1065","10346.77"
"1066","10333.75"
"1067","10324"
"1068","10332.63"
"1069","10351.42"
"1070","10365.96"
"1071","10362.79"
"1072","10343.81"
"1073","10323.29"
"1074","10315.86"
"1075","10327.34"
"1076","10343.06"
"1077","10345.39"
"1078","10320.38"
"1079","10282"
"1080","10257.04"
"1081","10271.73"
"1082","10324.68"
"1083","10378.75"
"1084","10394.38"
"1085","10347.13"
"1086","10270.53"
"1087","10212.01"
"1088","10215.15"
"1089","10272.08"
"1090","10338.5"
"1091","10369.51"
"1092","10345.6"
"1093","10296.14"
"1094","10256.12"
"1095","10254.02"
"1096","10280.49"
"1097","10312.6"
"1098","10328.15"
"1099","10321.97"
"1100","10305.72"
"1101","10291.74"
"1102","10287.6"
"1103","10288.05"
"1104","10285.72"
"1105","10274.87"
"1106","10263.08"
"1107","10264.29"
"1108","10292.1"
"1109","10344.54"
"1110","10400.03"
"1111","10435.76"
"1112","10437.52"
"1113","10420.41"
"1114","10405.75"
"1115","10412.36"
"1116","10433.29"
"1117","10446.48"
"1118","10429.97"
"1119","10379.68"
"1120","10317.98"
"1121","10269.39"
"1122","10251.8"
"1123","10257.07"
"1124","10270.65"
"1125","10279.24"
"1126","10284.64"
"1127","10298.55"
"1128","10332.62"
"1129","10384.61"
"1130","10430.15"
"1131","10442.88"
"1132","10405.32"
"1133","10336.99"
"1134","10267.05"
"1135","10222.83"
"1136","10209.36"
"1137","10216.83"
"1138","10235.23"
"1139","10259.96"
"1140","10294.88"
"1141","10344.64"
"1142","10408"
"1143","10460.45"
"1144","10471.67"
"1145","10415.9"
"1146","10318.03"
"1147","10234.48"
"1148","10221.29"
"1149","10290.74"
"1150","10392.43"
"1151","10471.04"
"1152","10487.09"
"1153","10455.84"
"1154","10404.43"
"1155","10358.61"
"1156","10331.57"
"1157","10329.81"
"1158","10359.41"
"1159","10414.61"
"1160","10475.44"
"1161","10521.1"
"1162","10539.24"
"1163","10540.74"
"1164","10540.47"
"1165","10550.9"
"1166","10568.24"
"1167","10581.94"
"1168","10581.8"
"1169","10564.73"
"1170","10534.22"
"1171","10494.07"
"1172","10452.05"
"1173","10423.94"
"1174","10426.5"
"1175","10469.61"
"1176","10530.86"
"1177","10578.44"
"1178","10583.44"
"1179","10551.49"
"1180","10510.78"
"1181","10489.49"
"1182","10496.72"
"1183","10515.46"
"1184","10526.82"
"1185","10519.14"
"1186","10502.3"
"1187","10490.17"
"1188","10494.81"
"1189","10516.09"
"1190","10548.81"
"1191","10587.71"
"1192","10627.28"
"1193","10661.74"
"1194","10685.39"
"1195","10697.44"
"1196","10705.82"
"1197","10719.37"
"1198","10743.57"
"1199","10771.37"
"1200","10792.7"
"1201","10798.88"
"1202","10792.36"
"1203","10781.23"
"1204","10773.24"
"1205","10767.53"
"1206","10754.64"
"1207","10724.83"
"1208","10679.65"
"1209","10642.76"
"1210","10640.41"
"1211","10687.83"
"1212","10755.59"
"1213","10802.93"
"1214","10794.36"
"1215","10740.66"
"1216","10676.53"
"1217","10635.84"
"1218","10628.46"
"1219","10640.49"
"1220","10657.13"
"1221","10671.84"
"1222","10693.65"
"1223","10733.26"
"1224","10794.9"
"1225","10858.85"
"1226","10899.87"
"1227","10896.75"
"1228","10858.83"
"1229","10809.41"
"1230","10771.35"
"1231","10757.83"
"1232","10773.88"
"1233","10824.05"
"1234","10899.68"
"1235","10971.8"
"1236","11009.71"
"1237","10996.97"
"1238","10957.84"
"1239","10923.85"
"1240","10920.2"
"1241","10937.08"
"1242","10952.67"
"1243","10947.18"
"1244","10924.35"
"1245","10902.58"
"1246","10899.98"
"1247","10918.95"
"1248","10944.69"
"1249","10961.56"
"1250","10963.7"
"1251","10963.98"
"1252","10977.36"
"1253","11010.84"
"1254","11043.67"
"1255","11049.09"
"1256","11007.59"
"1257","10946"
"1258","10909.44"
"1259","10938.74"
"1260","11020.41"
"1261","11103.97"
"1262","11139.55"
"1263","11117.23"
"1264","11072.58"
"1265","11043.49"
"1266","11051.02"
"1267","11084.21"
"1268","11128.51"
"1269","11169.69"
"1270","11194.64"
"1271","11190.48"
"1272","11148.82"
"1273","11086.96"
"1274","11031.31"
"1275","11006.32"
"1276","11016.22"
"1277","11053.35"
"1278","11109.43"
"1279","11166.63"
"1280","11198.12"
"1281","11177.12"
"1282","11101.51"
"1283","11005.98"
"1284","10928.24"
"1285","10892.13"
"1286","10888.19"
"1287","10902.04"
"1288","10921.28"
"1289","10941.26"
"1290","10959.25"
"1291","10972.43"
"1292","10977.63"
"1293","10971.54"
"1294","10951.99"
"1295","10929.9"
"1296","10924.36"
"1297","10953.62"
"1298","11015"
"1299","11085.93"
"1300","11143.22"
"1301","11172.35"
"1302","11171.26"
"1303","11138.88"
"1304","11083.81"
"1305","11035.46"
"1306","11026"
"1307","11073.55"
"1308","11149.76"
"1309","11216.66"
"1310","11242.96"
"1311","11231.88"
"1312","11197.63"
"1313","11153.85"
"1314","11109.31"
"1315","11070.49"
"1316","11043.68"
"1317","11033.06"
"1318","11041.33"
"1319","11070.77"
"1320","11114.46"
"1321","11156.35"
"1322","11180.17"
"1323","11179.34"
"1324","11160.92"
"1325","11132.98"
"1326","11103.99"
"1327","11083.19"
"1328","11079.93"
"1329","11097.91"
"1330","11124.87"
"1331","11145.74"
"1332","11150.02"
"1333","11145.87"
"1334","11146.22"
"1335","11161.69"
"1336","11189.4"
"1337","11221.56"
"1338","11250.66"
"1339","11271.58"
"1340","11280.42"
"1341","11274.19"
"1342","11261.17"
"1343","11257.36"
"1344","11277.63"
"1345","11312.8"
"1346","11331.87"
"1347","11303.93"
"1348","11227.49"
"1349","11136.12"
"1350","11065.25"
"1351","11036.72"
"1352","11051.06"
"1353","11106.86"
"1354","11191.32"
"1355","11268.24"
"1356","11298.6"
"1357","11262.03"
"1358","11188.25"
"1359","11115.33"
"1360","11071.69"
"1361","11051.66"
"1362","11042.09"
"1363","11033.1"
"1364","11029.8"
"1365","11041.66"
"1366","11075"
"1367","11117.54"
"1368","11150.09"
"1369","11155.82"
"1370","11136.61"
"1371","11103.04"
"1372","11065.75"
"1373","11035.23"
"1374","11021.91"
"1375","11034.66"
"1376","11061.42"
"1377","11075.16"
"1378","11050.42"
"1379","10995.13"
"1380","10946.07"
"1381","10939.43"
"1382","10971.36"
"1383","10996.53"
"1384","10969.03"
"1385","10891.18"
"1386","10824.77"
"1387","10834.32"
"1388","10929.89"
"1389","11042.18"
"1390","11096.12"
"1391","11063.54"
"1392","10996.71"
"1393","10955.61"
"1394","10969.72"
"1395","11007.42"
"1396","11029.82"
"1397","11015.39"
"1398","10982.86"
"1399","10956.7"
"1400","10952.5"
"1401","10961.96"
"1402","10972.8"
"1403","10975.27"
"1404","10967.47"
"1405","10948.99"
"1406","10922.59"
"1407","10902.24"
"1408","10904.36"
"1409","10938.87"
"1410","10989.92"
"1411","11035.25"
"1412","11056.99"
"1413","11057.03"
"1414","11042.72"
"1415","11020.51"
"1416","10992.37"
"1417","10958.91"
"1418","10922.61"
"1419","10896.13"
"1420","10895.57"
"1421","10932.27"
"1422","10989.3"
"1423","11039.38"
"1424","11059.29"
"1425","11052.3"
"1426","11032.13"
"1427","11010.92"
"1428","10989.81"
"1429","10965.34"
"1430","10936.43"
"1431","10919.3"
"1432","10937.84"
"1433","11010.09"
"1434","11108.82"
"1435","11185.88"
"1436","11200.1"
"1437","11166.88"
"1438","11128.67"
"1439","11123.2"
"1440","11148.16"
"1441","11181.58"
"1442","11203.13"
"1443","11207.5"
"1444","11196.85"
"1445","11174.22"
"1446","11149.64"
"1447","11136.68"
"1448","11147.62"
"1449","11183.54"
"1450","11239.95"
"1451","11309.91"
"1452","11366.83"
"1453","11374.3"
"1454","11303.44"
"1455","11187.69"
"1456","11091.05"
"1457","11068.48"
"1458","11101.88"
"1459","11138.3"
"1460","11131.28"
"1461","11085.43"
"1462","11028.86"
"1463","10986.42"
"1464","10958.44"
"1465","10934.45"
"1466","10905.64"
"1467","10874.77"
"1468","10849.43"
"1469","10834.95"
"1470","10822.14"
"1471","10796.15"
"1472","10745.64"
"1473","10680.1"
"1474","10616.61"
"1475","10571.55"
"1476","10557.37"
"1477","10585.22"
"1478","10657.88"
"1479","10737.18"
"1480","10772.42"
"1481","10727.34"
"1482","10629.91"
"1483","10525.82"
"1484","10452.97"
"1485","10418.29"
"1486","10421.11"
"1487","10454.03"
"1488","10486.41"
"1489","10482.46"
"1490","10424.34"
"1491","10349.42"
"1492","10305.62"
"1493","10321.41"
"1494","10372.87"
"1495","10427.42"
"1496","10460.53"
"1497","10466.44"
"1498","10442.13"
"1499","10394.86"
"1500","10352.57"
"1501","10345.38"
"1502","10380"
"1503","10422.69"
"1504","10436.21"
"1505","10411.01"
"1506","10378.38"
"1507","10372.13"
"1508","10397.13"
"1509","10422.09"
"1510","10414.77"
"1511","10377.57"
"1512","10349.49"
"1513","10368.69"
"1514","10424.69"
"1515","10464.06"
"1516","10436.57"
"1517","10358.38"
"1518","10294.38"
"1519","10303.66"
"1520","10371.56"
"1521","10439"
"1522","10452.89"
"1523","10414.6"
"1524","10352.08"
"1525","10291.24"
"1526","10243.73"
"1527","10215.67"
"1528","10211.06"
"1529","10223.56"
"1530","10243.63"
"1531","10262.26"
"1532","10272.3"
"1533","10267.05"
"1534","10245.84"
"1535","10225.46"
"1536","10225.8"
"1537","10252.41"
"1538","10278.86"
"1539","10274.65"
"1540","10232.13"
"1541","10182.9"
"1542","10161.78"
"1543","10176.2"
"1544","10197.36"
"1545","10195.12"
"1546","10167.12"
"1547","10139.22"
"1548","10136.6"
"1549","10155.27"
"1550","10168.62"
"1551","10153.03"
"1552","10121.08"
"1553","10106.39"
"1554","10135.97"
"1555","10188.16"
"1556","10220.43"
"1557","10199.84"
"1558","10141.67"
"1559","10076.09"
"1560","10027.94"
"1561","10003.12"
"1562","10003.4"
"1563","10026.03"
"1564","10057.11"
"1565","10081.06"
"1566","10087.45"
"1567","10074.9"
"1568","10043.03"
"1569","9995.069"
"1570","9938.825"
"1571","9882.651"
"1572","9840.134"
"1573","9829.588"
"1574","9866.735"
"1575","9935.229"
"1576","9998.14"
"1577","10022.73"
"1578","10009.88"
"1579","9975.454"
"1580","9935.075"
"1581","9902.88"
"1582","9892.584"
"1583","9911.313"
"1584","9945.379"
"1585","9976.986"
"1586","9994.986"
"1587","10002.2"
"1588","10003.24"
"1589","10002.92"
"1590","10006.42"
"1591","10018.36"
"1592","10031.4"
"1593","10026.65"
"1594","9987.737"
"1595","9932.96"
"1596","9903.092"
"1597","9931.131"
"1598","9993.145"
"1599","10041.03"
"1600","10038.25"
"1601","9998.338"
"1602","9948.269"
"1603","9909.207"
"1604","9886.748"
"1605","9883.836"
"1606","9897.365"
"1607","9913.948"
"1608","9919.791"
"1609","9917.502"
"1610","9927.676"
"1611","9969.246"
"1612","10027.07"
"1613","10061.93"
"1614","10041.93"
"1615","9992.19"
"1616","9963.051"
"1617","9990.733"
"1618","10050.62"
"1619","10101.91"
"1620","10115.91"
"1621","10094.73"
"1622","10045.34"
"1623","9981.87"
"1624","9929.397"
"1625","9912.892"
"1626","9934.622"
"1627","9975.232"
"1628","10015.18"
"1629","10041.96"
"1630","10047.17"
"1631","10026.81"
"1632","10001.03"
"1633","9998.251"
"1634","10034.38"
"1635","10086.36"
"1636","10123.63"
"1637","10125.71"
"1638","10090.13"
"1639","10017.27"
"1640","9931.26"
"1641","9881.608"
"1642","9913.02"
"1643","10001.9"
"1644","10081.67"
"1645","10098.06"
"1646","10072.25"
"1647","10052.45"
"1648","10070.27"
"1649","10105.46"
"1650","10127.94"
"1651","10125"
"1652","10114.05"
"1653","10114.71"
"1654","10128.78"
"1655","10140.35"
"1656","10134.81"
"1657","10117.21"
"1658","10103.68"
"1659","10104.75"
"1660","10102.98"
"1661","10072.47"
"1662","10005.64"
"1663","9941.418"
"1664","9925.221"
"1665","9963.589"
"1666","10009.38"
"1667","10014.63"
"1668","9978.467"
"1669","9936.101"
"1670","9918.715"
"1671","9924.034"
"1672","9936.008"
"1673","9941.253"
"1674","9935.501"
"1675","9916.414"
"1676","9884.792"
"1677","9846.832"
"1678","9809.202"
"1679","9777.009"
"1680","9753.932"
"1681","9742.649"
"1682","9738.122"
"1683","9731.537"
"1684","9716.292"
"1685","9694.446"
"1686","9670.147"
"1687","9646.304"
"1688","9623.471"
"1689","9601.788"
"1690","9578.183"
"1691","9546.387"
"1692","9502.14"
"1693","9459.677"
"1694","9442.676"
"1695","9462.446"
"1696","9481.493"
"1697","9450.653"
"1698","9360.343"
"1699","9275.296"
"1700","9265.459"
"1701","9336.122"
"1702","9431.287"
"1703","9497.435"
"1704","9520.213"
"1705","9503.714"
"1706","9457.674"
"1707","9411.075"
"1708","9396.769"
"1709","9421.206"
"1710","9447.519"
"1711","9437.479"
"1712","9396.913"
"1713","9367.259"
"1714","9381.756"
"1715","9415.639"
"1716","9421.795"
"1717","9374.195"
"1718","9304.799"
"1719","9254.805"
"1720","9240.553"
"1721","9246.534"
"1722","9255.929"
"1723","9260.634"
"1724","9257.894"
"1725","9245.896"
"1726","9226.659"
"1727","9203.277"
"1728","9182.234"
"1729","9176.5"
"1730","9198.899"
"1731","9245.015"
"1732","9294.962"
"1733","9330.013"
"1734","9343.019"
"1735","9331.547"
"1736","9298.598"
"1737","9262.043"
"1738","9241.97"
"1739","9245.952"
"1740","9266.236"
"1741","9293.854"
"1742","9317.33"
"1743","9323.776"
"1744","9306.939"
"1745","9285.455"
"1746","9283.422"
"1747","9300.88"
"1748","9299.942"
"1749","9243.788"
"1750","9154.173"
"1751","9094.123"
"1752","9109.978"
"1753","9164.453"
"1754","9195.744"
"1755","9175.887"
"1756","9141.757"
"1757","9134.983"
"1758","9153.007"
"1759","9156.485"
"1760","9114.376"
"1761","9048.835"
"1762","9000.522"
"1763","8991.56"
"1764","9003.494"
"1765","9013.14"
"1766","9010.576"
"1767","8998.134"
"1768","8980.316"
"1769","8972.256"
"1770","8993.131"
"1771","9049.005"
"1772","9115.293"
"1773","9163.708"
"1774","9181.354"
"1775","9170.183"
"1776","9132.806"
"1777","9072.188"
"1778","8991.487"
"1779","8905.514"
"1780","8856.262"
"1781","8886.99"
"1782","8984.408"
"1783","9081.754"
"1784","9120.559"
"1785","9106.2"
"1786","9067.996"
"1787","9033.115"
"1788","9023.798"
"1789","9059.633"
"1790","9122.981"
"1791","9163.692"
"1792","9143.268"
"1793","9092.323"
"1794","9064.491"
"1795","9083.687"
"1796","9116.394"
"1797","9125.12"
"1798","9110.995"
"1799","9104.394"
"1800","9126.138"
"1801","9150.81"
"1802","9140.482"
"1803","9087.775"
"1804","9034.175"
"1805","9020.979"
"1806","9038.26"
"1807","9044.466"
"1808","9012.535"
"1809","8967.508"
"1810","8945.199"
"1811","8960.391"
"1812","9001.529"
"1813","9054.267"
"1814","9095.687"
"1815","9098.847"
"1816","9053.557"
"1817","8992.172"
"1818","8952.719"
"1819","8951.983"
"1820","8987.096"
"1821","9050.638"
"1822","9115.127"
"1823","9146.546"
"1824","9125.339"
"1825","9057.493"
"1826","8954.061"
"1827","8854.307"
"1828","8815.706"
"1829","8869.503"
"1830","8955.834"
"1831","8997.051"
"1832","8972.813"
"1833","8930.035"
"1834","8912.794"
"1835","8919.362"
"1836","8929.11"
"1837","8929.068"
"1838","8922.615"
"1839","8915.743"
"1840","8921.922"
"1841","8960.186"
"1842","9035.643"
"1843","9099.17"
"1844","9090.148"
"1845","9011.01"
"1846","8943.752"
"1847","8959.731"
"1848","9017.574"
"1849","9027.423"
"1850","8953.622"
"1851","8876.214"
"1852","8882.589"
"1853","8955.987"
"1854","9004.449"
"1855","8969.331"
"1856","8918.955"
"1857","8947.209"
"1858","9049.409"
"1859","9107.199"
"1860","9025.529"
"1861","8891.933"
"1862","8862.001"
"1863","8984.019"
"1864","9112.132"
"1865","9097.107"
"1866","8971.633"
"1867","8876.911"
"1868","8897.489"
"1869","8953.41"
"1870","8941.242"
"1871","8863.43"
"1872","8817.353"
"1873","8871.67"
"1874","8953.149"
"1875","8951.645"
"1876","8847.006"
"1877","8736.842"
"1878","8711.84"
"1879","8760.716"
"1880","8830.198"
"1881","8884.702"
"1882","8922.171"
"1883","8944.224"
"1884","8952.366"
"1885","8948.05"
"1886","8934.27"
"1887","8918.135"
"1888","8907.248"
"1889","8905.938"
"1890","8915.874"
"1891","8935.078"
"1892","8948.243"
"1893","8937.624"
"1894","8904.711"
"1895","8871.887"
"1896","8858.489"
"1897","8862.55"
"1898","8875.271"
"1899","8888.102"
"1900","8892.861"
"1901","8883.219"
"1902","8865.601"
"1903","8851.798"
"1904","8849.198"
"1905","8857.159"
"1906","8871.646"
"1907","8865.303"
"1908","8798.375"
"1909","8674.387"
"1910","8595.135"
"1911","8663.715"
"1912","8832.569"
"1913","8954.43"
"1914","8938.816"
"1915","8858.97"
"1916","8812.011"
"1917","8823.177"
"1918","8860.85"
"1919","8894.153"
"1920","8900.139"
"1921","8859.073"
"1922","8783.586"
"1923","8716.119"
"1924","8689.632"
"1925","8695.067"
"1926","8712.92"
"1927","8720.901"
"1928","8693.821"
"1929","8621.775"
"1930","8564.08"
"1931","8596.61"
"1932","8704.184"
"1933","8766.122"
"1934","8691.963"
"1935","8572.191"
"1936","8550.31"
"1937","8648.693"
"1938","8737.86"
"1939","8710.07"
"1940","8627.63"
"1941","8607.716"
"1942","8680.92"
"1943","8763.179"
"1944","8780.192"
"1945","8758.41"
"1946","8758.435"
"1947","8789.222"
"1948","8789.254"
"1949","8710.122"
"1950","8608.794"
"1951","8578.358"
"1952","8638.09"
"1953","8705.965"
"1954","8706.563"
"1955","8645.415"
"1956","8556.752"
"1957","8473.97"
"1958","8429.242"
"1959","8445.454"
"1960","8494.232"
"1961","8530.279"
"1962","8535.595"
"1963","8527.424"
"1964","8522.232"
"1965","8520.16"
"1966","8515.923"
"1967","8498.814"
"1968","8451.602"
"1969","8368.978"
"1970","8303.907"
"1971","8324.104"
"1972","8425.313"
"1973","8523.916"
"1974","8550.15"
"1975","8510.604"
"1976","8431.992"
"1977","8342.214"
"1978","8270.334"
"1979","8237.547"
"1980","8235.923"
"1981","8251.271"
"1982","8276.307"
"1983","8309.652"
"1984","8344.643"
"1985","8357.835"
"1986","8325.466"
"1987","8264.752"
"1988","8222.805"
"1989","8229.401"
"1990","8268.358"
"1991","8316.119"
"1992","8347.764"
"1993","8337.687"
"1994","8288.842"
"1995","8262.919"
"1996","8315.685"
"1997","8394.286"
"1998","8394.03"
"1999","8294.204"
"2000","8212.253"
"2001","8252.002"
"2002","8352.859"
"2003","8393.604"
"2004","8328.297"
"2005","8207.579"
"2006","8088.878"
"2007","8030.917"
"2008","8088.5"
"2009","8216.617"
"2010","8272.254"
"2011","8168.399"
"2012","8019.305"
"2013","7971.22"
"2014","8026.907"
"2015","8083.711"
"2016","8072.084"
"2017","8007.905"
"2018","7921.757"
"2019","7863.859"
"2020","7894.333"
"2021","8017.423"
"2022","8142.189"
"2023","8182.501"
"2024","8138.944"
"2025","8044.525"
"2026","7933.046"
"2027","7839.165"
"2028","7793.863"
"2029","7812.727"
"2030","7904.051"
"2031","8017.806"
"2032","8055.64"
"2033","7972.271"
"2034","7864.836"
"2035","7841.427"
"2036","7892.261"
"2037","7942.269"
"2038","7948.193"
"2039","7922.237"
"2040","7882.282"
"2041","7847.606"
"2042","7837.019"
"2043","7840.614"
"2044","7816.681"
"2045","7742.367"
"2046","7666.647"
"2047","7649.938"
"2048","7694.435"
"2049","7761.14"
"2050","7814.362"
"2051","7827.431"
"2052","7781.3"
"2053","7703.776"
"2054","7642.234"
"2055","7610.729"
"2056","7580.309"
"2057","7532.776"
"2058","7504.682"
"2059","7542.638"
"2060","7635.223"
"2061","7725.875"
"2062","7777.138"
"2063","7797.778"
"2064","7798.458"
"2065","7756.484"
"2066","7635.535"
"2067","7460.298"
"2068","7334.98"
"2069","7337.562"
"2070","7420.269"
"2071","7506.513"
"2072","7553.792"
"2073","7545.087"
"2074","7481.315"
"2075","7399.836"
"2076","7341.435"
"2077","7337.951"
"2078","7415.838"
"2079","7546.625"
"2080","7638.724"
"2081","7624.706"
"2082","7529.747"
"2083","7400.461"
"2084","7307.027"
"2085","7333.256"
"2086","7470.665"
"2087","7553.889"
"2088","7451.534"
"2089","7283.502"
"2090","7240.288"
"2091","7341.388"
"2092","7454.584"
"2093","7489.756"
"2094","7471.931"
"2095","7440.749"
"2096","7417.286"
"2097","7413.677"
"2098","7419.952"
"2099","7399.618"
"2100","7332.338"
"2101","7256.948"
"2102","7219.545"
"2103","7212.07"
"2104","7194.564"
"2105","7152.2"
"2106","7110"
"2107","7092.306"
"2108","7105.06"
"2109","7148.549"
"2110","7213.585"
"2111","7283.768"
"2112","7330.987"
"2113","7305.046"
"2114","7175.673"
"2115","7035.87"
"2116","7013.481"
"2117","7096.218"
"2118","7146.572"
"2119","7083.242"
"2120","6964.273"
"2121","6863.993"
"2122","6834.843"
"2123","6917.134"
"2124","7066.368"
"2125","7151.775"
"2126","7095.919"
"2127","6970.303"
"2128","6863.696"
"2129","6814.856"
"2130","6838.449"
"2131","6893.404"
"2132","6877.13"
"2133","6741.313"
"2134","6598.722"
"2135","6572.08"
"2136","6640.771"
"2137","6718.217"
"2138","6761.232"
"2139","6776.981"
"2140","6778.422"
"2141","6787.043"
"2142","6818.958"
"2143","6835.617"
"2144","6775.389"
"2145","6661.203"
"2146","6612.407"
"2147","6694.022"
"2148","6804.428"
"2149","6827.797"
"2150","6760.427"
"2151","6649.55"
"2152","6545.011"
"2153","6499.124"
"2154","6536.134"
"2155","6607.279"
"2156","6656.884"
"2157","6662.479"
"2158","6616.363"
"2159","6534.892"
"2160","6457.861"
"2161","6420.024"
"2162","6442.13"
"2163","6527.295"
"2164","6587.749"
"2165","6512.019"
"2166","6347.638"
"2167","6275.601"
"2168","6364.14"
"2169","6456.061"
"2170","6413.595"
"2171","6313.992"
"2172","6288.667"
"2173","6345.204"
"2174","6405.156"
"2175","6417.241"
"2176","6375.396"
"2177","6287.994"
"2178","6202.044"
"2179","6166.637"
"2180","6165.227"
"2181","6147.176"
"2182","6128.307"
"2183","6205.346"
"2184","6395.08"
"2185","6482.537"
"2186","6269.034"
"2187","5930.482"
"2188","5782.074"
"2189","5860.229"
"2190","5949.402"
"2191","5933.806"
"2192","5911.977"
"2193","5976.399"
"2194","6076.75"
"2195","6128.937"
"2196","6132.171"
"2197","6138.226"
"2198","6148.534"
"2199","6094.431"
"2200","5945.435"
"2201","5801.735"
"2202","5768.734"
"2203","5811.771"
"2204","5838.139"
"2205","5810.959"
"2206","5745.217"
"2207","5665.041"
"2208","5608.419"
"2209","5607.976"
"2210","5665.596"
"2211","5766.963"
"2212","5816.346"
"2213","5675.574"
"2214","5415.373"
"2215","5362.176"
"2216","5666.901"
"2217","5989.557"
"2218","5988.64"
"2219","5765.806"
"2220","5569.663"
"2221","5489.353"
"2222","5494.692"
"2223","5539.419"
"2224","5557.506"
"2225","5510.181"
"2226","5450.258"
"2227","5440.3"
"2228","5483.57"
"2229","5555.922"
"2230","5596.909"
"2231","5515.782"
"2232","5312.785"
"2233","5146.32"
"2234","5139.096"
"2235","5228.648"
"2236","5313.346"
"2237","5311.405"
"2238","5158.34"
"2239","4955.315"
"2240","4956.184"
"2241","5214.412"
"2242","5407.166"
"2243","5291.359"
"2244","5074.692"
"2245","5032.727"
"2246","5132.957"
"2247","5198.787"
"2248","5151.933"
"2249","5007.366"
"2250","4813.415"
"2251","4671.585"
"2252","4651.831"
"2253","4689.854"
"2254","4702.323"
"2255","4691.431"
"2256","4696.604"
"2257","4724.341"
"2258","4752.133"
"2259","4748.743"
"2260","4670.382"
"2261","4507.766"
"2262","4365.191"
"2263","4346.317"
"2264","4402.061"
"2265","4426.936"
"2266","4383.698"
"2267","4287.207"
"2268","4175.132"
"2269","4114.844"
"2270","4130.451"
"2271","4127.256"
"2272","4016.215"
"2273","3837.459"
"2274","3668.394"
"2275","3539.995"
"2276","3455.922"
"2277","3441.948"
"2278","3547.901"
"2279","3735.122"
"2280","3786.045"
"2281","3558.411"
"2282","3277.449"
"2283","3208.074"
"2284","3257.377"
"2285","3186.282"
"2286","3007.019"
"2287","2933.434"
"2288","3012.61"
"2289","3043.672"
"2290","2915.983"
"2291","2803.589"
"2292","2862.934"
"2293","2939.208"
"2294","2810.453"
"2295","2527.09"
"2296","2286.088"
"2297","2166.27"
"2298","2129.84"
"2299","2134.433"
"2300","2138.208"
