,"Scan 00943"
"400","10676.37"
"401","10648.74"
"402","10604.71"
"403","10560.04"
"404","10530.4"
"405","10529.51"
"406","10555.54"
"407","10598.77"
"408","10649.5"
"409","10698.42"
"410","10740.78"
"411","10774.96"
"412","10799.45"
"413","10812.85"
"414","10816.59"
"415","10814.68"
"416","10811.23"
"417","10810.24"
"418","10813.93"
"419","10822.37"
"420","10835.44"
"421","10853.02"
"422","10872.49"
"423","10887.23"
"424","10890.3"
"425","10874.84"
"426","10840.39"
"427","10799.72"
"428","10767.24"
"429","10757.19"
"430","10777.68"
"431","10820.33"
"432","10874.06"
"433","10927.88"
"434","10973.16"
"435","11009.26"
"436","11037.24"
"437","11058.19"
"438","11072.59"
"439","11078.53"
"440","11073.4"
"441","11054.65"
"442","11021.48"
"443","10982.91"
"444","10951.18"
"445","10938.47"
"446","10954.47"
"447","10992.49"
"448","11039.12"
"449","11081.02"
"450","11106.17"
"451","11112.74"
"452","11103.92"
"453","11082.92"
"454","11053.13"
"455","11020.15"
"456","10990.79"
"457","10971.86"
"458","10969.38"
"459","10980.8"
"460","10997.87"
"461","11012.29"
"462","11016.22"
"463","11007.33"
"464","10987.49"
"465","10958.62"
"466","10922.89"
"467","10886.57"
"468","10859.33"
"469","10850.89"
"470","10870.2"
"471","10911.96"
"472","10957.9"
"473","10989.32"
"474","10988.6"
"475","10959.05"
"476","10924.77"
"477","10910.63"
"478","10940.33"
"479","11011.97"
"480","11096.53"
"481","11163.85"
"482","11184.8"
"483","11154.72"
"484","11096.29"
"485","11033.46"
"486","10989.6"
"487","10973.18"
"488","10975.4"
"489","10986.53"
"490","10997"
"491","10999.95"
"492","10991.79"
"493","10969.13"
"494","10928.75"
"495","10872.77"
"496","10809.74"
"497","10748.53"
"498","10697.8"
"499","10660.84"
"500","10634.47"
"501","10615.12"
"502","10599.23"
"503","10582.55"
"504","10559.98"
"505","10526.38"
"506","10476.85"
"507","10412.13"
"508","10339.46"
"509","10266.42"
"510","10200.45"
"511","10146.84"
"512","10108.46"
"513","10088.06"
"514","10088.06"
"515","10103.37"
"516","10121.01"
"517","10127.71"
"518","10110.75"
"519","10068.73"
"520","10011.29"
"521","9948.452"
"522","9890.058"
"523","9842.819"
"524","9810.642"
"525","9797.312"
"526","9806.031"
"527","9830.683"
"528","9857.513"
"529","9872.612"
"530","9863.255"
"531","9832.236"
"532","9793.767"
"533","9762.236"
"534","9750.793"
"535","9758.607"
"536","9775.778"
"537","9792.301"
"538","9798.957"
"539","9793.827"
"540","9779.125"
"541","9757.099"
"542","9730.274"
"543","9703.523"
"544","9682.842"
"545","9674.197"
"546","9682.276"
"547","9703.303"
"548","9730.069"
"549","9755.391"
"550","9772.798"
"551","9779.56"
"552","9774.205"
"553","9755.281"
"554","9723.431"
"555","9688.502"
"556","9662.822"
"557","9658.65"
"558","9682.736"
"559","9722.694"
"560","9762.037"
"561","9784.357"
"562","9779.989"
"563","9757.656"
"564","9729.166"
"565","9706.248"
"566","9696.695"
"567","9699.856"
"568","9714.002"
"569","9737.376"
"570","9765.787"
"571","9790.951"
"572","9804.231"
"573","9797.223"
"574","9769.104"
"575","9728.921"
"576","9686.33"
"577","9650.821"
"578","9628.881"
"579","9624.002"
"580","9639.526"
"581","9678.179"
"582","9733.731"
"583","9793.174"
"584","9843.386"
"585","9872.607"
"586","9881.962"
"587","9879.855"
"588","9874.751"
"589","9874.129"
"590","9879.179"
"591","9888.498"
"592","9900.674"
"593","9913.951"
"594","9924.907"
"595","9929.65"
"596","9924.307"
"597","9907.554"
"598","9886.242"
"599","9868.834"
"600","9863.728"
"601","9873.316"
"602","9886.729"
"603","9891.355"
"604","9874.811"
"605","9834.86"
"606","9784.846"
"607","9739.392"
"608","9712.692"
"609","9709.43"
"610","9724.136"
"611","9750.863"
"612","9783.777"
"613","9818.137"
"614","9850.027"
"615","9875.566"
"616","9891.325"
"617","9897.552"
"618","9896.314"
"619","9889.676"
"620","9879.397"
"621","9865.72"
"622","9848.386"
"623","9827.143"
"624","9802.563"
"625","9777.845"
"626","9756.708"
"627","9742.833"
"628","9737.529"
"629","9737.317"
"630","9738.155"
"631","9736.12"
"632","9731.266"
"633","9728.761"
"634","9734.109"
"635","9752.362"
"636","9781.444"
"637","9813.392"
"638","9840.102"
"639","9854.547"
"640","9858.962"
"641","9860.366"
"642","9865.797"
"643","9880.272"
"644","9898.893"
"645","9913.693"
"646","9916.747"
"647","9904.568"
"648","9886.403"
"649","9873.732"
"650","9877.874"
"651","9901.1"
"652","9930.377"
"653","9951.247"
"654","9949.803"
"655","9924.403"
"656","9885.831"
"657","9845.385"
"658","9813.954"
"659","9798.287"
"660","9802.652"
"661","9831.261"
"662","9885.005"
"663","9946.526"
"664","9992.252"
"665","9998.687"
"666","9954.646"
"667","9885.344"
"668","9822.656"
"669","9798.082"
"670","9823.668"
"671","9879.536"
"672","9942.905"
"673","9991.719"
"674","10017.7"
"675","10025.39"
"676","10019.79"
"677","10005.93"
"678","9989.054"
"679","9974.48"
"680","9967.529"
"681","9972.09"
"682","9985.859"
"683","10004.83"
"684","10025.04"
"685","10043.19"
"686","10057.55"
"687","10066.59"
"688","10068.87"
"689","10065.75"
"690","10061.93"
"691","10062.29"
"692","10071.19"
"693","10087.22"
"694","10105.2"
"695","10119.95"
"696","10127.31"
"697","10128.7"
"698","10127.32"
"699","10126.38"
"700","10127.91"
"701","10131"
"702","10134.29"
"703","10136.45"
"704","10137.52"
"705","10139.29"
"706","10143.63"
"707","10152.2"
"708","10163.67"
"709","10174.79"
"710","10182.29"
"711","10183.66"
"712","10180.35"
"713","10175.07"
"714","10170.53"
"715","10168.53"
"716","10168.79"
"717","10170.71"
"718","10173.8"
"719","10180.39"
"720","10196.12"
"721","10226.78"
"722","10276.54"
"723","10333.98"
"724","10378.87"
"725","10390.92"
"726","10357.87"
"727","10300.23"
"728","10246.88"
"729","10226.47"
"730","10249.6"
"731","10293.72"
"732","10332.78"
"733","10342.13"
"734","10321.5"
"735","10291.78"
"736","10274.56"
"737","10287.2"
"738","10319.97"
"739","10352.28"
"740","10363.61"
"741","10343.78"
"742","10310.77"
"743","10287.2"
"744","10295.07"
"745","10336.23"
"746","10388.2"
"747","10427.04"
"748","10431.88"
"749","10409.85"
"750","10383.51"
"751","10375.55"
"752","10400.77"
"753","10445.28"
"754","10488.64"
"755","10510.71"
"756","10505.94"
"757","10491.25"
"758","10485.43"
"759","10505.6"
"760","10548.38"
"761","10596.53"
"762","10632.54"
"763","10643.08"
"764","10633.19"
"765","10613.06"
"766","10592.84"
"767","10579.79"
"768","10576.16"
"769","10583.63"
"770","10603.6"
"771","10633.33"
"772","10666.92"
"773","10698.4"
"774","10722.99"
"775","10741.85"
"776","10757.88"
"777","10774"
"778","10791.9"
"779","10810.94"
"780","10830.24"
"781","10848.95"
"782","10867.04"
"783","10885.06"
"784","10903.58"
"785","10922.66"
"786","10939.85"
"787","10951.92"
"788","10955.71"
"789","10950.14"
"790","10937.93"
"791","10922.22"
"792","10906.14"
"793","10892.95"
"794","10886.04"
"795","10888.8"
"796","10903.53"
"797","10927.95"
"798","10958.55"
"799","10991.8"
"800","11023.92"
"801","11050.74"
"802","11068.03"
"803","11072.35"
"804","11068.48"
"805","11066.23"
"806","11075.49"
"807","11101.79"
"808","11135.63"
"809","11164.32"
"810","11175.43"
"811","11167.47"
"812","11152.6"
"813","11143.82"
"814","11152.27"
"815","11174.28"
"816","11199.24"
"817","11216.52"
"818","11219.6"
"819","11212.42"
"820","11200.54"
"821","11189.35"
"822","11180.69"
"823","11173.19"
"824","11165.33"
"825","11156.72"
"826","11152.73"
"827","11160.67"
"828","11187.7"
"829","11232.43"
"830","11278.75"
"831","11309.09"
"832","11307.95"
"833","11282.45"
"834","11253.77"
"835","11243.25"
"836","11264.96"
"837","11309.47"
"838","11362.62"
"839","11410.41"
"840","11442.87"
"841","11454.4"
"842","11439.62"
"843","11396.09"
"844","11338.9"
"845","11289.71"
"846","11270.06"
"847","11289.04"
"848","11332.59"
"849","11384.11"
"850","11427.91"
"851","11458.3"
"852","11475.99"
"853","11481.8"
"854","11477.8"
"855","11469.99"
"856","11465.14"
"857","11469.73"
"858","11482.81"
"859","11495.82"
"860","11499.87"
"861","11488.95"
"862","11472.27"
"863","11464.08"
"864","11478.45"
"865","11518.58"
"866","11570.44"
"867","11618.5"
"868","11648.84"
"869","11661.49"
"870","11663.73"
"871","11662.88"
"872","11665.24"
"873","11674.61"
"874","11694.42"
"875","11727.56"
"876","11768.93"
"877","11807.29"
"878","11831.26"
"879","11833.66"
"880","11822.4"
"881","11808.74"
"882","11803.74"
"883","11812.46"
"884","11833.5"
"885","11865.17"
"886","11904.54"
"887","11942.42"
"888","11967.55"
"889","11968.91"
"890","11947.83"
"891","11923.72"
"892","11917.45"
"893","11946.34"
"894","12001.63"
"895","12062.83"
"896","12109.49"
"897","12130.79"
"898","12134.66"
"899","12131.16"
"900","12129.65"
"901","12132.06"
"902","12135.96"
"903","12138.87"
"904","12138.86"
"905","12135.42"
"906","12128.25"
"907","12117.29"
"908","12105.65"
"909","12098.76"
"910","12102.14"
"911","12119.28"
"912","12147.36"
"913","12182.31"
"914","12220.05"
"915","12255.79"
"916","12284.17"
"917","12299.79"
"918","12298.68"
"919","12282.27"
"920","12253.32"
"921","12214.71"
"922","12173.49"
"923","12140.97"
"924","12128.68"
"925","12144.58"
"926","12180.71"
"927","12224.63"
"928","12264.05"
"929","12291.78"
"930","12306.59"
"931","12307.59"
"932","12294.78"
"933","12272.79"
"934","12247.68"
"935","12225.44"
"936","12208.5"
"937","12194.79"
"938","12181.93"
"939","12168.32"
"940","12156.79"
"941","12151.65"
"942","12157.16"
"943","12173.14"
"944","12193.51"
"945","12211.74"
"946","12221.9"
"947","12221.48"
"948","12209.2"
"949","12183.9"
"950","12149.71"
"951","12118.12"
"952","12101.17"
"953","12108.24"
"954","12133.03"
"955","12163.54"
"956","12187.95"
"957","12201.39"
"958","12208.63"
"959","12215.15"
"960","12224.81"
"961","12232.43"
"962","12229.58"
"963","12208.07"
"964","12170.17"
"965","12131.96"
"966","12110.47"
"967","12118.73"
"968","12148.17"
"969","12183"
"970","12207.71"
"971","12215.34"
"972","12209.61"
"973","12194.89"
"974","12175.41"
"975","12154.8"
"976","12136.48"
"977","12123.78"
"978","12117.29"
"979","12114.56"
"980","12112.96"
"981","12110.37"
"982","12106.85"
"983","12103.05"
"984","12099.58"
"985","12096.6"
"986","12093.83"
"987","12090.96"
"988","12088.08"
"989","12086.64"
"990","12088.43"
"991","12095.07"
"992","12105.54"
"993","12116.6"
"994","12124.95"
"995","12128.91"
"996","12131.56"
"997","12136.85"
"998","12148.4"
"999","12165.06"
"1000","12182.46"
"1001","12196.14"
"1002","12203.34"
"1003","12205.3"
"1004","12203.87"
"1005","12200.87"
"1006","12198.26"
"1007","12198.9"
"1008","12205.99"
"1009","12222.62"
"1010","12246.21"
"1011","12266.03"
"1012","12270.68"
"1013","12252.3"
"1014","12221.98"
"1015","12197.21"
"1016","12195.09"
"1017","12218.12"
"1018","12251.77"
"1019","12280.48"
"1020","12292.43"
"1021","12291.62"
"1022","12286.17"
"1023","12284.08"
"1024","12290.07"
"1025","12305.86"
"1026","12333.04"
"1027","12370.1"
"1028","12405.74"
"1029","12426.74"
"1030","12421.3"
"1031","12396.39"
"1032","12372.16"
"1033","12368.99"
"1034","12396.84"
"1035","12441.99"
"1036","12487.42"
"1037","12518.1"
"1038","12535.76"
"1039","12550.65"
"1040","12572.96"
"1041","12604.07"
"1042","12631.31"
"1043","12640.71"
"1044","12622.35"
"1045","12588.56"
"1046","12559.43"
"1047","12554.38"
"1048","12575.33"
"1049","12604.97"
"1050","12625"
"1051","12624.04"
"1052","12615.17"
"1053","12616.83"
"1054","12645.7"
"1055","12693.6"
"1056","12734.33"
"1057","12741.37"
"1058","12705.49"
"1059","12655.32"
"1060","12624.54"
"1061","12641.41"
"1062","12693.55"
"1063","12750.06"
"1064","12780.48"
"1065","12775.79"
"1066","12755.87"
"1067","12742.64"
"1068","12752.6"
"1069","12779.23"
"1070","12809.94"
"1071","12832.61"
"1072","12842.88"
"1073","12842.62"
"1074","12833.91"
"1075","12819.18"
"1076","12801.74"
"1077","12785.03"
"1078","12772.68"
"1079","12769.78"
"1080","12782.08"
"1081","12815.09"
"1082","12863.62"
"1083","12908.62"
"1084","12930.1"
"1085","12914.65"
"1086","12874.14"
"1087","12826.47"
"1088","12788.6"
"1089","12764.68"
"1090","12749.86"
"1091","12739.06"
"1092","12729.68"
"1093","12723.85"
"1094","12724.2"
"1095","12731.63"
"1096","12736.69"
"1097","12726.24"
"1098","12687.91"
"1099","12626.83"
"1100","12565.38"
"1101","12526.69"
"1102","12524.87"
"1103","12549.97"
"1104","12588.09"
"1105","12625.74"
"1106","12653.07"
"1107","12661.95"
"1108","12644.58"
"1109","12604.57"
"1110","12559.94"
"1111","12529.62"
"1112","12526.83"
"1113","12545.33"
"1114","12574.76"
"1115","12605.01"
"1116","12628.42"
"1117","12638.81"
"1118","12630.18"
"1119","12604.9"
"1120","12577.77"
"1121","12564.62"
"1122","12575.15"
"1123","12595.14"
"1124","12604.44"
"1125","12584.81"
"1126","12541.21"
"1127","12493.72"
"1128","12462.5"
"1129","12455.14"
"1130","12459.25"
"1131","12460.61"
"1132","12449.5"
"1133","12434.94"
"1134","12430.81"
"1135","12449.6"
"1136","12486.52"
"1137","12525.32"
"1138","12549.71"
"1139","12554.83"
"1140","12553.85"
"1141","12561.55"
"1142","12585.95"
"1143","12608.16"
"1144","12602.61"
"1145","12547.2"
"1146","12458.62"
"1147","12377.67"
"1148","12344.99"
"1149","12372.98"
"1150","12433.62"
"1151","12495.71"
"1152","12536.45"
"1153","12562.06"
"1154","12585.01"
"1155","12615.75"
"1156","12646.09"
"1157","12657.9"
"1158","12633.66"
"1159","12578.3"
"1160","12523.68"
"1161","12503.25"
"1162","12534.24"
"1163","12589.24"
"1164","12633.24"
"1165","12636.93"
"1166","12609.75"
"1167","12577.27"
"1168","12564.09"
"1169","12574.36"
"1170","12593.37"
"1171","12605.74"
"1172","12605.27"
"1173","12604.17"
"1174","12616.87"
"1175","12651.96"
"1176","12690.6"
"1177","12705.97"
"1178","12674.69"
"1179","12614.48"
"1180","12569.9"
"1181","12585.05"
"1182","12663.46"
"1183","12753.02"
"1184","12797.57"
"1185","12764.08"
"1186","12688.14"
"1187","12617.94"
"1188","12595.18"
"1189","12616.8"
"1190","12661.06"
"1191","12706.65"
"1192","12740.6"
"1193","12757.29"
"1194","12751.4"
"1195","12726.05"
"1196","12699.24"
"1197","12690.49"
"1198","12711.37"
"1199","12743.53"
"1200","12761.54"
"1201","12744.31"
"1202","12707.1"
"1203","12683.45"
"1204","12705.36"
"1205","12765.85"
"1206","12819.08"
"1207","12817.79"
"1208","12747.82"
"1209","12660.01"
"1210","12612.75"
"1211","12646.25"
"1212","12727"
"1213","12802.79"
"1214","12827.38"
"1215","12806.87"
"1216","12774.43"
"1217","12762.29"
"1218","12775.74"
"1219","12793.44"
"1220","12793.03"
"1221","12766.34"
"1222","12731.76"
"1223","12710.59"
"1224","12718.23"
"1225","12748.36"
"1226","12789.58"
"1227","12830.45"
"1228","12858.81"
"1229","12862.18"
"1230","12829.44"
"1231","12772.9"
"1232","12724.83"
"1233","12717.71"
"1234","12760.13"
"1235","12823.93"
"1236","12877.8"
"1237","12900.68"
"1238","12900.76"
"1239","12891.41"
"1240","12883.77"
"1241","12876.57"
"1242","12864.28"
"1243","12842.55"
"1244","12820.87"
"1245","12817.36"
"1246","12849.41"
"1247","12911.09"
"1248","12970.81"
"1249","12995.83"
"1250","12974.16"
"1251","12933.65"
"1252","12906.7"
"1253","12915.23"
"1254","12944.98"
"1255","12973.83"
"1256","12983.29"
"1257","12978.19"
"1258","12972.51"
"1259","12979.04"
"1260","12994.84"
"1261","13006.3"
"1262","13000.12"
"1263","12978.08"
"1264","12959.21"
"1265","12963.33"
"1266","12997.48"
"1267","13044.29"
"1268","13083.65"
"1269","13101.18"
"1270","13101.04"
"1271","13091.19"
"1272","13078.89"
"1273","13067.41"
"1274","13058.56"
"1275","13054.04"
"1276","13053.68"
"1277","13056.25"
"1278","13060.53"
"1279","13065.03"
"1280","13068.06"
"1281","13067.93"
"1282","13063.43"
"1283","13054.05"
"1284","13039.34"
"1285","13019.62"
"1286","12996.97"
"1287","12973.77"
"1288","12952.37"
"1289","12935.05"
"1290","12924.05"
"1291","12921.31"
"1292","12926.56"
"1293","12938.66"
"1294","12956.6"
"1295","12981.12"
"1296","13014.02"
"1297","13056.94"
"1298","13107.15"
"1299","13157.87"
"1300","13202.09"
"1301","13232.18"
"1302","13239.58"
"1303","13215.7"
"1304","13163.33"
"1305","13109.8"
"1306","13085.61"
"1307","13108.49"
"1308","13153.71"
"1309","13187.78"
"1310","13183.91"
"1311","13149.9"
"1312","13104.59"
"1313","13065.88"
"1314","13043.89"
"1315","13045.04"
"1316","13074.11"
"1317","13115"
"1318","13137.04"
"1319","13110.83"
"1320","13043.03"
"1321","12976.24"
"1322","12953.89"
"1323","12984.58"
"1324","13027.9"
"1325","13039.89"
"1326","13000.32"
"1327","12936.14"
"1328","12879.9"
"1329","12855.09"
"1330","12859.39"
"1331","12885.97"
"1332","12926.93"
"1333","12970.21"
"1334","13002.66"
"1335","13013.25"
"1336","13003.44"
"1337","12979.2"
"1338","12946.95"
"1339","12916.73"
"1340","12900.38"
"1341","12908.34"
"1342","12933.02"
"1343","12954.59"
"1344","12954.05"
"1345","12933.21"
"1346","12912.73"
"1347","12913.28"
"1348","12934.51"
"1349","12950.9"
"1350","12935.83"
"1351","12885.76"
"1352","12833.2"
"1353","12813.7"
"1354","12841.57"
"1355","12887.64"
"1356","12917.42"
"1357","12908.85"
"1358","12873.17"
"1359","12827.17"
"1360","12784.64"
"1361","12748.75"
"1362","12720.32"
"1363","12700.9"
"1364","12695.2"
"1365","12708.86"
"1366","12745.07"
"1367","12792.29"
"1368","12833.52"
"1369","12853.13"
"1370","12846.25"
"1371","12813.07"
"1372","12755.31"
"1373","12690.46"
"1374","12645.14"
"1375","12643.57"
"1376","12676.1"
"1377","12708.86"
"1378","12709.29"
"1379","12677.97"
"1380","12644.08"
"1381","12636.76"
"1382","12659.42"
"1383","12688.76"
"1384","12700.75"
"1385","12688.29"
"1386","12665.27"
"1387","12646.68"
"1388","12639.44"
"1389","12638.59"
"1390","12638.29"
"1391","12635.64"
"1392","12632.83"
"1393","12632.55"
"1394","12635.43"
"1395","12638.12"
"1396","12636.73"
"1397","12629.08"
"1398","12616.84"
"1399","12602.23"
"1400","12587.47"
"1401","12574.83"
"1402","12566.54"
"1403","12563.69"
"1404","12563.65"
"1405","12563.13"
"1406","12559.88"
"1407","12555.52"
"1408","12552.48"
"1409","12553.25"
"1410","12560.43"
"1411","12576.67"
"1412","12601.97"
"1413","12624.54"
"1414","12629.37"
"1415","12607.26"
"1416","12577.9"
"1417","12569.93"
"1418","12603.81"
"1419","12655.72"
"1420","12686.84"
"1421","12666.99"
"1422","12617.44"
"1423","12578.28"
"1424","12583.42"
"1425","12626.48"
"1426","12685.26"
"1427","12739.48"
"1428","12782.69"
"1429","12814.16"
"1430","12834.57"
"1431","12854.54"
"1432","12889.09"
"1433","12949.77"
"1434","13021.61"
"1435","13077.37"
"1436","13094.11"
"1437","13083.71"
"1438","13074.72"
"1439","13091.74"
"1440","13126.04"
"1441","13152.56"
"1442","13149.32"
"1443","13121.48"
"1444","13087.73"
"1445","13065.33"
"1446","13058.77"
"1447","13066.15"
"1448","13084.81"
"1449","13106.43"
"1450","13119.78"
"1451","13114.76"
"1452","13090.62"
"1453","13051.26"
"1454","13001.21"
"1455","12949.6"
"1456","12907.82"
"1457","12885.51"
"1458","12878.21"
"1459","12874.74"
"1460","12864.51"
"1461","12841.72"
"1462","12802.82"
"1463","12745.9"
"1464","12681.24"
"1465","12624.43"
"1466","12588.46"
"1467","12568.34"
"1468","12551.58"
"1469","12527.54"
"1470","12497.58"
"1471","12467.73"
"1472","12442.17"
"1473","12413.83"
"1474","12371.56"
"1475","12308.73"
"1476","12243.01"
"1477","12200.27"
"1478","12199.78"
"1479","12228.38"
"1480","12262.97"
"1481","12282.56"
"1482","12275.53"
"1483","12232.84"
"1484","12154.89"
"1485","12079.41"
"1486","12053.37"
"1487","12102.4"
"1488","12177.45"
"1489","12213.1"
"1490","12170.1"
"1491","12089.74"
"1492","12028.68"
"1493","12021.2"
"1494","12041.21"
"1495","12052.7"
"1496","12034.58"
"1497","12000.69"
"1498","11969.74"
"1499","11952.79"
"1500","11945.52"
"1501","11941.76"
"1502","11937.6"
"1503","11933.01"
"1504","11928.35"
"1505","11924.44"
"1506","11922.79"
"1507","11924.89"
"1508","11929.43"
"1509","11931.62"
"1510","11926.68"
"1511","11915.74"
"1512","11906.19"
"1513","11905.2"
"1514","11910.73"
"1515","11912.56"
"1516","11901.24"
"1517","11882.47"
"1518","11873.03"
"1519","11887.49"
"1520","11914.01"
"1521","11924.8"
"1522","11896.29"
"1523","11841.09"
"1524","11789.46"
"1525","11766.59"
"1526","11764.59"
"1527","11762.67"
"1528","11745.3"
"1529","11722.83"
"1530","11713.54"
"1531","11729.22"
"1532","11757.1"
"1533","11778.6"
"1534","11780.72"
"1535","11766.79"
"1536","11743.02"
"1537","11713.68"
"1538","11678.61"
"1539","11637.11"
"1540","11595.95"
"1541","11574.57"
"1542","11593.11"
"1543","11646.42"
"1544","11695.93"
"1545","11702.43"
"1546","11665.83"
"1547","11625.77"
"1548","11621.06"
"1549","11650.37"
"1550","11681.35"
"1551","11684.52"
"1552","11667.81"
"1553","11660.9"
"1554","11688.08"
"1555","11733.63"
"1556","11764.71"
"1557","11755.75"
"1558","11717.93"
"1559","11673.79"
"1560","11640.57"
"1561","11616.88"
"1562","11597.29"
"1563","11579.54"
"1564","11569.35"
"1565","11573.55"
"1566","11589.82"
"1567","11599.71"
"1568","11583.51"
"1569","11536.27"
"1570","11471.68"
"1571","11404.65"
"1572","11350.7"
"1573","11325.82"
"1574","11343.93"
"1575","11394.43"
"1576","11450.94"
"1577","11489.47"
"1578","11505.12"
"1579","11501.6"
"1580","11483.89"
"1581","11463.13"
"1582","11452.3"
"1583","11460.25"
"1584","11482.7"
"1585","11512.78"
"1586","11540.59"
"1587","11549.96"
"1588","11524.31"
"1589","11468.17"
"1590","11416.03"
"1591","11403.14"
"1592","11430.89"
"1593","11468.1"
"1594","11484.38"
"1595","11474.77"
"1596","11450.76"
"1597","11423.31"
"1598","11397.72"
"1599","11376.91"
"1600","11363.28"
"1601","11357.18"
"1602","11358.35"
"1603","11365.99"
"1604","11377.76"
"1605","11391.07"
"1606","11403.7"
"1607","11414.05"
"1608","11420.72"
"1609","11426.45"
"1610","11438.43"
"1611","11462.86"
"1612","11489.08"
"1613","11494.55"
"1614","11461.64"
"1615","11410.25"
"1616","11376.94"
"1617","11387.41"
"1618","11420.8"
"1619","11443.87"
"1620","11439.49"
"1621","11431.25"
"1622","11448.63"
"1623","11494.78"
"1624","11532.28"
"1625","11522.27"
"1626","11469.83"
"1627","11421.75"
"1628","11421.27"
"1629","11457.53"
"1630","11488.22"
"1631","11479.71"
"1632","11448.8"
"1633","11429.61"
"1634","11442.83"
"1635","11467.37"
"1636","11474.19"
"1637","11450.63"
"1638","11413.38"
"1639","11381.91"
"1640","11368.16"
"1641","11375.96"
"1642","11407.72"
"1643","11454.04"
"1644","11498.06"
"1645","11526.23"
"1646","11544.81"
"1647","11567.14"
"1648","11600.19"
"1649","11630.93"
"1650","11642.65"
"1651","11633.52"
"1652","11627.51"
"1653","11649.81"
"1654","11694.96"
"1655","11727.17"
"1656","11714.27"
"1657","11672.43"
"1658","11645.01"
"1659","11662.45"
"1660","11690.74"
"1661","11676.29"
"1662","11593.33"
"1663","11486.65"
"1664","11411.45"
"1665","11389.37"
"1666","11395.76"
"1667","11403.79"
"1668","11404.8"
"1669","11404.05"
"1670","11406.2"
"1671","11409.19"
"1672","11408.22"
"1673","11397.5"
"1674","11368.07"
"1675","11310.49"
"1676","11234"
"1677","11179.92"
"1678","11189.92"
"1679","11247.81"
"1680","11284.03"
"1681","11238.39"
"1682","11144.34"
"1683","11080.99"
"1684","11101.12"
"1685","11154.28"
"1686","11165.37"
"1687","11104.29"
"1688","11026.8"
"1689","10996.02"
"1690","11020.55"
"1691","11054.95"
"1692","11056.1"
"1693","11021.29"
"1694","10968.36"
"1695","10913.23"
"1696","10863.57"
"1697","10825.01"
"1698","10800.62"
"1699","10788.65"
"1700","10786.99"
"1701","10796.97"
"1702","10823.2"
"1703","10868.15"
"1704","10916.39"
"1705","10944.04"
"1706","10937.12"
"1707","10916.45"
"1708","10910.23"
"1709","10929.56"
"1710","10957.5"
"1711","10975.08"
"1712","10972.85"
"1713","10949.15"
"1714","10904.77"
"1715","10854.73"
"1716","10819.48"
"1717","10809.79"
"1718","10809.69"
"1719","10799.26"
"1720","10780.29"
"1721","10782.44"
"1722","10832.3"
"1723","10902.54"
"1724","10932.8"
"1725","10882.76"
"1726","10802.78"
"1727","10767.92"
"1728","10810.57"
"1729","10881.06"
"1730","10922.4"
"1731","10916.87"
"1732","10881.99"
"1733","10836.24"
"1734","10795.9"
"1735","10776.4"
"1736","10783.95"
"1737","10799.46"
"1738","10800.09"
"1739","10782.56"
"1740","10767.67"
"1741","10774.87"
"1742","10796.52"
"1743","10809.85"
"1744","10800.36"
"1745","10785.06"
"1746","10788.05"
"1747","10814.3"
"1748","10838.72"
"1749","10835.77"
"1750","10809.9"
"1751","10786.68"
"1752","10786.14"
"1753","10799.92"
"1754","10811.29"
"1755","10810.01"
"1756","10798.28"
"1757","10780.06"
"1758","10764.54"
"1759","10765.32"
"1760","10791.35"
"1761","10824.67"
"1762","10837.98"
"1763","10815.86"
"1764","10769.02"
"1765","10711.66"
"1766","10659.1"
"1767","10627.7"
"1768","10631.35"
"1769","10668.44"
"1770","10731.36"
"1771","10801.96"
"1772","10837.57"
"1773","10794.72"
"1774","10690.58"
"1775","10600.68"
"1776","10588.89"
"1777","10628.69"
"1778","10658.25"
"1779","10644.2"
"1780","10620.14"
"1781","10627.56"
"1782","10672.28"
"1783","10726.34"
"1784","10762.92"
"1785","10770.22"
"1786","10742.2"
"1787","10689.55"
"1788","10659.63"
"1789","10700.81"
"1790","10788.82"
"1791","10836.04"
"1792","10776.28"
"1793","10671.27"
"1794","10625.27"
"1795","10681.31"
"1796","10764.11"
"1797","10789.88"
"1798","10750.16"
"1799","10693.56"
"1800","10659.5"
"1801","10639.55"
"1802","10612.21"
"1803","10575.57"
"1804","10559.08"
"1805","10590.92"
"1806","10653.65"
"1807","10701.69"
"1808","10704.5"
"1809","10685.5"
"1810","10679.09"
"1811","10692.42"
"1812","10698.59"
"1813","10673.81"
"1814","10636.06"
"1815","10622.93"
"1816","10651.23"
"1817","10684.82"
"1818","10681.5"
"1819","10645.12"
"1820","10622.24"
"1821","10648.83"
"1822","10695.68"
"1823","10712.31"
"1824","10677.3"
"1825","10620.57"
"1826","10575.47"
"1827","10554"
"1828","10554.41"
"1829","10573.59"
"1830","10604.53"
"1831","10639.04"
"1832","10660.05"
"1833","10640"
"1834","10560.94"
"1835","10473.92"
"1836","10458.39"
"1837","10541.01"
"1838","10636.84"
"1839","10653.63"
"1840","10598.43"
"1841","10551.8"
"1842","10571.45"
"1843","10619.52"
"1844","10636.2"
"1845","10604.38"
"1846","10560.95"
"1847","10542.26"
"1848","10556.02"
"1849","10597.53"
"1850","10653.21"
"1851","10690.78"
"1852","10678.49"
"1853","10625.2"
"1854","10569.12"
"1855","10542.58"
"1856","10554.07"
"1857","10605.88"
"1858","10676.44"
"1859","10716.63"
"1860","10688.05"
"1861","10627.86"
"1862","10601.45"
"1863","10634.65"
"1864","10681.77"
"1865","10693.56"
"1866","10663.57"
"1867","10610.86"
"1868","10554.53"
"1869","10512.61"
"1870","10502.18"
"1871","10524.54"
"1872","10566.88"
"1873","10615.34"
"1874","10653.98"
"1875","10666.63"
"1876","10652.14"
"1877","10629.07"
"1878","10615.04"
"1879","10612.33"
"1880","10616.94"
"1881","10626.87"
"1882","10644.04"
"1883","10669.87"
"1884","10695.89"
"1885","10707.79"
"1886","10697.18"
"1887","10671.73"
"1888","10641.53"
"1889","10613.28"
"1890","10590.9"
"1891","10577.57"
"1892","10573.86"
"1893","10579.79"
"1894","10596.05"
"1895","10624.08"
"1896","10662.38"
"1897","10694.22"
"1898","10698.29"
"1899","10668.08"
"1900","10618.07"
"1901","10565.45"
"1902","10535.08"
"1903","10554.71"
"1904","10619.97"
"1905","10668.38"
"1906","10640.44"
"1907","10561.97"
"1908","10504.56"
"1909","10510.27"
"1910","10553.01"
"1911","10598.94"
"1912","10634.66"
"1913","10660.25"
"1914","10673.13"
"1915","10662.76"
"1916","10619.02"
"1917","10560.92"
"1918","10530.49"
"1919","10555.15"
"1920","10611.07"
"1921","10664.13"
"1922","10690.29"
"1923","10674.83"
"1924","10612.46"
"1925","10533.79"
"1926","10477.42"
"1927","10459.75"
"1928","10473.97"
"1929","10510.77"
"1930","10554.67"
"1931","10588.54"
"1932","10598.69"
"1933","10575.48"
"1934","10517.5"
"1935","10463.27"
"1936","10462.49"
"1937","10518.69"
"1938","10577.43"
"1939","10590.67"
"1940","10564.97"
"1941","10525.12"
"1942","10493.21"
"1943","10487.68"
"1944","10521.26"
"1945","10575.59"
"1946","10621.56"
"1947","10641.28"
"1948","10632.07"
"1949","10597.39"
"1950","10569.33"
"1951","10589.28"
"1952","10652.93"
"1953","10693.24"
"1954","10654.87"
"1955","10576.27"
"1956","10528.17"
"1957","10537.04"
"1958","10569.63"
"1959","10591.38"
"1960","10583.99"
"1961","10535.46"
"1962","10461.98"
"1963","10416.12"
"1964","10438.27"
"1965","10492.99"
"1966","10521.65"
"1967","10511.99"
"1968","10507.71"
"1969","10540.99"
"1970","10573.31"
"1971","10547.68"
"1972","10475.4"
"1973","10443.05"
"1974","10508.01"
"1975","10587.97"
"1976","10568.67"
"1977","10448.24"
"1978","10335.49"
"1979","10316.21"
"1980","10374.53"
"1981","10470.9"
"1982","10557.72"
"1983","10580.37"
"1984","10514.94"
"1985","10432.78"
"1986","10417.35"
"1987","10464.85"
"1988","10507.8"
"1989","10506.09"
"1990","10493.03"
"1991","10508.72"
"1992","10542.15"
"1993","10551.58"
"1994","10517.86"
"1995","10469.41"
"1996","10437.37"
"1997","10426.85"
"1998","10430.3"
"1999","10442.47"
"2000","10461.99"
"2001","10486.19"
"2002","10502.39"
"2003","10494.46"
"2004","10461.63"
"2005","10422.79"
"2006","10396.47"
"2007","10393.46"
"2008","10420.99"
"2009","10456.71"
"2010","10449.2"
"2011","10372.01"
"2012","10286.3"
"2013","10266.4"
"2014","10313.17"
"2015","10373.45"
"2016","10408.88"
"2017","10419.65"
"2018","10411.65"
"2019","10391.18"
"2020","10364.84"
"2021","10342.07"
"2022","10337.13"
"2023","10359.71"
"2024","10388.83"
"2025","10392.8"
"2026","10365.64"
"2027","10332.21"
"2028","10316.23"
"2029","10329.26"
"2030","10378.38"
"2031","10445.7"
"2032","10492.69"
"2033","10494.3"
"2034","10462.56"
"2035","10415.99"
"2036","10378.01"
"2037","10374.5"
"2038","10407.31"
"2039","10437.37"
"2040","10431.53"
"2041","10414.46"
"2042","10429.83"
"2043","10473.82"
"2044","10489.95"
"2045","10444.01"
"2046","10389.38"
"2047","10392.95"
"2048","10445.09"
"2049","10482.2"
"2050","10469.58"
"2051","10436.08"
"2052","10414.73"
"2053","10410.27"
"2054","10415.02"
"2055","10418.71"
"2056","10407.66"
"2057","10371.11"
"2058","10310.88"
"2059","10234.1"
"2060","10180.7"
"2061","10215.96"
"2062","10349.92"
"2063","10466.09"
"2064","10450.79"
"2065","10344.94"
"2066","10257.99"
"2067","10233.66"
"2068","10229.54"
"2069","10210.24"
"2070","10191.25"
"2071","10198.81"
"2072","10232.22"
"2073","10270.8"
"2074","10299.15"
"2075","10314.23"
"2076","10316.65"
"2077","10321.27"
"2078","10347.94"
"2079","10390.5"
"2080","10412.82"
"2081","10395.86"
"2082","10382.89"
"2083","10422.71"
"2084","10480.73"
"2085","10471.17"
"2086","10372.86"
"2087","10275.56"
"2088","10259.68"
"2089","10302.37"
"2090","10349.75"
"2091","10378.19"
"2092","10390.93"
"2093","10392.08"
"2094","10385.54"
"2095","10374.85"
"2096","10361.07"
"2097","10344.38"
"2098","10333.93"
"2099","10349.56"
"2100","10395.71"
"2101","10423.47"
"2102","10380.52"
"2103","10296.98"
"2104","10251.33"
"2105","10267.75"
"2106","10284.84"
"2107","10254.48"
"2108","10219.61"
"2109","10242.12"
"2110","10296.09"
"2111","10290.44"
"2112","10203.69"
"2113","10151.82"
"2114","10231.94"
"2115","10350.44"
"2116","10356.91"
"2117","10258.58"
"2118","10203.54"
"2119","10263.52"
"2120","10323.68"
"2121","10269.92"
"2122","10164.3"
"2123","10134.66"
"2124","10198.82"
"2125","10262.33"
"2126","10258.65"
"2127","10207.2"
"2128","10140.42"
"2129","10085.06"
"2130","10064.83"
"2131","10087.08"
"2132","10141.07"
"2133","10206.53"
"2134","10239.64"
"2135","10201.9"
"2136","10129.88"
"2137","10093.53"
"2138","10103.97"
"2139","10104.46"
"2140","10057.7"
"2141","9993.023"
"2142","9950.782"
"2143","9963.926"
"2144","10059.83"
"2145","10202.5"
"2146","10283.87"
"2147","10241.05"
"2148","10148.47"
"2149","10094.43"
"2150","10091.06"
"2151","10115.72"
"2152","10140.6"
"2153","10132.45"
"2154","10076.39"
"2155","10005.75"
"2156","9957.401"
"2157","9939.183"
"2158","9946.747"
"2159","9971.439"
"2160","10000.45"
"2161","10026.48"
"2162","10055.33"
"2163","10091.13"
"2164","10118.02"
"2165","10113.58"
"2166","10067.64"
"2167","9980.506"
"2168","9874.207"
"2169","9811.762"
"2170","9839.391"
"2171","9901.063"
"2172","9916.992"
"2173","9893.377"
"2174","9895.656"
"2175","9940.918"
"2176","9968.949"
"2177","9932.813"
"2178","9859.581"
"2179","9791.95"
"2180","9758.646"
"2181","9779.847"
"2182","9844.264"
"2183","9902.569"
"2184","9912.785"
"2185","9859.755"
"2186","9741.738"
"2187","9616.358"
"2188","9561.857"
"2189","9582.064"
"2190","9613.608"
"2191","9621.442"
"2192","9631.094"
"2193","9664.426"
"2194","9694.144"
"2195","9682.575"
"2196","9635.711"
"2197","9587.551"
"2198","9564.624"
"2199","9582.532"
"2200","9635.55"
"2201","9656.125"
"2202","9581.298"
"2203","9465.05"
"2204","9408.271"
"2205","9432.225"
"2206","9484.476"
"2207","9516.722"
"2208","9494.317"
"2209","9402.59"
"2210","9307.01"
"2211","9284.817"
"2212","9307.481"
"2213","9285.714"
"2214","9202.576"
"2215","9130.594"
"2216","9122.702"
"2217","9167.237"
"2218","9237.467"
"2219","9279.173"
"2220","9234.197"
"2221","9130.536"
"2222","9059.478"
"2223","9051.884"
"2224","9045.335"
"2225","8990.514"
"2226","8904.151"
"2227","8816.958"
"2228","8766.077"
"2229","8788.306"
"2230","8862.354"
"2231","8916.915"
"2232","8909.32"
"2233","8849.188"
"2234","8758.125"
"2235","8681.955"
"2236","8662.086"
"2237","8661.271"
"2238","8608.382"
"2239","8502.031"
"2240","8405.95"
"2241","8359.881"
"2242","8355.094"
"2243","8370.92"
"2244","8361.516"
"2245","8285.144"
"2246","8181.848"
"2247","8127.009"
"2248","8108.3"
"2249","8031.765"
"2250","7867.604"
"2251","7706.757"
"2252","7625.275"
"2253","7599.695"
"2254","7587.023"
"2255","7566.053"
"2256","7525.888"
"2257","7463.491"
"2258","7382.686"
"2259","7289.389"
"2260","7192.563"
"2261","7096.463"
"2262","6989.429"
"2263","6860.384"
"2264","6722.733"
"2265","6598.764"
"2266","6497.221"
"2267","6416.607"
"2268","6354.942"
"2269","6309.914"
"2270","6271.739"
"2271","6211.321"
"2272","6103.895"
"2273","5963.486"
"2274","5814.701"
"2275","5661.473"
"2276","5496.388"
"2277","5344.582"
"2278","5266.731"
"2279","5265.236"
"2280","5222.505"
"2281","5058.391"
"2282","4889.512"
"2283","4852.502"
"2284","4883.47"
"2285","4835.78"
"2286","4691.05"
"2287","4534.46"
"2288","4398.46"
"2289","4235.43"
"2290","4033.775"
"2291","3891.406"
"2292","3883.75"
"2293","3889.318"
"2294","3747.26"
"2295","3499.924"
"2296","3298.333"
"2297","3190.995"
"2298","3125.669"
"2299","3064.845"
"2300","3003.027"
