,"Scan 00983"
"400","7116.874"
"401","7102.886"
"402","7104.943"
"403","7122.656"
"404","7155.638"
"405","7202.77"
"406","7256.647"
"407","7306.71"
"408","7342.458"
"409","7354.347"
"410","7344.498"
"411","7323.12"
"412","7300.516"
"413","7286.555"
"414","7283.808"
"415","7288.036"
"416","7294.769"
"417","7299.573"
"418","7298.153"
"419","7286.377"
"420","7260.153"
"421","7215.494"
"422","7153.804"
"423","7085.156"
"424","7020.333"
"425","6970.024"
"426","6941.42"
"427","6934.48"
"428","6948.265"
"429","6981.833"
"430","7030.957"
"431","7082.536"
"432","7122.073"
"433","7135.171"
"434","7113.293"
"435","7067.933"
"436","7014.823"
"437","6969.586"
"438","6944.071"
"439","6933.948"
"440","6930.499"
"441","6925.074"
"442","6910.959"
"443","6891.802"
"444","6874.748"
"445","6866.893"
"446","6873.839"
"447","6891.343"
"448","6911.125"
"449","6924.945"
"450","6925.608"
"451","6914.16"
"452","6895.687"
"453","6875.266"
"454","6857.457"
"455","6841.898"
"456","6825.403"
"457","6804.771"
"458","6777.305"
"459","6746.167"
"460","6718.38"
"461","6700.989"
"462","6700.335"
"463","6713.173"
"464","6729.115"
"465","6737.654"
"466","6728.944"
"467","6703.126"
"468","6668.66"
"469","6634.207"
"470","6608.104"
"471","6593.267"
"472","6587.648"
"473","6589.028"
"474","6595.153"
"475","6602.57"
"476","6606.653"
"477","6602.747"
"478","6586.453"
"479","6559.202"
"480","6528.604"
"481","6502.522"
"482","6488.546"
"483","6487.758"
"484","6493.985"
"485","6500.702"
"486","6501.588"
"487","6495.434"
"488","6486.962"
"489","6481.203"
"490","6482.933"
"491","6489.747"
"492","6490.67"
"493","6474.288"
"494","6429.6"
"495","6357.38"
"496","6272.601"
"497","6190.995"
"498","6127.914"
"499","6088.768"
"500","6067.019"
"501","6055.447"
"502","6046.948"
"503","6036.713"
"504","6022.652"
"505","6002.846"
"506","5975.473"
"507","5941.329"
"508","5904.239"
"509","5868.172"
"510","5836.978"
"511","5811.786"
"512","5790.724"
"513","5771.765"
"514","5752.929"
"515","5733.053"
"516","5711.822"
"517","5688.963"
"518","5664.231"
"519","5638.008"
"520","5611.277"
"521","5585.042"
"522","5560.302"
"523","5538.083"
"524","5519.423"
"525","5505.361"
"526","5496.893"
"527","5494.435"
"528","5497.925"
"529","5507.29"
"530","5522.239"
"531","5539.405"
"532","5553.171"
"533","5557.891"
"534","5548.467"
"535","5525.893"
"536","5495.117"
"537","5461.135"
"538","5428.771"
"539","5401.45"
"540","5381.792"
"541","5372.402"
"542","5374.857"
"543","5382.53"
"544","5384.831"
"545","5371.196"
"546","5333.882"
"547","5283.677"
"548","5238.907"
"549","5217.827"
"550","5233.634"
"551","5272.407"
"552","5311.122"
"553","5326.863"
"554","5303.351"
"555","5253.021"
"556","5196.113"
"557","5152.765"
"558","5137.301"
"559","5143.982"
"560","5162.737"
"561","5183.542"
"562","5198.828"
"563","5207.686"
"564","5210.341"
"565","5207.023"
"566","5199.268"
"567","5191.415"
"568","5188.153"
"569","5194.083"
"570","5209.004"
"571","5224.667"
"572","5232.093"
"573","5222.525"
"574","5194.648"
"575","5156.805"
"576","5117.942"
"577","5086.736"
"578","5066.364"
"579","5054.513"
"580","5048.641"
"581","5046.297"
"582","5046.171"
"583","5047.818"
"584","5050.822"
"585","5054.865"
"586","5060.631"
"587","5069.368"
"588","5082.322"
"589","5100.051"
"590","5118.456"
"591","5131.543"
"592","5133.332"
"593","5120.002"
"594","5097.696"
"595","5075.425"
"596","5062.171"
"597","5063.814"
"598","5076.373"
"599","5093.902"
"600","5110.489"
"601","5121.416"
"602","5124.575"
"603","5118.213"
"604","5100.645"
"605","5073.293"
"606","5042.365"
"607","5014.456"
"608","4995.987"
"609","4989.697"
"610","4994.389"
"611","5008.678"
"612","5030.953"
"613","5056.351"
"614","5077.637"
"615","5087.544"
"616","5079.948"
"617","5058.008"
"618","5029.44"
"619","5001.972"
"620","4982.036"
"621","4969.589"
"622","4962.513"
"623","4958.699"
"624","4956.922"
"625","4958.752"
"626","4966.313"
"627","4981.7"
"628","5003.807"
"629","5025.068"
"630","5037.176"
"631","5032.085"
"632","5011.051"
"633","4987.306"
"634","4974.833"
"635","4986.598"
"636","5019.268"
"637","5056.082"
"638","5079.929"
"639","5075.828"
"640","5046.988"
"641","5006.015"
"642","4965.546"
"643","4936.242"
"644","4919.084"
"645","4912.056"
"646","4913.149"
"647","4919.437"
"648","4925.351"
"649","4924.87"
"650","4912.058"
"651","4886.187"
"652","4855.309"
"653","4828.304"
"654","4813.731"
"655","4813.257"
"656","4821.56"
"657","4833.021"
"658","4842.563"
"659","4850.692"
"660","4861.278"
"661","4878.222"
"662","4903.808"
"663","4931.457"
"664","4951.572"
"665","4954.586"
"666","4935.807"
"667","4904.956"
"668","4874.393"
"669","4856.341"
"670","4856.148"
"671","4867.884"
"672","4884.587"
"673","4899.451"
"674","4908.498"
"675","4910.388"
"676","4903.885"
"677","4888.343"
"678","4868.353"
"679","4851.211"
"680","4844.22"
"681","4852.666"
"682","4873.107"
"683","4899.724"
"684","4926.722"
"685","4949.96"
"686","4968.993"
"687","4983.872"
"688","4994.625"
"689","5000.381"
"690","4999.207"
"691","4989.102"
"692","4968.46"
"693","4940.096"
"694","4909.656"
"695","4882.821"
"696","4864.448"
"697","4855.118"
"698","4854.016"
"699","4860.325"
"700","4872.17"
"701","4885"
"702","4893.844"
"703","4893.907"
"704","4886.247"
"705","4879.421"
"706","4882.465"
"707","4903.341"
"708","4937.418"
"709","4971.795"
"710","4993.443"
"711","4992.279"
"712","4973.216"
"713","4945.951"
"714","4920.159"
"715","4902.715"
"716","4893.925"
"717","4893.146"
"718","4899.729"
"719","4912.813"
"720","4931.298"
"721","4954.072"
"722","4979.707"
"723","5003.689"
"724","5019.77"
"725","5021.693"
"726","5005.906"
"727","4979.913"
"728","4954.041"
"729","4938.541"
"730","4938.247"
"731","4948.042"
"732","4961.758"
"733","4973.452"
"734","4981.088"
"735","4986.03"
"736","4989.748"
"737","4993.28"
"738","4994.837"
"739","4991.508"
"740","4980.382"
"741","4960.986"
"742","4939.417"
"743","4922.866"
"744","4918.363"
"745","4927.787"
"746","4946.799"
"747","4970.694"
"748","4995.008"
"749","5017.465"
"750","5036.995"
"751","5052.54"
"752","5063.32"
"753","5069.564"
"754","5071.729"
"755","5070.302"
"756","5067.459"
"757","5067.98"
"758","5076.852"
"759","5098.263"
"760","5126.51"
"761","5149.192"
"762","5153.795"
"763","5131.902"
"764","5093.306"
"765","5052.867"
"766","5025.342"
"767","5017.753"
"768","5023.402"
"769","5034.185"
"770","5042.41"
"771","5046.258"
"772","5048.352"
"773","5051.428"
"774","5058.266"
"775","5071.898"
"776","5095.429"
"777","5131.897"
"778","5177.973"
"779","5218.408"
"780","5236.659"
"781","5217.758"
"782","5170.194"
"783","5120.582"
"784","5095.977"
"785","5116.35"
"786","5167.528"
"787","5225.044"
"788","5264.585"
"789","5273.808"
"790","5261.804"
"791","5239.885"
"792","5219.023"
"793","5205.699"
"794","5203.169"
"795","5214.612"
"796","5241.127"
"797","5274.86"
"798","5305.556"
"799","5323.081"
"800","5324.164"
"801","5316.275"
"802","5307.814"
"803","5306.639"
"804","5314.825"
"805","5330.924"
"806","5353.432"
"807","5379.427"
"808","5401.05"
"809","5409.387"
"810","5395.851"
"811","5363.516"
"812","5330.058"
"813","5314.065"
"814","5331.06"
"815","5372.64"
"816","5419.154"
"817","5450.916"
"818","5455.642"
"819","5439.802"
"820","5412.786"
"821","5383.886"
"822","5360.574"
"823","5348.649"
"824","5353.842"
"825","5379.57"
"826","5417.166"
"827","5454.03"
"828","5477.653"
"829","5482.489"
"830","5474.972"
"831","5462.719"
"832","5452.814"
"833","5446.555"
"834","5441.652"
"835","5435.76"
"836","5428.155"
"837","5423.311"
"838","5426.749"
"839","5443.685"
"840","5471.161"
"841","5497.307"
"842","5509.799"
"843","5499.333"
"844","5474.767"
"845","5451.729"
"846","5445.769"
"847","5463.301"
"848","5493.761"
"849","5524.74"
"850","5544.777"
"851","5553.228"
"852","5556.348"
"853","5560.502"
"854","5570.213"
"855","5584.197"
"856","5600.025"
"857","5615.296"
"858","5628.181"
"859","5637.434"
"860","5641.84"
"861","5640.79"
"862","5636.899"
"863","5633.847"
"864","5635.275"
"865","5642.524"
"866","5653.29"
"867","5664.946"
"868","5674.95"
"869","5681.446"
"870","5682.939"
"871","5677.946"
"872","5668.063"
"873","5662.292"
"874","5670.711"
"875","5702.461"
"876","5752.675"
"877","5805.807"
"878","5846.042"
"879","5862.112"
"880","5859.063"
"881","5845.608"
"882","5830.303"
"883","5817.553"
"884","5807.301"
"885","5799.266"
"886","5793.496"
"887","5791.749"
"888","5796.338"
"889","5809.539"
"890","5831.718"
"891","5860.436"
"892","5893.026"
"893","5926.39"
"894","5954.178"
"895","5968.586"
"896","5961.879"
"897","5934.857"
"898","5904.949"
"899","5891.499"
"900","5911.555"
"901","5958.619"
"902","6012.37"
"903","6052.333"
"904","6065.992"
"905","6060.833"
"906","6047.439"
"907","6035.808"
"908","6027.693"
"909","6018.783"
"910","6004.625"
"911","5984.092"
"912","5966.543"
"913","5963.41"
"914","5985.296"
"915","6027.299"
"916","6070.732"
"917","6096.419"
"918","6091.472"
"919","6067.121"
"920","6040.385"
"921","6027.733"
"922","6032.076"
"923","6042.248"
"924","6046.431"
"925","6036.361"
"926","6019.782"
"927","6008.931"
"928","6015.709"
"929","6041.223"
"930","6073.94"
"931","6101.604"
"932","6114.262"
"933","6113.662"
"934","6105.255"
"935","6094.447"
"936","6084.611"
"937","6076.523"
"938","6070.792"
"939","6067.933"
"940","6067.964"
"941","6070.735"
"942","6076.063"
"943","6082.649"
"944","6087.675"
"945","6088.212"
"946","6082.131"
"947","6071.936"
"948","6061.796"
"949","6055.831"
"950","6055.52"
"951","6058.685"
"952","6062.878"
"953","6065.66"
"954","6064.656"
"955","6057.516"
"956","6042.005"
"957","6021.023"
"958","6004.563"
"959","6003.137"
"960","6023.968"
"961","6055.489"
"962","6079.485"
"963","6078.138"
"964","6050.48"
"965","6017.918"
"966","6003.415"
"967","6024.287"
"968","6067.634"
"969","6110.476"
"970","6130.313"
"971","6121.862"
"972","6101.167"
"973","6085.602"
"974","6088.23"
"975","6101.177"
"976","6110.224"
"977","6101.593"
"978","6074.317"
"979","6041.782"
"980","6018.143"
"981","6014.047"
"982","6025.232"
"983","6043.475"
"984","6060.683"
"985","6071.851"
"986","6075.01"
"987","6068.316"
"988","6051.548"
"989","6030.3"
"990","6011.485"
"991","6001.918"
"992","6006.74"
"993","6029.681"
"994","6074.427"
"995","6138.991"
"996","6204.623"
"997","6249.481"
"998","6253.702"
"999","6222.899"
"1000","6180.36"
"1001","6149.707"
"1002","6145.53"
"1003","6161.091"
"1004","6186.572"
"1005","6212.146"
"1006","6229.093"
"1007","6236.124"
"1008","6235.009"
"1009","6227.526"
"1010","6215.178"
"1011","6199.067"
"1012","6180.271"
"1013","6160.107"
"1014","6141.222"
"1015","6126.71"
"1016","6119.608"
"1017","6121.109"
"1018","6130.232"
"1019","6145.875"
"1020","6167.076"
"1021","6193.489"
"1022","6224.925"
"1023","6261.032"
"1024","6298.146"
"1025","6329.537"
"1026","6348.351"
"1027","6351.346"
"1028","6346.648"
"1029","6344.616"
"1030","6354.654"
"1031","6373.556"
"1032","6389.272"
"1033","6389.59"
"1034","6369.144"
"1035","6338.116"
"1036","6308.846"
"1037","6292.537"
"1038","6290.652"
"1039","6299.716"
"1040","6316.21"
"1041","6336.152"
"1042","6354.836"
"1043","6367.486"
"1044","6370.865"
"1045","6370.296"
"1046","6374.058"
"1047","6390.144"
"1048","6418.572"
"1049","6450.611"
"1050","6477.08"
"1051","6491.001"
"1052","6493.2"
"1053","6486.219"
"1054","6472.635"
"1055","6455.412"
"1056","6437.804"
"1057","6423.063"
"1058","6414"
"1059","6412.427"
"1060","6420.032"
"1061","6437.572"
"1062","6458.814"
"1063","6474.346"
"1064","6474.932"
"1065","6459.747"
"1066","6439.272"
"1067","6424.796"
"1068","6425.533"
"1069","6441.922"
"1070","6472.089"
"1071","6513.761"
"1072","6558.257"
"1073","6591.714"
"1074","6600.151"
"1075","6579.266"
"1076","6547.364"
"1077","6525.977"
"1078","6533.431"
"1079","6563.499"
"1080","6598.644"
"1081","6621.526"
"1082","6625.218"
"1083","6616.299"
"1084","6602.249"
"1085","6589.08"
"1086","6577.142"
"1087","6565.434"
"1088","6553.214"
"1089","6543.238"
"1090","6540.739"
"1091","6550.946"
"1092","6572.899"
"1093","6593.682"
"1094","6599.013"
"1095","6578.388"
"1096","6543.274"
"1097","6513.042"
"1098","6506.237"
"1099","6522.358"
"1100","6542.137"
"1101","6545.515"
"1102","6522.195"
"1103","6487.917"
"1104","6462.719"
"1105","6463.627"
"1106","6483.34"
"1107","6502.786"
"1108","6503.252"
"1109","6482.334"
"1110","6458.133"
"1111","6450.073"
"1112","6470.123"
"1113","6504.947"
"1114","6535.834"
"1115","6545.709"
"1116","6534.391"
"1117","6511.629"
"1118","6487.26"
"1119","6468.479"
"1120","6458.588"
"1121","6460.572"
"1122","6475.262"
"1123","6494.985"
"1124","6509.969"
"1125","6511.463"
"1126","6502.911"
"1127","6495.713"
"1128","6501.263"
"1129","6520.797"
"1130","6539.367"
"1131","6540.563"
"1132","6513.843"
"1133","6473.07"
"1134","6438.454"
"1135","6428.531"
"1136","6441.346"
"1137","6461.307"
"1138","6472.735"
"1139","6470.594"
"1140","6466.651"
"1141","6474.163"
"1142","6500.539"
"1143","6529.938"
"1144","6540.715"
"1145","6513.94"
"1146","6460.767"
"1147","6411.067"
"1148","6394.593"
"1149","6420.176"
"1150","6466.652"
"1151","6510.524"
"1152","6534.34"
"1153","6541.604"
"1154","6540.347"
"1155","6537.773"
"1156","6533.499"
"1157","6523.103"
"1158","6502.471"
"1159","6478.872"
"1160","6473.218"
"1161","6507.218"
"1162","6585.782"
"1163","6667.689"
"1164","6703.834"
"1165","6655.794"
"1166","6557.758"
"1167","6474.088"
"1168","6466.096"
"1169","6531.041"
"1170","6607.021"
"1171","6630.16"
"1172","6576.312"
"1173","6501.193"
"1174","6470.123"
"1175","6529.507"
"1176","6637.222"
"1177","6725.281"
"1178","6731.75"
"1179","6666.878"
"1180","6588.037"
"1181","6552.537"
"1182","6577.282"
"1183","6623.815"
"1184","6649.66"
"1185","6629.633"
"1186","6589.819"
"1187","6565.769"
"1188","6586.383"
"1189","6635.154"
"1190","6676.625"
"1191","6677.248"
"1192","6639.556"
"1193","6597.439"
"1194","6585.626"
"1195","6618.71"
"1196","6675.77"
"1197","6732.249"
"1198","6768.647"
"1199","6784.55"
"1200","6784.02"
"1201","6771.58"
"1202","6755.56"
"1203","6746.208"
"1204","6753.256"
"1205","6774.165"
"1206","6794.161"
"1207","6798.015"
"1208","6780.798"
"1209","6757.771"
"1210","6746.548"
"1211","6759.497"
"1212","6787.719"
"1213","6816.923"
"1214","6834.268"
"1215","6839.647"
"1216","6839.546"
"1217","6840.273"
"1218","6842.913"
"1219","6843.396"
"1220","6837.446"
"1221","6823.353"
"1222","6804.196"
"1223","6783.583"
"1224","6765.212"
"1225","6753.117"
"1226","6751.407"
"1227","6763.326"
"1228","6785.555"
"1229","6811.774"
"1230","6835.783"
"1231","6853.798"
"1232","6864.082"
"1233","6865.017"
"1234","6858.178"
"1235","6850.047"
"1236","6847.524"
"1237","6855.298"
"1238","6871.728"
"1239","6894.042"
"1240","6919.251"
"1241","6943.162"
"1242","6961.159"
"1243","6968.799"
"1244","6963.614"
"1245","6944.37"
"1246","6910.304"
"1247","6873.083"
"1248","6858.026"
"1249","6890.977"
"1250","6975.315"
"1251","7071.343"
"1252","7134.46"
"1253","7134.675"
"1254","7092.635"
"1255","7039.942"
"1256","7004.41"
"1257","6989.488"
"1258","6989.027"
"1259","6996.877"
"1260","7007.092"
"1261","7013.882"
"1262","7011.743"
"1263","7003.909"
"1264","7003.552"
"1265","7024.297"
"1266","7068.992"
"1267","7120.013"
"1268","7157.431"
"1269","7167.084"
"1270","7153.613"
"1271","7125.474"
"1272","7090.912"
"1273","7056.864"
"1274","7029.814"
"1275","7015.435"
"1276","7010.96"
"1277","7008.67"
"1278","7001.171"
"1279","6989.325"
"1280","6981.791"
"1281","6987.441"
"1282","7009.593"
"1283","7043.256"
"1284","7082.756"
"1285","7123.49"
"1286","7163.417"
"1287","7200.876"
"1288","7232.497"
"1289","7248.218"
"1290","7236.316"
"1291","7189.226"
"1292","7126.422"
"1293","7078.214"
"1294","7071.807"
"1295","7099.21"
"1296","7130.394"
"1297","7136.332"
"1298","7116.607"
"1299","7098.021"
"1300","7108.01"
"1301","7151.593"
"1302","7201.754"
"1303","7229.076"
"1304","7219.344"
"1305","7191.19"
"1306","7167.531"
"1307","7164.899"
"1308","7178.657"
"1309","7199.789"
"1310","7219.344"
"1311","7228.75"
"1312","7219.552"
"1313","7185.826"
"1314","7141.926"
"1315","7111.933"
"1316","7117.949"
"1317","7155.401"
"1318","7201.094"
"1319","7232.125"
"1320","7241.318"
"1321","7237.146"
"1322","7228.687"
"1323","7221.196"
"1324","7214.551"
"1325","7208.238"
"1326","7202.317"
"1327","7198.006"
"1328","7196.66"
"1329","7198.941"
"1330","7203.538"
"1331","7208.791"
"1332","7213.825"
"1333","7220.944"
"1334","7233.27"
"1335","7252.714"
"1336","7274.138"
"1337","7289.845"
"1338","7294.183"
"1339","7298.817"
"1340","7324.111"
"1341","7387.393"
"1342","7467.068"
"1343","7515.079"
"1344","7485.67"
"1345","7388.131"
"1346","7281.577"
"1347","7225.45"
"1348","7229.994"
"1349","7246.752"
"1350","7224.408"
"1351","7149.104"
"1352","7065.545"
"1353","7023.389"
"1354","7044.728"
"1355","7095.252"
"1356","7133.741"
"1357","7133.239"
"1358","7105.076"
"1359","7066.946"
"1360","7033.399"
"1361","7007.879"
"1362","6991.39"
"1363","6984.284"
"1364","6983.913"
"1365","6986.761"
"1366","6989.722"
"1367","6992.136"
"1368","6994.253"
"1369","6995.949"
"1370","6994.231"
"1371","6984.761"
"1372","6964.393"
"1373","6942.192"
"1374","6934.33"
"1375","6955.166"
"1376","6993.432"
"1377","7019.567"
"1378","7005.435"
"1379","6955.905"
"1380","6904.38"
"1381","6884.077"
"1382","6899.747"
"1383","6926.619"
"1384","6939.084"
"1385","6930.875"
"1386","6919.595"
"1387","6924.041"
"1388","6947.438"
"1389","6970.306"
"1390","6971.533"
"1391","6944.726"
"1392","6908.735"
"1393","6884.827"
"1394","6883.613"
"1395","6894.381"
"1396","6903.881"
"1397","6904.593"
"1398","6902.315"
"1399","6904.733"
"1400","6915.319"
"1401","6926.212"
"1402","6927.665"
"1403","6915.866"
"1404","6905.291"
"1405","6913.94"
"1406","6952.348"
"1407","7004.778"
"1408","7049.717"
"1409","7070.663"
"1410","7071.076"
"1411","7059.375"
"1412","7044.067"
"1413","7034.041"
"1414","7038.292"
"1415","7061.577"
"1416","7087.709"
"1417","7094.041"
"1418","7065.134"
"1419","7024.792"
"1420","7010.082"
"1421","7048.549"
"1422","7111.141"
"1423","7148.038"
"1424","7119.894"
"1425","7054.796"
"1426","7007.425"
"1427","7022.142"
"1428","7071.968"
"1429","7100"
"1430","7059.837"
"1431","6982.45"
"1432","6933.032"
"1433","6966.569"
"1434","7058.533"
"1435","7147.675"
"1436","7180.371"
"1437","7165.59"
"1438","7142.205"
"1439","7144.269"
"1440","7164.494"
"1441","7175.324"
"1442","7153.473"
"1443","7112.67"
"1444","7085.1"
"1445","7098.543"
"1446","7142.222"
"1447","7185.984"
"1448","7203.118"
"1449","7197.436"
"1450","7188.074"
"1451","7191.735"
"1452","7203.638"
"1453","7208.316"
"1454","7192.25"
"1455","7158.602"
"1456","7118.692"
"1457","7083.213"
"1458","7057.412"
"1459","7043.944"
"1460","7044.367"
"1461","7052.005"
"1462","7056.398"
"1463","7048.586"
"1464","7030.643"
"1465","7009.5"
"1466","6991.41"
"1467","6977.829"
"1468","6968.213"
"1469","6960.123"
"1470","6939.098"
"1471","6885.963"
"1472","6788.612"
"1473","6676.585"
"1474","6594.616"
"1475","6577.566"
"1476","6606.829"
"1477","6645.854"
"1478","6663.84"
"1479","6658.423"
"1480","6635.932"
"1481","6602.732"
"1482","6565.342"
"1483","6530.317"
"1484","6503.707"
"1485","6489.508"
"1486","6491.223"
"1487","6507.374"
"1488","6519.085"
"1489","6503.669"
"1490","6450.991"
"1491","6389.531"
"1492","6355.165"
"1493","6366.437"
"1494","6395.342"
"1495","6406.197"
"1496","6380.62"
"1497","6340.556"
"1498","6313.593"
"1499","6313.247"
"1500","6324.729"
"1501","6329.953"
"1502","6319.281"
"1503","6297.672"
"1504","6271.523"
"1505","6246.331"
"1506","6226.276"
"1507","6215.418"
"1508","6217.065"
"1509","6233.591"
"1510","6266.927"
"1511","6309.352"
"1512","6342.946"
"1513","6350.404"
"1514","6335.25"
"1515","6319.427"
"1516","6323.855"
"1517","6346.166"
"1518","6366.9"
"1519","6367.456"
"1520","6342.656"
"1521","6295.409"
"1522","6230.644"
"1523","6168.822"
"1524","6138.005"
"1525","6160.005"
"1526","6216.689"
"1527","6274.354"
"1528","6305.069"
"1529","6309.487"
"1530","6296.994"
"1531","6277.877"
"1532","6265.75"
"1533","6275.024"
"1534","6312.174"
"1535","6360.643"
"1536","6399.732"
"1537","6417.111"
"1538","6419.12"
"1539","6414.557"
"1540","6405.748"
"1541","6383.915"
"1542","6339.523"
"1543","6277.109"
"1544","6219.814"
"1545","6191.18"
"1546","6193.539"
"1547","6207.687"
"1548","6214.403"
"1549","6208.922"
"1550","6197.653"
"1551","6187.056"
"1552","6181.103"
"1553","6182.318"
"1554","6192.307"
"1555","6206.312"
"1556","6216.842"
"1557","6217.371"
"1558","6206.252"
"1559","6183.336"
"1560","6149.958"
"1561","6112.614"
"1562","6078.938"
"1563","6055.858"
"1564","6048.56"
"1565","6061.873"
"1566","6092.626"
"1567","6123.552"
"1568","6136.25"
"1569","6124.457"
"1570","6097.271"
"1571","6064.655"
"1572","6034.141"
"1573","6011.054"
"1574","6000.29"
"1575","6002.596"
"1576","6016.061"
"1577","6037.771"
"1578","6057.782"
"1579","6063.018"
"1580","6045.85"
"1581","6024.957"
"1582","6026.932"
"1583","6065.964"
"1584","6116.958"
"1585","6147.124"
"1586","6140.375"
"1587","6115.807"
"1588","6096.673"
"1589","6091.032"
"1590","6085.347"
"1591","6065.335"
"1592","6036.354"
"1593","6022.679"
"1594","6046.255"
"1595","6092.483"
"1596","6123.103"
"1597","6106.776"
"1598","6063.215"
"1599","6033.806"
"1600","6049.673"
"1601","6097.435"
"1602","6151.777"
"1603","6193.075"
"1604","6216.974"
"1605","6221.673"
"1606","6208.272"
"1607","6182.794"
"1608","6151.839"
"1609","6124.542"
"1610","6112.814"
"1611","6127.007"
"1612","6155.011"
"1613","6168.86"
"1614","6146.456"
"1615","6110.963"
"1616","6105.592"
"1617","6158.022"
"1618","6229.292"
"1619","6262.727"
"1620","6230.053"
"1621","6174.827"
"1622","6151.198"
"1623","6176.518"
"1624","6211.5"
"1625","6214.028"
"1626","6184.897"
"1627","6165.744"
"1628","6194.411"
"1629","6253.32"
"1630","6292.594"
"1631","6273.123"
"1632","6217.707"
"1633","6170.399"
"1634","6163.041"
"1635","6189.338"
"1636","6235.584"
"1637","6286.686"
"1638","6325.063"
"1639","6333.816"
"1640","6320.975"
"1641","6321.098"
"1642","6365.466"
"1643","6433.616"
"1644","6472.508"
"1645","6441.951"
"1646","6379.167"
"1647","6349.111"
"1648","6389.447"
"1649","6452.703"
"1650","6475.327"
"1651","6434.946"
"1652","6380.392"
"1653","6365.478"
"1654","6395.133"
"1655","6425.896"
"1656","6416.683"
"1657","6370.132"
"1658","6313.447"
"1659","6269.66"
"1660","6240.023"
"1661","6219.177"
"1662","6203.934"
"1663","6196.63"
"1664","6200.416"
"1665","6216.219"
"1666","6241.891"
"1667","6274.629"
"1668","6305.356"
"1669","6320.18"
"1670","6307.854"
"1671","6275.845"
"1672","6239.336"
"1673","6207.982"
"1674","6172.879"
"1675","6121.416"
"1676","6054.513"
"1677","5996.391"
"1678","5972.133"
"1679","5977.361"
"1680","5980.502"
"1681","5954.111"
"1682","5913.068"
"1683","5892.909"
"1684","5914.659"
"1685","5942.653"
"1686","5927.79"
"1687","5855.37"
"1688","5776.417"
"1689","5747.167"
"1690","5772.552"
"1691","5806.687"
"1692","5806.932"
"1693","5777.803"
"1694","5747.856"
"1695","5737.602"
"1696","5735.166"
"1697","5720.816"
"1698","5685.312"
"1699","5639.139"
"1700","5595.036"
"1701","5566.926"
"1702","5569.864"
"1703","5614.231"
"1704","5673.3"
"1705","5702.805"
"1706","5674.751"
"1707","5618.466"
"1708","5575.486"
"1709","5564.345"
"1710","5565.788"
"1711","5558.079"
"1712","5536.51"
"1713","5510.145"
"1714","5488.331"
"1715","5479.635"
"1716","5492.318"
"1717","5523.646"
"1718","5540.786"
"1719","5506.956"
"1720","5431.288"
"1721","5381.716"
"1722","5421.761"
"1723","5523.896"
"1724","5604.697"
"1725","5599.623"
"1726","5531.28"
"1727","5446.182"
"1728","5379.738"
"1729","5345.947"
"1730","5355.377"
"1731","5399.08"
"1732","5450.601"
"1733","5485.094"
"1734","5492.862"
"1735","5470.4"
"1736","5424.625"
"1737","5391.049"
"1738","5408.694"
"1739","5467.193"
"1740","5495.702"
"1741","5430.604"
"1742","5314.26"
"1743","5248.087"
"1744","5298.801"
"1745","5400.67"
"1746","5457.804"
"1747","5429.885"
"1748","5364.275"
"1749","5313.45"
"1750","5294.556"
"1751","5299.881"
"1752","5320.625"
"1753","5345.367"
"1754","5361.942"
"1755","5364.58"
"1756","5359.756"
"1757","5354.91"
"1758","5350.189"
"1759","5339.671"
"1760","5318.758"
"1761","5291.345"
"1762","5264.311"
"1763","5246.479"
"1764","5250.894"
"1765","5289.842"
"1766","5348.801"
"1767","5388.48"
"1768","5377.652"
"1769","5341.224"
"1770","5325.531"
"1771","5354.754"
"1772","5401.135"
"1773","5430.405"
"1774","5428.745"
"1775","5402.049"
"1776","5358.634"
"1777","5317.03"
"1778","5299.748"
"1779","5312.924"
"1780","5324.37"
"1781","5298.551"
"1782","5245.844"
"1783","5220.029"
"1784","5264.304"
"1785","5346.776"
"1786","5407.456"
"1787","5412.351"
"1788","5384.729"
"1789","5354.277"
"1790","5328.404"
"1791","5295.069"
"1792","5246.152"
"1793","5198.241"
"1794","5176.137"
"1795","5191.243"
"1796","5229.066"
"1797","5272.184"
"1798","5304.085"
"1799","5308.938"
"1800","5278.666"
"1801","5239.943"
"1802","5228.84"
"1803","5256.782"
"1804","5295.763"
"1805","5316.156"
"1806","5310.091"
"1807","5283.124"
"1808","5242.137"
"1809","5197.869"
"1810","5161.921"
"1811","5145.561"
"1812","5159.639"
"1813","5209.92"
"1814","5262.647"
"1815","5265.506"
"1816","5197.1"
"1817","5114.728"
"1818","5085.294"
"1819","5119.024"
"1820","5173.649"
"1821","5211.014"
"1822","5225.774"
"1823","5223.381"
"1824","5206.538"
"1825","5173.081"
"1826","5121.974"
"1827","5070.908"
"1828","5049.656"
"1829","5077.061"
"1830","5133.721"
"1831","5192.029"
"1832","5225.26"
"1833","5207.742"
"1834","5123.273"
"1835","5019.518"
"1836","4970.432"
"1837","5010.457"
"1838","5090.402"
"1839","5152.909"
"1840","5176.797"
"1841","5167.645"
"1842","5133.388"
"1843","5088.545"
"1844","5049.181"
"1845","5028.248"
"1846","5034.769"
"1847","5073.779"
"1848","5123.764"
"1849","5151.789"
"1850","5142.361"
"1851","5117.202"
"1852","5100.986"
"1853","5093.146"
"1854","5074.884"
"1855","5039.124"
"1856","5022.646"
"1857","5070.367"
"1858","5171.142"
"1859","5249.181"
"1860","5239.685"
"1861","5168.08"
"1862","5093.69"
"1863","5052.395"
"1864","5037.505"
"1865","5038.304"
"1866","5048.854"
"1867","5066.053"
"1868","5085.089"
"1869","5096.271"
"1870","5089.781"
"1871","5070.292"
"1872","5055.48"
"1873","5058.387"
"1874","5069.49"
"1875","5073.298"
"1876","5064.327"
"1877","5050.197"
"1878","5038.709"
"1879","5032.823"
"1880","5033.478"
"1881","5039.662"
"1882","5046.725"
"1883","5049.541"
"1884","5042.46"
"1885","5019.533"
"1886","4984.275"
"1887","4965.395"
"1888","4992.721"
"1889","5045.712"
"1890","5062.805"
"1891","5003.374"
"1892","4909.938"
"1893","4843.382"
"1894","4832.749"
"1895","4872.486"
"1896","4949.84"
"1897","5024.168"
"1898","5046.727"
"1899","5013.919"
"1900","4986.063"
"1901","5016.125"
"1902","5071.741"
"1903","5084.894"
"1904","5034.837"
"1905","4986.587"
"1906","5004.707"
"1907","5065.221"
"1908","5096.657"
"1909","5060.751"
"1910","4995.715"
"1911","4947.869"
"1912","4933.046"
"1913","4946.925"
"1914","4978.864"
"1915","5001.709"
"1916","4987.573"
"1917","4942.878"
"1918","4901.189"
"1919","4887.942"
"1920","4898.595"
"1921","4922.151"
"1922","4944.021"
"1923","4946.302"
"1924","4920.558"
"1925","4896.091"
"1926","4909.869"
"1927","4956.801"
"1928","4987.814"
"1929","4964.42"
"1930","4905.301"
"1931","4844.858"
"1932","4806.818"
"1933","4802.534"
"1934","4835.489"
"1935","4873.425"
"1936","4874.167"
"1937","4840.969"
"1938","4834.017"
"1939","4899.604"
"1940","4989.314"
"1941","5024.277"
"1942","4979.86"
"1943","4903.273"
"1944","4841.136"
"1945","4808.125"
"1946","4807.497"
"1947","4830.227"
"1948","4850.584"
"1949","4846.393"
"1950","4823.278"
"1951","4796.771"
"1952","4780.749"
"1953","4786.779"
"1954","4820.027"
"1955","4849.976"
"1956","4834.246"
"1957","4767.846"
"1958","4696.125"
"1959","4660.684"
"1960","4662.155"
"1961","4687.007"
"1962","4716.737"
"1963","4726.467"
"1964","4700.096"
"1965","4669.355"
"1966","4680.073"
"1967","4730.98"
"1968","4763.979"
"1969","4732.502"
"1970","4661.165"
"1971","4595.258"
"1972","4568.646"
"1973","4602.565"
"1974","4701.039"
"1975","4798.411"
"1976","4813.917"
"1977","4743.003"
"1978","4656.15"
"1979","4607.717"
"1980","4581.253"
"1981","4546.665"
"1982","4518.249"
"1983","4548.379"
"1984","4652.916"
"1985","4731.615"
"1986","4673.239"
"1987","4526.303"
"1988","4455.812"
"1989","4550.191"
"1990","4696.077"
"1991","4760.614"
"1992","4743.418"
"1993","4723.96"
"1994","4737.382"
"1995","4725.233"
"1996","4631.445"
"1997","4514.457"
"1998","4487.357"
"1999","4574.069"
"2000","4651.833"
"2001","4610.445"
"2002","4502.601"
"2003","4440.917"
"2004","4459.373"
"2005","4491.077"
"2006","4478.59"
"2007","4438.69"
"2008","4408.539"
"2009","4406.132"
"2010","4430.631"
"2011","4474.936"
"2012","4513.816"
"2013","4520.539"
"2014","4501.346"
"2015","4486.703"
"2016","4492.89"
"2017","4500.849"
"2018","4489.867"
"2019","4471.74"
"2020","4475.254"
"2021","4497.697"
"2022","4482.542"
"2023","4392.889"
"2024","4342.599"
"2025","4495.796"
"2026","4808.52"
"2027","4987.524"
"2028","4826.54"
"2029","4528.213"
"2030","4383.448"
"2031","4439.314"
"2032","4540.777"
"2033","4572.389"
"2034","4538.644"
"2035","4465.177"
"2036","4395.348"
"2037","4381.951"
"2038","4434.096"
"2039","4486.413"
"2040","4480.582"
"2041","4441.844"
"2042","4423.792"
"2043","4435.057"
"2044","4434.429"
"2045","4394.524"
"2046","4345.559"
"2047","4327.06"
"2048","4334.374"
"2049","4331.649"
"2050","4298.397"
"2051","4248.027"
"2052","4198.696"
"2053","4171.356"
"2054","4187.198"
"2055","4228.013"
"2056","4224.9"
"2057","4136.407"
"2058","4045.256"
"2059","4057.716"
"2060","4159.545"
"2061","4242.843"
"2062","4251.352"
"2063","4251.716"
"2064","4311.338"
"2065","4375.228"
"2066","4335.263"
"2067","4181.341"
"2068","4031.45"
"2069","3984.458"
"2070","4028.44"
"2071","4123.496"
"2072","4221.281"
"2073","4267.279"
"2074","4242.368"
"2075","4202.282"
"2076","4201.557"
"2077","4222.564"
"2078","4219.581"
"2079","4189.455"
"2080","4178.091"
"2081","4212.002"
"2082","4244.089"
"2083","4218.958"
"2084","4160.026"
"2085","4139.348"
"2086","4192.066"
"2087","4289.325"
"2088","4391.176"
"2089","4433.686"
"2090","4350.457"
"2091","4174.703"
"2092","4027.99"
"2093","3988.383"
"2094","4020.807"
"2095","4075.23"
"2096","4115.921"
"2097","4114.358"
"2098","4072.362"
"2099","4028.188"
"2100","4017.248"
"2101","4057.879"
"2102","4157.441"
"2103","4245.054"
"2104","4204.711"
"2105","4024.443"
"2106","3855.166"
"2107","3821.704"
"2108","3871.209"
"2109","3907.739"
"2110","3916.186"
"2111","3941.716"
"2112","3997.522"
"2113","4032.238"
"2114","4001.317"
"2115","3938.546"
"2116","3902.564"
"2117","3915.907"
"2118","3968.754"
"2119","4039.899"
"2120","4084.829"
"2121","4064.014"
"2122","3992.402"
"2123","3906.939"
"2124","3849.239"
"2125","3865.523"
"2126","3963.309"
"2127","4049.21"
"2128","4030.57"
"2129","3940.548"
"2130","3866.222"
"2131","3837.307"
"2132","3819.703"
"2133","3792.837"
"2134","3783.323"
"2135","3819.149"
"2136","3874.613"
"2137","3899.809"
"2138","3877.816"
"2139","3829.808"
"2140","3776.231"
"2141","3729.263"
"2142","3699.168"
"2143","3692.225"
"2144","3712.263"
"2145","3745.907"
"2146","3760.235"
"2147","3740.767"
"2148","3727.502"
"2149","3759.444"
"2150","3796.705"
"2151","3767.063"
"2152","3692.121"
"2153","3694.696"
"2154","3827.056"
"2155","3945.993"
"2156","3904.856"
"2157","3747.476"
"2158","3594.977"
"2159","3530.014"
"2160","3597.181"
"2161","3777.894"
"2162","3913.323"
"2163","3861.816"
"2164","3696.959"
"2165","3564.286"
"2166","3513.201"
"2167","3511.84"
"2168","3525.304"
"2169","3517.923"
"2170","3472.69"
"2171","3461.587"
"2172","3570.672"
"2173","3725.249"
"2174","3740.655"
"2175","3579.872"
"2176","3439.627"
"2177","3470.349"
"2178","3575.995"
"2179","3618.148"
"2180","3595.754"
"2181","3581.601"
"2182","3595.287"
"2183","3591.01"
"2184","3542.237"
"2185","3486.063"
"2186","3464.67"
"2187","3481.469"
"2188","3523.139"
"2189","3559.274"
"2190","3544.332"
"2191","3471.881"
"2192","3413.404"
"2193","3425.934"
"2194","3458.07"
"2195","3434.345"
"2196","3361.317"
"2197","3297.909"
"2198","3279.411"
"2199","3307.457"
"2200","3366.602"
"2201","3397.406"
"2202","3348.539"
"2203","3286.441"
"2204","3322.038"
"2205","3430.559"
"2206","3462.453"
"2207","3362.837"
"2208","3269.676"
"2209","3300.195"
"2210","3384.385"
"2211","3411.045"
"2212","3370.375"
"2213","3312.059"
"2214","3261.367"
"2215","3212.755"
"2216","3173.594"
"2217","3189.025"
"2218","3288.847"
"2219","3380.112"
"2220","3337.743"
"2221","3206.382"
"2222","3155.229"
"2223","3228.667"
"2224","3278.702"
"2225","3201.467"
"2226","3083.23"
"2227","3034.139"
"2228","3067.381"
"2229","3153.164"
"2230","3234.371"
"2231","3231.198"
"2232","3136.783"
"2233","3070.995"
"2234","3114.851"
"2235","3164.641"
"2236","3096.535"
"2237","2956.132"
"2238","2865.261"
"2239","2863.211"
"2240","2911.781"
"2241","2977.175"
"2242","3039.169"
"2243","3081.606"
"2244","3098.462"
"2245","3084.541"
"2246","3022.587"
"2247","2893.639"
"2248","2763.443"
"2249","2775.682"
"2250","2945.683"
"2251","3053.265"
"2252","2937.448"
"2253","2739.872"
"2254","2646.208"
"2255","2657.772"
"2256","2694.341"
"2257","2722.973"
"2258","2752.027"
"2259","2772.205"
"2260","2743.16"
"2261","2648.44"
"2262","2556.885"
"2263","2536.12"
"2264","2534.601"
"2265","2461.545"
"2266","2348.672"
"2267","2318.056"
"2268","2387.589"
"2269","2427.571"
"2270","2368.522"
"2271","2326.929"
"2272","2408.914"
"2273","2511.486"
"2274","2480.94"
"2275","2342.916"
"2276","2229.258"
"2277","2193.75"
"2278","2202.578"
"2279","2219.255"
"2280","2211.083"
"2281","2160.629"
"2282","2106.86"
"2283","2090.412"
"2284","2064.176"
"2285","1949.44"
"2286","1799.016"
"2287","1770.203"
"2288","1887.978"
"2289","1982.845"
"2290","1940.51"
"2291","1829.884"
"2292","1731.998"
"2293","1642.704"
"2294","1538.018"
"2295","1452.712"
"2296","1450.68"
"2297","1514.661"
"2298","1548.903"
"2299","1520.922"
"2300","1510.64"
