,"Scan 00956"
"400","10385.16"
"401","10365.43"
"402","10343.69"
"403","10330.69"
"404","10337.16"
"405","10371.76"
"406","10426.27"
"407","10483.96"
"408","10528.14"
"409","10543.61"
"410","10532.77"
"411","10510.24"
"412","10490.79"
"413","10488.53"
"414","10506.42"
"415","10536.95"
"416","10572.31"
"417","10604.81"
"418","10629.87"
"419","10646.75"
"420","10654.91"
"421","10653.86"
"422","10642.62"
"423","10619.52"
"424","10582.86"
"425","10530.93"
"426","10466.96"
"427","10404.4"
"428","10357.87"
"429","10341.9"
"430","10363.3"
"431","10408.25"
"432","10459.58"
"433","10500.25"
"434","10518.22"
"435","10518.45"
"436","10509.52"
"437","10499.96"
"438","10496.61"
"439","10499.16"
"440","10505.29"
"441","10512.75"
"442","10519.32"
"443","10522.98"
"444","10521.79"
"445","10513.83"
"446","10497.46"
"447","10472.74"
"448","10440.47"
"449","10401.43"
"450","10357.22"
"451","10316.18"
"452","10289.94"
"453","10290.05"
"454","10325.57"
"455","10380.91"
"456","10426.39"
"457","10432.35"
"458","10372.64"
"459","10261.71"
"460","10140.73"
"461","10051.06"
"462","10030.8"
"463","10074.17"
"464","10142.64"
"465","10197.14"
"466","10200.95"
"467","10153.86"
"468","10086"
"469","10028.25"
"470","10009.92"
"471","10032.74"
"472","10073.22"
"473","10107.07"
"474","10111.13"
"475","10084.29"
"476","10047.34"
"477","10021.85"
"478","10028.47"
"479","10066.35"
"480","10111.91"
"481","10140.61"
"482","10128.86"
"483","10075.82"
"484","10006.06"
"485","9945.351"
"486","9918.651"
"487","9929.9"
"488","9958.662"
"489","9983.24"
"490","9982.563"
"491","9951.617"
"492","9904.521"
"493","9856.433"
"494","9822.027"
"495","9802.55"
"496","9783.066"
"497","9747.756"
"498","9681.408"
"499","9586.14"
"500","9484.941"
"501","9401.919"
"502","9360.307"
"503","9359.549"
"504","9370.876"
"505","9364.036"
"506","9309.844"
"507","9206.652"
"508","9084.561"
"509","8975.269"
"510","8909.402"
"511","8892.372"
"512","8901.716"
"513","8913.642"
"514","8905.205"
"515","8871.696"
"516","8827.471"
"517","8787.713"
"518","8766.904"
"519","8765.779"
"520","8771.634"
"521","8771.267"
"522","8752.188"
"523","8714.388"
"524","8669.077"
"525","8627.821"
"526","8601.442"
"527","8589.499"
"528","8582.326"
"529","8570.038"
"530","8543.611"
"531","8505.46"
"532","8466.405"
"533","8437.399"
"534","8428.429"
"535","8438.626"
"536","8460.082"
"537","8484.808"
"538","8505.064"
"539","8515.189"
"540","8510.709"
"541","8487.191"
"542","8441.817"
"543","8384.805"
"544","8332.669"
"545","8301.878"
"546","8305.507"
"547","8334.392"
"548","8370.326"
"549","8395.166"
"550","8394.21"
"551","8371.08"
"552","8335.561"
"553","8297.401"
"554","8265.366"
"555","8244.076"
"556","8237.009"
"557","8247.623"
"558","8276.427"
"559","8313.644"
"560","8347.316"
"561","8365.543"
"562","8361.073"
"563","8339.353"
"564","8307.962"
"565","8274.432"
"566","8244.601"
"567","8220.696"
"568","8204.468"
"569","8197.647"
"570","8201.176"
"571","8214.663"
"572","8237.6"
"573","8269.339"
"574","8304.042"
"575","8329.102"
"576","8331.519"
"577","8299.105"
"578","8237.332"
"579","8169.298"
"580","8118.764"
"581","8107.828"
"582","8135.426"
"583","8182.95"
"584","8231.426"
"585","8263.393"
"586","8275.456"
"587","8272.186"
"588","8258.223"
"589","8238.019"
"590","8214.851"
"591","8191.51"
"592","8170.775"
"593","8155.323"
"594","8147.422"
"595","8149.214"
"596","8162.829"
"597","8188.733"
"598","8222.053"
"599","8256.861"
"600","8287.263"
"601","8308.28"
"602","8316.95"
"603","8310.583"
"604","8286.573"
"605","8246.453"
"606","8198.102"
"607","8149.913"
"608","8110.118"
"609","8083.569"
"610","8071.528"
"611","8075.07"
"612","8094.842"
"613","8125.488"
"614","8157.258"
"615","8180.338"
"616","8186.082"
"617","8175.259"
"618","8153.275"
"619","8125.554"
"620","8097.541"
"621","8074.969"
"622","8063.63"
"623","8069.299"
"624","8093.506"
"625","8124.213"
"626","8146.72"
"627","8146.448"
"628","8118.285"
"629","8076.167"
"630","8036.271"
"631","8014.45"
"632","8016.053"
"633","8032.907"
"634","8055.972"
"635","8076.649"
"636","8093.225"
"637","8109.668"
"638","8130.107"
"639","8157.617"
"640","8186.164"
"641","8205.019"
"642","8203.444"
"643","8174.266"
"644","8127.838"
"645","8079.919"
"646","8046.218"
"647","8037.257"
"648","8048.801"
"649","8073.999"
"650","8106.021"
"651","8138.296"
"652","8164.65"
"653","8178.972"
"654","8175.446"
"655","8154.857"
"656","8124.685"
"657","8092.68"
"658","8066.295"
"659","8049.979"
"660","8046.384"
"661","8058.117"
"662","8086.258"
"663","8123.477"
"664","8159.571"
"665","8184.381"
"666","8191.625"
"667","8186.5"
"668","8176.309"
"669","8168.281"
"670","8166.191"
"671","8168.139"
"672","8171.706"
"673","8174.484"
"674","8174.203"
"675","8168.708"
"676","8155.87"
"677","8134.437"
"678","8111.002"
"679","8096.205"
"680","8100.701"
"681","8131.316"
"682","8178.278"
"683","8227.296"
"684","8264.148"
"685","8280.511"
"686","8281.23"
"687","8272.923"
"688","8262.148"
"689","8253.839"
"690","8251.003"
"691","8256.525"
"692","8272.523"
"693","8292.242"
"694","8303.252"
"695","8293.053"
"696","8253.664"
"697","8200.675"
"698","8157.357"
"699","8146.906"
"700","8180.343"
"701","8237.967"
"702","8295.316"
"703","8328.418"
"704","8329.367"
"705","8310.835"
"706","8286.819"
"707","8270.247"
"708","8261.672"
"709","8253.51"
"710","8238.04"
"711","8210.143"
"712","8177.956"
"713","8153.84"
"714","8150.116"
"715","8172.287"
"716","8209.804"
"717","8249.814"
"718","8279.81"
"719","8296.708"
"720","8308.274"
"721","8322.857"
"722","8347.571"
"723","8377.599"
"724","8401.412"
"725","8407.429"
"726","8388.366"
"727","8354.533"
"728","8320.739"
"729","8301.688"
"730","8305.14"
"731","8326.125"
"732","8358.317"
"733","8395.458"
"734","8432.249"
"735","8464.241"
"736","8487.018"
"737","8496.874"
"738","8494.702"
"739","8483.237"
"740","8465.2"
"741","8444.164"
"742","8425.984"
"743","8416.892"
"744","8422.94"
"745","8444.619"
"746","8475.697"
"747","8509.543"
"748","8539.872"
"749","8563.551"
"750","8579.169"
"751","8585.339"
"752","8581.763"
"753","8572.088"
"754","8560.872"
"755","8552.667"
"756","8551.865"
"757","8562.654"
"758","8589.179"
"759","8634.72"
"760","8691.646"
"761","8744.946"
"762","8779.487"
"763","8784.831"
"764","8771.401"
"765","8755.433"
"766","8753.018"
"767","8769.863"
"768","8793.251"
"769","8808.564"
"770","8802.43"
"771","8779.219"
"772","8756.755"
"773","8753.18"
"774","8781.82"
"775","8832.519"
"776","8887.955"
"777","8930.907"
"778","8953.472"
"779","8965.146"
"780","8977.322"
"781","9000.705"
"782","9035.793"
"783","9075.18"
"784","9111.274"
"785","9137.873"
"786","9155.458"
"787","9166.543"
"788","9173.631"
"789","9178.957"
"790","9184.285"
"791","9191.326"
"792","9201.556"
"793","9213.229"
"794","9222.3"
"795","9224.668"
"796","9217.521"
"797","9203.562"
"798","9186.971"
"799","9171.919"
"800","9162.167"
"801","9160.841"
"802","9171.002"
"803","9194.884"
"804","9225.73"
"805","9251.304"
"806","9259.306"
"807","9243.076"
"808","9215.479"
"809","9193.583"
"810","9194.083"
"811","9220.549"
"812","9260.115"
"813","9298.882"
"814","9324.628"
"815","9338.143"
"816","9346.335"
"817","9356.145"
"818","9371.362"
"819","9387.823"
"820","9400.124"
"821","9403.149"
"822","9397.578"
"823","9389.423"
"824","9384.894"
"825","9389.077"
"826","9401.19"
"827","9418.547"
"828","9438.458"
"829","9458.042"
"830","9474.09"
"831","9483.361"
"832","9483.062"
"833","9475.301"
"834","9465.23"
"835","9458.042"
"836","9458.165"
"837","9467.589"
"838","9487.803"
"839","9520.061"
"840","9559.114"
"841","9592.623"
"842","9607.897"
"843","9594.869"
"844","9559.298"
"845","9512.845"
"846","9467.168"
"847","9432.677"
"848","9417.477"
"849","9429.417"
"850","9474.949"
"851","9544.494"
"852","9618.259"
"853","9676.294"
"854","9704.687"
"855","9708.543"
"856","9696.729"
"857","9678.055"
"858","9660.363"
"859","9650.505"
"860","9655.282"
"861","9679.508"
"862","9717.483"
"863","9760.044"
"864","9798.083"
"865","9826.208"
"866","9844.897"
"867","9855.147"
"868","9858.156"
"869","9856.817"
"870","9854.902"
"871","9856.195"
"872","9863.896"
"873","9879.833"
"874","9905.628"
"875","9942.575"
"876","9987.179"
"877","10032.27"
"878","10070.59"
"879","10096.03"
"880","10106.56"
"881","10101.09"
"882","10078.84"
"883","10047.52"
"884","10023.97"
"885","10025.5"
"886","10063.42"
"887","10117.76"
"888","10158.35"
"889","10155.57"
"890","10107.42"
"891","10052.53"
"892","10032.72"
"893","10082.26"
"894","10179.41"
"895","10277.32"
"896","10329.25"
"897","10316.47"
"898","10274.78"
"899","10246.26"
"900","10268.39"
"901","10331.4"
"902","10397.77"
"903","10429.7"
"904","10408.06"
"905","10360.64"
"906","10322.54"
"907","10326.37"
"908","10370.37"
"909","10427.48"
"910","10470.05"
"911","10480.85"
"912","10475.57"
"913","10476.37"
"914","10504.23"
"915","10557.89"
"916","10616.33"
"917","10657.8"
"918","10665.05"
"919","10637.99"
"920","10580.65"
"921","10497.62"
"922","10407.45"
"923","10343.14"
"924","10338.39"
"925","10414.18"
"926","10534.22"
"927","10646.14"
"928","10698.79"
"929","10679.66"
"930","10621.52"
"931","10559.71"
"932","10523.87"
"933","10514.52"
"934","10522.99"
"935","10540.61"
"936","10560"
"937","10575.42"
"938","10581.22"
"939","10573.79"
"940","10560.56"
"941","10552.79"
"942","10561.58"
"943","10589.92"
"944","10629.85"
"945","10672.63"
"946","10709.74"
"947","10734.12"
"948","10739.24"
"949","10718.73"
"950","10675.81"
"951","10626.96"
"952","10589.64"
"953","10578.25"
"954","10589.28"
"955","10612.71"
"956","10638.56"
"957","10659.52"
"958","10671.92"
"959","10672.37"
"960","10659.45"
"961","10643.05"
"962","10637.06"
"963","10655.04"
"964","10696.68"
"965","10743.27"
"966","10774.82"
"967","10776.17"
"968","10758.12"
"969","10740.09"
"970","10741.04"
"971","10762.94"
"972","10786.75"
"973","10792.09"
"974","10764.05"
"975","10714.22"
"976","10662.2"
"977","10627.18"
"978","10615.72"
"979","10620.19"
"980","10632.25"
"981","10645.77"
"982","10664"
"983","10692.74"
"984","10737.23"
"985","10791.12"
"986","10836.59"
"987","10855.34"
"988","10836.17"
"989","10793.54"
"990","10747.66"
"991","10718.02"
"992","10711.51"
"993","10724.42"
"994","10752.72"
"995","10790.92"
"996","10829.26"
"997","10857.16"
"998","10865.06"
"999","10856.12"
"1000","10842.33"
"1001","10835.88"
"1002","10844.6"
"1003","10866.14"
"1004","10896.65"
"1005","10932.3"
"1006","10969.08"
"1007","11001.78"
"1008","11024.72"
"1009","11032.34"
"1010","11025.18"
"1011","11012.58"
"1012","11004.57"
"1013","11009.04"
"1014","11022.37"
"1015","11037.02"
"1016","11045.69"
"1017","11047.63"
"1018","11049.84"
"1019","11059.76"
"1020","11081.88"
"1021","11108.19"
"1022","11127.37"
"1023","11128.8"
"1024","11116.38"
"1025","11107.42"
"1026","11119.73"
"1027","11162.66"
"1028","11218.75"
"1029","11265.33"
"1030","11281.48"
"1031","11269.5"
"1032","11248.04"
"1033","11236.07"
"1034","11245.39"
"1035","11271.54"
"1036","11307.8"
"1037","11347.78"
"1038","11387.86"
"1039","11425.81"
"1040","11459.44"
"1041","11488.49"
"1042","11515.85"
"1043","11544.65"
"1044","11576.29"
"1045","11602.38"
"1046","11611.16"
"1047","11591.43"
"1048","11547.45"
"1049","11500.44"
"1050","11472.48"
"1051","11478.79"
"1052","11510.21"
"1053","11552.21"
"1054","11590.74"
"1055","11618.28"
"1056","11632.09"
"1057","11629.56"
"1058","11614.6"
"1059","11605.4"
"1060","11622.01"
"1061","11679.76"
"1062","11758.14"
"1063","11820.31"
"1064","11830.12"
"1065","11783.43"
"1066","11719.21"
"1067","11679.47"
"1068","11694.46"
"1069","11744.73"
"1070","11797.73"
"1071","11822.61"
"1072","11817.01"
"1073","11801.6"
"1074","11797.66"
"1075","11815.74"
"1076","11841.29"
"1077","11856.2"
"1078","11845.49"
"1079","11818.26"
"1080","11794.68"
"1081","11794.55"
"1082","11820.37"
"1083","11852.18"
"1084","11868.51"
"1085","11855.8"
"1086","11830.76"
"1087","11817.38"
"1088","11837.47"
"1089","11883.97"
"1090","11929.39"
"1091","11945.9"
"1092","11923.54"
"1093","11886.65"
"1094","11863.55"
"1095","11876.58"
"1096","11913.44"
"1097","11949.39"
"1098","11960.53"
"1099","11942.93"
"1100","11912.32"
"1101","11885.26"
"1102","11871.65"
"1103","11863.56"
"1104","11850.17"
"1105","11822.46"
"1106","11786.34"
"1107","11754.88"
"1108","11740.98"
"1109","11747.91"
"1110","11766.88"
"1111","11788.33"
"1112","11805.27"
"1113","11819.43"
"1114","11834.4"
"1115","11852.91"
"1116","11868.97"
"1117","11871.49"
"1118","11849.54"
"1119","11806.14"
"1120","11764.92"
"1121","11751.19"
"1122","11781.15"
"1123","11835.03"
"1124","11884.18"
"1125","11902.35"
"1126","11891.63"
"1127","11872.62"
"1128","11866.09"
"1129","11880.46"
"1130","11904.52"
"1131","11925.27"
"1132","11931.74"
"1133","11921.34"
"1134","11893.66"
"1135","11849.27"
"1136","11801.07"
"1137","11770.08"
"1138","11777.25"
"1139","11826.47"
"1140","11894.71"
"1141","11956.55"
"1142","11991.46"
"1143","11998.36"
"1144","11980.97"
"1145","11943.87"
"1146","11900.42"
"1147","11869.52"
"1148","11869.84"
"1149","11904"
"1150","11951.67"
"1151","11990.69"
"1152","12005.47"
"1153","12003.09"
"1154","11995.57"
"1155","11993.85"
"1156","11999.47"
"1157","12008.91"
"1158","12018.76"
"1159","12030.12"
"1160","12049.52"
"1161","12083.8"
"1162","12132.93"
"1163","12178"
"1164","12196.9"
"1165","12172.98"
"1166","12126.91"
"1167","12094.84"
"1168","12110.91"
"1169","12167.19"
"1170","12216.89"
"1171","12211.99"
"1172","12138.78"
"1173","12052.48"
"1174","12016.61"
"1175","12075.94"
"1176","12187.45"
"1177","12282.43"
"1178","12298.55"
"1179","12248.76"
"1180","12195.21"
"1181","12199.8"
"1182","12274.33"
"1183","12361.95"
"1184","12400.82"
"1185","12356.76"
"1186","12277.51"
"1187","12225.97"
"1188","12254.09"
"1189","12339.18"
"1190","12427.36"
"1191","12467.13"
"1192","12452.18"
"1193","12415.48"
"1194","12391.16"
"1195","12397.04"
"1196","12422.18"
"1197","12452.72"
"1198","12476.49"
"1199","12487.65"
"1200","12481.84"
"1201","12456.69"
"1202","12426.28"
"1203","12413.03"
"1204","12438.27"
"1205","12497.38"
"1206","12559.86"
"1207","12594.2"
"1208","12584.73"
"1209","12546.82"
"1210","12499.46"
"1211","12460.16"
"1212","12440.5"
"1213","12450.53"
"1214","12497.56"
"1215","12564.53"
"1216","12621.81"
"1217","12640.81"
"1218","12619.53"
"1219","12582.25"
"1220","12554.29"
"1221","12549.15"
"1222","12558.31"
"1223","12570.83"
"1224","12578.31"
"1225","12581.78"
"1226","12584.42"
"1227","12588.91"
"1228","12594.01"
"1229","12596.67"
"1230","12594.2"
"1231","12590.69"
"1232","12595.94"
"1233","12619.83"
"1234","12665.63"
"1235","12726.45"
"1236","12794.55"
"1237","12861.02"
"1238","12913.74"
"1239","12939.97"
"1240","12931.63"
"1241","12906.15"
"1242","12889.76"
"1243","12906.14"
"1244","12950.31"
"1245","12999.29"
"1246","13030.26"
"1247","13032.53"
"1248","13008.75"
"1249","12962.35"
"1250","12905.37"
"1251","12866.37"
"1252","12875.81"
"1253","12948.55"
"1254","13045.48"
"1255","13115.76"
"1256","13118.5"
"1257","13076.5"
"1258","13037.64"
"1259","13046"
"1260","13096.77"
"1261","13151.81"
"1262","13173.41"
"1263","13154.51"
"1264","13123.03"
"1265","13108.63"
"1266","13123.49"
"1267","13146.56"
"1268","13153.05"
"1269","13129.21"
"1270","13097.18"
"1271","13086.42"
"1272","13119.66"
"1273","13181.17"
"1274","13241.63"
"1275","13274.25"
"1276","13278.68"
"1277","13270.09"
"1278","13263.24"
"1279","13259.7"
"1280","13248.58"
"1281","13218.72"
"1282","13169.16"
"1283","13114.3"
"1284","13069.76"
"1285","13045.61"
"1286","13038.58"
"1287","13043.43"
"1288","13055.73"
"1289","13074.2"
"1290","13098.33"
"1291","13127.25"
"1292","13157.57"
"1293","13184.86"
"1294","13205.27"
"1295","13220.97"
"1296","13237.95"
"1297","13262.07"
"1298","13296.03"
"1299","13339.47"
"1300","13391.76"
"1301","13443.59"
"1302","13473.32"
"1303","13458.42"
"1304","13395.46"
"1305","13322.13"
"1306","13281.51"
"1307","13300.87"
"1308","13354.92"
"1309","13407.53"
"1310","13428.96"
"1311","13422.24"
"1312","13400.93"
"1313","13378.15"
"1314","13363.7"
"1315","13365.77"
"1316","13391.19"
"1317","13428.87"
"1318","13455.23"
"1319","13447.58"
"1320","13409.92"
"1321","13372.77"
"1322","13367.27"
"1323","13398.34"
"1324","13434.01"
"1325","13439.68"
"1326","13402.29"
"1327","13351.64"
"1328","13322.65"
"1329","13336.4"
"1330","13374.83"
"1331","13412.96"
"1332","13430.93"
"1333","13429.87"
"1334","13416.25"
"1335","13396.59"
"1336","13377.6"
"1337","13366.05"
"1338","13367.97"
"1339","13383.11"
"1340","13408.07"
"1341","13438.92"
"1342","13465.87"
"1343","13475.11"
"1344","13453.76"
"1345","13408.77"
"1346","13364.99"
"1347","13347.34"
"1348","13361.77"
"1349","13391.56"
"1350","13418.79"
"1351","13434.67"
"1352","13444.65"
"1353","13455.43"
"1354","13471.38"
"1355","13492.19"
"1356","13516.95"
"1357","13541.18"
"1358","13550.92"
"1359","13530.61"
"1360","13473.58"
"1361","13404.55"
"1362","13355.12"
"1363","13349.14"
"1364","13374.55"
"1365","13408.96"
"1366","13433.26"
"1367","13447.93"
"1368","13460.71"
"1369","13477.16"
"1370","13485.75"
"1371","13466.98"
"1372","13405.37"
"1373","13326.84"
"1374","13281.38"
"1375","13314.47"
"1376","13406.34"
"1377","13490.63"
"1378","13503.57"
"1379","13446.28"
"1380","13376"
"1381","13349.83"
"1382","13374.38"
"1383","13403.87"
"1384","13391.2"
"1385","13329.38"
"1386","13260.88"
"1387","13230.7"
"1388","13254.45"
"1389","13304.82"
"1390","13351.26"
"1391","13375.71"
"1392","13381.52"
"1393","13374.2"
"1394","13359.37"
"1395","13342.96"
"1396","13330.96"
"1397","13326.74"
"1398","13327.69"
"1399","13330.33"
"1400","13332"
"1401","13332.23"
"1402","13330.88"
"1403","13328.79"
"1404","13329.67"
"1405","13337.81"
"1406","13354.52"
"1407","13370.83"
"1408","13375.43"
"1409","13361.32"
"1410","13338.44"
"1411","13320.94"
"1412","13320.75"
"1413","13339.86"
"1414","13377.48"
"1415","13429.16"
"1416","13472.42"
"1417","13479.18"
"1418","13430.68"
"1419","13358.75"
"1420","13312.33"
"1421","13329.98"
"1422","13388.45"
"1423","13441.83"
"1424","13452.83"
"1425","13439.83"
"1426","13443.14"
"1427","13495.07"
"1428","13572.36"
"1429","13628.49"
"1430","13626.13"
"1431","13595.59"
"1432","13597.13"
"1433","13680.28"
"1434","13811.08"
"1435","13917.01"
"1436","13936.01"
"1437","13891.14"
"1438","13846.1"
"1439","13856.21"
"1440","13905.22"
"1441","13941.79"
"1442","13921.55"
"1443","13860.55"
"1444","13804.96"
"1445","13795.65"
"1446","13826.25"
"1447","13866.67"
"1448","13889.63"
"1449","13893.26"
"1450","13888.44"
"1451","13884"
"1452","13870.75"
"1453","13830.55"
"1454","13749.93"
"1455","13654.42"
"1456","13588.6"
"1457","13589.18"
"1458","13628.91"
"1459","13650.12"
"1460","13605.15"
"1461","13524.26"
"1462","13473.54"
"1463","13506.44"
"1464","13583.34"
"1465","13623.67"
"1466","13561.34"
"1467","13430.17"
"1468","13305.63"
"1469","13251.64"
"1470","13257.22"
"1471","13282.05"
"1472","13290.04"
"1473","13270.52"
"1474","13222.03"
"1475","13147.17"
"1476","13070.43"
"1477","13023.61"
"1478","13028.31"
"1479","13056"
"1480","13062.79"
"1481","13017.56"
"1482","12945.73"
"1483","12888.38"
"1484","12876.83"
"1485","12903.89"
"1486","12952.81"
"1487","13005.56"
"1488","13039.55"
"1489","13031.2"
"1490","12971.37"
"1491","12895.36"
"1492","12846.99"
"1493","12851.51"
"1494","12884.32"
"1495","12912.57"
"1496","12913.74"
"1497","12889.39"
"1498","12844.55"
"1499","12789"
"1500","12742.12"
"1501","12724.25"
"1502","12739.47"
"1503","12763.79"
"1504","12770.79"
"1505","12752.23"
"1506","12726.68"
"1507","12714.53"
"1508","12722.3"
"1509","12739.23"
"1510","12753.76"
"1511","12762.11"
"1512","12768.72"
"1513","12778.16"
"1514","12790"
"1515","12799.45"
"1516","12802.06"
"1517","12800.79"
"1518","12804.03"
"1519","12818.66"
"1520","12834.09"
"1521","12829.2"
"1522","12786.63"
"1523","12721.23"
"1524","12663.54"
"1525","12638.87"
"1526","12638.75"
"1527","12641.52"
"1528","12630.08"
"1529","12609.71"
"1530","12592.6"
"1531","12587.04"
"1532","12586.69"
"1533","12581.71"
"1534","12567.56"
"1535","12554.97"
"1536","12557.39"
"1537","12580.92"
"1538","12615.11"
"1539","12647.31"
"1540","12667.92"
"1541","12672.57"
"1542","12657.55"
"1543","12626.11"
"1544","12590.69"
"1545","12563.97"
"1546","12548.83"
"1547","12538.27"
"1548","12525.33"
"1549","12510.44"
"1550","12499.74"
"1551","12499.16"
"1552","12510.97"
"1553","12535.27"
"1554","12570.14"
"1555","12599.5"
"1556","12601.16"
"1557","12561.24"
"1558","12507.1"
"1559","12478.94"
"1560","12500.2"
"1561","12535.67"
"1562","12537.32"
"1563","12482.53"
"1564","12411.5"
"1565","12373.67"
"1566","12388.44"
"1567","12422.19"
"1568","12436.48"
"1569","12416.24"
"1570","12375.89"
"1571","12331.56"
"1572","12295.04"
"1573","12274.19"
"1574","12275.74"
"1575","12294.57"
"1576","12317.94"
"1577","12333.6"
"1578","12333.5"
"1579","12311.49"
"1580","12266.06"
"1581","12217.81"
"1582","12194.06"
"1583","12211.13"
"1584","12250.67"
"1585","12287.48"
"1586","12304.64"
"1587","12302.62"
"1588","12284.2"
"1589","12258.53"
"1590","12243.75"
"1591","12257.62"
"1592","12294.92"
"1593","12328.27"
"1594","12332.31"
"1595","12316.13"
"1596","12311.15"
"1597","12342.8"
"1598","12392.34"
"1599","12422.23"
"1600","12403.64"
"1601","12345.38"
"1602","12266.39"
"1603","12187.9"
"1604","12137.15"
"1605","12142.06"
"1606","12199.56"
"1607","12254.08"
"1608","12247.17"
"1609","12184.39"
"1610","12141.38"
"1611","12190.17"
"1612","12306.78"
"1613","12399.54"
"1614","12390.93"
"1615","12317.63"
"1616","12266.84"
"1617","12301.27"
"1618","12378.13"
"1619","12426.54"
"1620","12404.65"
"1621","12343.91"
"1622","12286.9"
"1623","12254.63"
"1624","12234.96"
"1625","12213.63"
"1626","12191.67"
"1627","12184.62"
"1628","12206.54"
"1629","12250.38"
"1630","12296.74"
"1631","12328.65"
"1632","12343.31"
"1633","12342.77"
"1634","12329.82"
"1635","12309.5"
"1636","12287.28"
"1637","12269.53"
"1638","12264.13"
"1639","12278.75"
"1640","12310.77"
"1641","12346.64"
"1642","12372.67"
"1643","12380.26"
"1644","12363.97"
"1645","12323.72"
"1646","12290.02"
"1647","12304.34"
"1648","12384.86"
"1649","12477.29"
"1650","12513.72"
"1651","12472"
"1652","12409.05"
"1653","12387.25"
"1654","12411.57"
"1655","12430.22"
"1656","12395.66"
"1657","12325.98"
"1658","12276.15"
"1659","12286.53"
"1660","12324.18"
"1661","12333.91"
"1662","12286.08"
"1663","12216"
"1664","12168.6"
"1665","12161.13"
"1666","12172.69"
"1667","12180.87"
"1668","12182.88"
"1669","12190.97"
"1670","12214.33"
"1671","12239.25"
"1672","12242.5"
"1673","12208.34"
"1674","12145.98"
"1675","12069.93"
"1676","11998.58"
"1677","11956.99"
"1678","11968.88"
"1679","12017.28"
"1680","12047.69"
"1681","12012.24"
"1682","11929.63"
"1683","11851.04"
"1684","11813.93"
"1685","11801.81"
"1686","11785.28"
"1687","11753.64"
"1688","11731.81"
"1689","11747.26"
"1690","11792.96"
"1691","11827.71"
"1692","11814.09"
"1693","11760.2"
"1694","11697.35"
"1695","11649.78"
"1696","11613.08"
"1697","11575.89"
"1698","11536.54"
"1699","11511.5"
"1700","11518.34"
"1701","11555.84"
"1702","11604.87"
"1703","11646.84"
"1704","11673.03"
"1705","11679.34"
"1706","11664.93"
"1707","11640.18"
"1708","11617.88"
"1709","11607.28"
"1710","11611.81"
"1711","11633.25"
"1712","11655.74"
"1713","11649.14"
"1714","11591.65"
"1715","11516.26"
"1716","11477.12"
"1717","11503.54"
"1718","11556.6"
"1719","11586.61"
"1720","11577.42"
"1721","11555.81"
"1722","11548.82"
"1723","11555.07"
"1724","11555.74"
"1725","11535.99"
"1726","11499.68"
"1727","11455.86"
"1728","11416.92"
"1729","11401.62"
"1730","11427.9"
"1731","11482.78"
"1732","11525.58"
"1733","11522.51"
"1734","11492.63"
"1735","11476.59"
"1736","11497.78"
"1737","11531.73"
"1738","11546.43"
"1739","11531.96"
"1740","11505.54"
"1741","11484.54"
"1742","11471.94"
"1743","11462.7"
"1744","11453.6"
"1745","11448.58"
"1746","11453.12"
"1747","11466.02"
"1748","11475.48"
"1749","11469.73"
"1750","11449.8"
"1751","11425.74"
"1752","11407.37"
"1753","11402.59"
"1754","11418.62"
"1755","11451.97"
"1756","11478.66"
"1757","11473.78"
"1758","11436.92"
"1759","11388.01"
"1760","11345.51"
"1761","11315.8"
"1762","11301.05"
"1763","11302.52"
"1764","11319.46"
"1765","11350.17"
"1766","11379.65"
"1767","11380.59"
"1768","11333.14"
"1769","11266.89"
"1770","11230.33"
"1771","11249.88"
"1772","11300.33"
"1773","11349.88"
"1774","11384.91"
"1775","11409.37"
"1776","11425.71"
"1777","11422.45"
"1778","11382.66"
"1779","11308"
"1780","11243.44"
"1781","11237.93"
"1782","11291.72"
"1783","11359.01"
"1784","11397.32"
"1785","11395.91"
"1786","11355.96"
"1787","11293.1"
"1788","11254.41"
"1789","11287.22"
"1790","11364.86"
"1791","11396.1"
"1792","11312.2"
"1793","11178.05"
"1794","11103.05"
"1795","11137.11"
"1796","11215.18"
"1797","11263.22"
"1798","11268.82"
"1799","11266.29"
"1800","11279.3"
"1801","11278.33"
"1802","11219.84"
"1803","11114.91"
"1804","11062.08"
"1805","11154.47"
"1806","11337.37"
"1807","11464.78"
"1808","11437.52"
"1809","11324.25"
"1810","11228.71"
"1811","11201.76"
"1812","11228"
"1813","11284.54"
"1814","11323.2"
"1815","11283.95"
"1816","11151.7"
"1817","11025.56"
"1818","11016.91"
"1819","11121.99"
"1820","11230.32"
"1821","11250.99"
"1822","11219.4"
"1823","11212.25"
"1824","11258.69"
"1825","11304.03"
"1826","11290.79"
"1827","11229.84"
"1828","11176.03"
"1829","11167.38"
"1830","11181.43"
"1831","11183.25"
"1832","11154.13"
"1833","11094.45"
"1834","11010.67"
"1835","10942.93"
"1836","10945.17"
"1837","11029.88"
"1838","11122.06"
"1839","11141.83"
"1840","11099.67"
"1841","11073.02"
"1842","11114.53"
"1843","11174.72"
"1844","11181.13"
"1845","11127.14"
"1846","11089.18"
"1847","11133.43"
"1848","11214.54"
"1849","11239.22"
"1850","11170.92"
"1851","11094.24"
"1852","11101.73"
"1853","11180.32"
"1854","11240.73"
"1855","11221.47"
"1856","11168.25"
"1857","11149.16"
"1858","11175.36"
"1859","11192.33"
"1860","11154.15"
"1861","11090.48"
"1862","11059.29"
"1863","11085.99"
"1864","11137.02"
"1865","11175.35"
"1866","11193.6"
"1867","11202.05"
"1868","11203.94"
"1869","11182.14"
"1870","11118.27"
"1871","11039.17"
"1872","11012.24"
"1873","11082.9"
"1874","11192.94"
"1875","11256.92"
"1876","11245.16"
"1877","11200.91"
"1878","11166.98"
"1879","11149.26"
"1880","11138.4"
"1881","11130.2"
"1882","11130.12"
"1883","11143.67"
"1884","11165.29"
"1885","11182.83"
"1886","11185.47"
"1887","11166.11"
"1888","11119.23"
"1889","11055.32"
"1890","10997.9"
"1891","10966.21"
"1892","10961.85"
"1893","10982.17"
"1894","11020.5"
"1895","11065.8"
"1896","11105.33"
"1897","11118.88"
"1898","11084.44"
"1899","11008.61"
"1900","10938.55"
"1901","10917.31"
"1902","10937.49"
"1903","10970.5"
"1904","11004.84"
"1905","11060.04"
"1906","11152.41"
"1907","11238.42"
"1908","11242.54"
"1909","11135.81"
"1910","10995.76"
"1911","10908.92"
"1912","10890.97"
"1913","10910.72"
"1914","10940.33"
"1915","10963.81"
"1916","10968.28"
"1917","10958.04"
"1918","10950.98"
"1919","10957.76"
"1920","10963.41"
"1921","10948.7"
"1922","10916.25"
"1923","10888.9"
"1924","10883.51"
"1925","10890.43"
"1926","10893.82"
"1927","10885.78"
"1928","10866.75"
"1929","10840.88"
"1930","10827.29"
"1931","10848.3"
"1932","10895.37"
"1933","10924.15"
"1934","10899.81"
"1935","10845.11"
"1936","10800.34"
"1937","10788.51"
"1938","10811.01"
"1939","10861.58"
"1940","10900.33"
"1941","10877.47"
"1942","10802.62"
"1943","10763.99"
"1944","10831.58"
"1945","10940.86"
"1946","10981.78"
"1947","10919.89"
"1948","10823.89"
"1949","10761.08"
"1950","10746.8"
"1951","10777.44"
"1952","10830.92"
"1953","10859.93"
"1954","10827.6"
"1955","10767.85"
"1956","10738.85"
"1957","10758.41"
"1958","10789.9"
"1959","10800.86"
"1960","10803.22"
"1961","10823.26"
"1962","10852.46"
"1963","10837.41"
"1964","10739.52"
"1965","10612.62"
"1966","10539.13"
"1967","10555.57"
"1968","10642.95"
"1969","10768.56"
"1970","10850.73"
"1971","10797.1"
"1972","10625.02"
"1973","10472.79"
"1974","10448.87"
"1975","10508.54"
"1976","10568.85"
"1977","10595.13"
"1978","10600.2"
"1979","10596.27"
"1980","10585.86"
"1981","10569.41"
"1982","10549.04"
"1983","10528.3"
"1984","10508.88"
"1985","10486.51"
"1986","10456.67"
"1987","10426.85"
"1988","10413.35"
"1989","10426.52"
"1990","10461.12"
"1991","10507.34"
"1992","10533.29"
"1993","10493.94"
"1994","10389.4"
"1995","10313.01"
"1996","10353.31"
"1997","10463.72"
"1998","10532.62"
"1999","10507.61"
"2000","10434.22"
"2001","10362.35"
"2002","10312.1"
"2003","10292.13"
"2004","10302.56"
"2005","10332.66"
"2006","10370.65"
"2007","10403.48"
"2008","10417.82"
"2009","10403.64"
"2010","10354.19"
"2011","10272.82"
"2012","10196.01"
"2013","10163.95"
"2014","10169.9"
"2015","10172.67"
"2016","10148.42"
"2017","10116.93"
"2018","10102.99"
"2019","10118.71"
"2020","10169.22"
"2021","10242.99"
"2022","10300.31"
"2023","10303.99"
"2024","10249.19"
"2025","10144.16"
"2026","10027.55"
"2027","9974.462"
"2028","10033.39"
"2029","10137.42"
"2030","10195.08"
"2031","10190.88"
"2032","10172.35"
"2033","10171.46"
"2034","10174.65"
"2035","10162.66"
"2036","10132.47"
"2037","10090.1"
"2038","10045.72"
"2039","10016.26"
"2040","10013.42"
"2041","10014.44"
"2042","9985.447"
"2043","9928.508"
"2044","9885.446"
"2045","9885.902"
"2046","9909.432"
"2047","9926.281"
"2048","9929.153"
"2049","9926.588"
"2050","9919.949"
"2051","9894.783"
"2052","9841.406"
"2053","9798.659"
"2054","9824.698"
"2055","9906.01"
"2056","9936.79"
"2057","9841.119"
"2058","9688.62"
"2059","9581.679"
"2060","9561.224"
"2061","9620.284"
"2062","9732.729"
"2063","9832.082"
"2064","9856.5"
"2065","9822.294"
"2066","9780.536"
"2067","9754.476"
"2068","9730.854"
"2069","9701.02"
"2070","9684.271"
"2071","9702.884"
"2072","9722.584"
"2073","9667.241"
"2074","9525.44"
"2075","9423.968"
"2076","9478.561"
"2077","9612.504"
"2078","9673.916"
"2079","9620.489"
"2080","9536.246"
"2081","9495.035"
"2082","9512.981"
"2083","9590.156"
"2084","9680.573"
"2085","9710.031"
"2086","9647.489"
"2087","9535.984"
"2088","9422.68"
"2089","9338.44"
"2090","9307.325"
"2091","9320.076"
"2092","9337.881"
"2093","9335.639"
"2094","9324.093"
"2095","9318.356"
"2096","9326.443"
"2097","9352.993"
"2098","9395.891"
"2099","9444.901"
"2100","9484.888"
"2101","9486.216"
"2102","9422.265"
"2103","9330.389"
"2104","9285.238"
"2105","9302.133"
"2106","9303.245"
"2107","9230.678"
"2108","9149.744"
"2109","9151.262"
"2110","9205.898"
"2111","9194.895"
"2112","9078.124"
"2113","8971.574"
"2114","8979.841"
"2115","9046.019"
"2116","9062.963"
"2117","9015.323"
"2118","8969.846"
"2119","8972.328"
"2120","9013.657"
"2121","9073.549"
"2122","9109.198"
"2123","9071.004"
"2124","8964.628"
"2125","8852.063"
"2126","8785.94"
"2127","8787.646"
"2128","8863.65"
"2129","8947.586"
"2130","8943.917"
"2131","8851.697"
"2132","8774.87"
"2133","8784.421"
"2134","8843.408"
"2135","8897.927"
"2136","8908.998"
"2137","8846.128"
"2138","8726.857"
"2139","8623.86"
"2140","8588.524"
"2141","8602.098"
"2142","8634.876"
"2143","8669.543"
"2144","8694.434"
"2145","8693.859"
"2146","8647.556"
"2147","8559.377"
"2148","8501.028"
"2149","8539.202"
"2150","8613.493"
"2151","8609.792"
"2152","8522.949"
"2153","8465.528"
"2154","8499.24"
"2155","8538.97"
"2156","8496.66"
"2157","8424.083"
"2158","8426.531"
"2159","8509.251"
"2160","8579.746"
"2161","8577.065"
"2162","8521.854"
"2163","8446.166"
"2164","8382.191"
"2165","8360.123"
"2166","8372.787"
"2167","8381.583"
"2168","8364.095"
"2169","8331.104"
"2170","8295.548"
"2171","8262.626"
"2172","8234.152"
"2173","8197.468"
"2174","8130.266"
"2175","8039.226"
"2176","7976.474"
"2177","7978.189"
"2178","8006.983"
"2179","8013.596"
"2180","7997.598"
"2181","7985.033"
"2182","7990.551"
"2183","8014.624"
"2184","8048.207"
"2185","8058.659"
"2186","8016.926"
"2187","7945.155"
"2188","7884.81"
"2189","7844.282"
"2190","7802.133"
"2191","7756.167"
"2192","7744.07"
"2193","7793.168"
"2194","7861.801"
"2195","7893.155"
"2196","7884.896"
"2197","7869.044"
"2198","7843.95"
"2199","7761.095"
"2200","7613.023"
"2201","7526.271"
"2202","7621.41"
"2203","7794.607"
"2204","7852.303"
"2205","7759.051"
"2206","7625.556"
"2207","7526.833"
"2208","7457.743"
"2209","7404.332"
"2210","7354.295"
"2211","7297.261"
"2212","7238.88"
"2213","7194.133"
"2214","7171.05"
"2215","7169.009"
"2216","7193.176"
"2217","7264.839"
"2218","7392.543"
"2219","7497.075"
"2220","7476.481"
"2221","7354.299"
"2222","7246.519"
"2223","7198.061"
"2224","7143.464"
"2225","7043.41"
"2226","6969.978"
"2227","6999.327"
"2228","7081.089"
"2229","7113.6"
"2230","7050.047"
"2231","6892.077"
"2232","6701.898"
"2233","6642.806"
"2234","6807.818"
"2235","7001.528"
"2236","6997.508"
"2237","6838.358"
"2238","6688.723"
"2239","6604.813"
"2240","6541.164"
"2241","6478.816"
"2242","6454.305"
"2243","6496.812"
"2244","6585.616"
"2245","6684.344"
"2246","6725.402"
"2247","6631.739"
"2248","6445.131"
"2249","6317.728"
"2250","6312.126"
"2251","6322.487"
"2252","6261.112"
"2253","6169.337"
"2254","6110.251"
"2255","6091.461"
"2256","6095.519"
"2257","6109.177"
"2258","6122.623"
"2259","6102.666"
"2260","5977.908"
"2261","5731.545"
"2262","5531.883"
"2263","5542.893"
"2264","5658.516"
"2265","5676.436"
"2266","5565.898"
"2267","5425.313"
"2268","5326.477"
"2269","5299.624"
"2270","5337.669"
"2271","5344.155"
"2272","5234.132"
"2273","5057.687"
"2274","4902.047"
"2275","4786.181"
"2276","4688.604"
"2277","4614.514"
"2278","4598.712"
"2279","4628.517"
"2280","4593.49"
"2281","4417.936"
"2282","4202.695"
"2283","4074.395"
"2284","4037.71"
"2285","4042.093"
"2286","4033.267"
"2287","3955.365"
"2288","3815.67"
"2289","3712.224"
"2290","3698.598"
"2291","3694.356"
"2292","3614.265"
"2293","3456.006"
"2294","3248.473"
"2295","3076.906"
"2296","3050.709"
"2297","3116.625"
"2298","3064.642"
"2299","2828.367"
"2300","2595.079"
