,"Scan 00981"
"400","12336.22"
"401","12308.91"
"402","12280.12"
"403","12252.05"
"404","12226.9"
"405","12206.85"
"406","12193.96"
"407","12190.27"
"408","12197.8"
"409","12217.95"
"410","12244.63"
"411","12266.51"
"412","12272.27"
"413","12251.37"
"414","12208.53"
"415","12162.63"
"416","12132.95"
"417","12138.17"
"418","12179.28"
"419","12235.57"
"420","12285.15"
"421","12306.43"
"422","12290.04"
"423","12246.11"
"424","12186.49"
"425","12122.9"
"426","12064.54"
"427","12015.42"
"428","11978.84"
"429","11958.09"
"430","11953.85"
"431","11959.76"
"432","11968.34"
"433","11972.18"
"434","11965.69"
"435","11949.6"
"436","11925.98"
"437","11896.88"
"438","11865.22"
"439","11837.68"
"440","11821.95"
"441","11825.67"
"442","11853.86"
"443","11897.4"
"444","11942.45"
"445","11975.24"
"446","11984.21"
"447","11972.06"
"448","11947.36"
"449","11918.66"
"450","11893.54"
"451","11872.25"
"452","11851.4"
"453","11827.63"
"454","11798.04"
"455","11764.38"
"456","11731.07"
"457","11702.53"
"458","11682.8"
"459","11671.75"
"460","11666.46"
"461","11663.98"
"462","11661.34"
"463","11654.58"
"464","11639.03"
"465","11610.06"
"466","11563.65"
"467","11506.23"
"468","11452.89"
"469","11418.92"
"470","11418.61"
"471","11449.12"
"472","11491.89"
"473","11527.87"
"474","11538.87"
"475","11522.95"
"476","11494.33"
"477","11467.84"
"478","11457.73"
"479","11466.06"
"480","11481.96"
"481","11494"
"482","11491.12"
"483","11471.09"
"484","11441.52"
"485","11410.49"
"486","11385.85"
"487","11369.7"
"488","11357.4"
"489","11344"
"490","11324.69"
"491","11298.71"
"492","11270.22"
"493","11243.59"
"494","11223.02"
"495","11206.56"
"496","11184.93"
"497","11148.43"
"498","11087.86"
"499","11008.04"
"500","10930.72"
"501","10878.52"
"502","10873.21"
"503","10912.41"
"504","10965.16"
"505","10998.98"
"506","10982.49"
"507","10911.68"
"508","10814.13"
"509","10719.03"
"510","10654.68"
"511","10629.2"
"512","10628.41"
"513","10637.05"
"514","10640.23"
"515","10630.62"
"516","10608.77"
"517","10575.6"
"518","10532.26"
"519","10484.99"
"520","10445.01"
"521","10423.69"
"522","10431.55"
"523","10463.79"
"524","10501.85"
"525","10526.75"
"526","10520.65"
"527","10482.98"
"528","10427.28"
"529","10367.47"
"530","10316.8"
"531","10280.76"
"532","10259.08"
"533","10251.35"
"534","10256.72"
"535","10268.79"
"536","10277.62"
"537","10273.23"
"538","10247.13"
"539","10204.74"
"540","10159.37"
"541","10124.35"
"542","10111.1"
"543","10116.12"
"544","10128.7"
"545","10138.1"
"546","10135.32"
"547","10122.56"
"548","10106.58"
"549","10094.11"
"550","10090.37"
"551","10092.53"
"552","10095.01"
"553","10092.27"
"554","10080.33"
"555","10062"
"556","10041.89"
"557","10024.61"
"558","10013.46"
"559","10007.18"
"560","10003.54"
"561","10000.31"
"562","9996.084"
"563","9991.691"
"564","9988.33"
"565","9987.183"
"566","9988.499"
"567","9990.509"
"568","9991.187"
"569","9988.527"
"570","9981.362"
"571","9969.911"
"572","9954.527"
"573","9935.573"
"574","9913.84"
"575","9890.688"
"576","9867.503"
"577","9845.677"
"578","9826.79"
"579","9812.62"
"580","9804.939"
"581","9805.225"
"582","9810.582"
"583","9814.811"
"584","9811.662"
"585","9795.875"
"586","9771.762"
"587","9749.021"
"588","9737.378"
"589","9744.551"
"590","9764.953"
"591","9787.551"
"592","9801.335"
"593","9797.751"
"594","9779.528"
"595","9752.664"
"596","9723.132"
"597","9695.778"
"598","9671.898"
"599","9652.073"
"600","9636.88"
"601","9627.602"
"602","9627.056"
"603","9638.265"
"604","9664.107"
"605","9699.737"
"606","9728.446"
"607","9732.575"
"608","9695.438"
"609","9623.896"
"610","9549.923"
"611","9506.591"
"612","9524.075"
"613","9593.546"
"614","9677.594"
"615","9738.286"
"616","9742.688"
"617","9698.201"
"618","9632.069"
"619","9571.588"
"620","9538.946"
"621","9530.616"
"622","9534.872"
"623","9540.03"
"624","9537.462"
"625","9528.224"
"626","9515.307"
"627","9501.68"
"628","9489.753"
"629","9480.819"
"630","9476.027"
"631","9476.489"
"632","9481.836"
"633","9489.787"
"634","9497.955"
"635","9504.076"
"636","9507.937"
"637","9511.024"
"638","9514.864"
"639","9520.665"
"640","9526.815"
"641","9530.263"
"642","9527.948"
"643","9517.146"
"644","9496.756"
"645","9466.173"
"646","9424.806"
"647","9374.921"
"648","9327.005"
"649","9292.971"
"650","9284.574"
"651","9303.784"
"652","9336.06"
"653","9365.312"
"654","9376.084"
"655","9366.734"
"656","9349.622"
"657","9337.696"
"658","9342.654"
"659","9363.305"
"660","9390.696"
"661","9415.798"
"662","9430.465"
"663","9431.326"
"664","9416.648"
"665","9384.711"
"666","9337.173"
"667","9285.719"
"668","9243.854"
"669","9224.926"
"670","9233.522"
"671","9259.861"
"672","9292.859"
"673","9321.759"
"674","9342.045"
"675","9354.993"
"676","9362.103"
"677","9364.938"
"678","9365.691"
"679","9366.883"
"680","9371.026"
"681","9379.371"
"682","9387.689"
"683","9390.259"
"684","9381.403"
"685","9360.05"
"686","9335.46"
"687","9318.27"
"688","9318.771"
"689","9336.974"
"690","9360.598"
"691","9376.675"
"692","9373.501"
"693","9353.721"
"694","9329.172"
"695","9311.819"
"696","9311.041"
"697","9322.759"
"698","9338.514"
"699","9349.861"
"700","9349.979"
"701","9336.13"
"702","9306.208"
"703","9258.362"
"704","9199.906"
"705","9149.899"
"706","9128.137"
"707","9151.865"
"708","9208.366"
"709","9265.219"
"710","9289.723"
"711","9258.492"
"712","9195.696"
"713","9140.685"
"714","9132.643"
"715","9188.524"
"716","9272.843"
"717","9342.6"
"718","9356.144"
"719","9309.778"
"720","9243.465"
"721","9199.492"
"722","9214.985"
"723","9277.313"
"724","9345.838"
"725","9379.681"
"726","9350.496"
"727","9281.14"
"728","9207.555"
"729","9165.425"
"730","9171.309"
"731","9206.697"
"732","9249.364"
"733","9278.027"
"734","9287.899"
"735","9288.523"
"736","9289.915"
"737","9300.233"
"738","9315.751"
"739","9328.003"
"740","9328.53"
"741","9313.203"
"742","9289.613"
"743","9267.297"
"744","9255.58"
"745","9257.191"
"746","9266.883"
"747","9278.937"
"748","9288.171"
"749","9294.37"
"750","9300.039"
"751","9307.713"
"752","9319.138"
"753","9333.2"
"754","9348.136"
"755","9362.204"
"756","9375.034"
"757","9388.36"
"758","9404.085"
"759","9423.723"
"760","9443.891"
"761","9457.893"
"762","9458.979"
"763","9442.537"
"764","9413.453"
"765","9379.255"
"766","9347.439"
"767","9323.216"
"768","9307.75"
"769","9301.795"
"770","9305.973"
"771","9319.154"
"772","9338.878"
"773","9362.646"
"774","9387.619"
"775","9409.23"
"776","9422.391"
"777","9422.068"
"778","9408.643"
"779","9392.616"
"780","9385.596"
"781","9398.404"
"782","9430.256"
"783","9471.406"
"784","9511.886"
"785","9542.87"
"786","9561.027"
"787","9564.688"
"788","9552.231"
"789","9525.927"
"790","9495.026"
"791","9469.506"
"792","9458.749"
"793","9464.334"
"794","9482.229"
"795","9508.273"
"796","9538.03"
"797","9565.835"
"798","9585.696"
"799","9591.705"
"800","9582.868"
"801","9565.88"
"802","9548.099"
"803","9536.334"
"804","9531.534"
"805","9531.072"
"806","9532.268"
"807","9533.464"
"808","9536.51"
"809","9544.013"
"810","9558.481"
"811","9578.825"
"812","9599.44"
"813","9614.445"
"814","9618.658"
"815","9612.341"
"816","9598.318"
"817","9579.434"
"818","9560.56"
"819","9551.724"
"820","9563.75"
"821","9606.481"
"822","9670.313"
"823","9727.716"
"824","9750.507"
"825","9718.77"
"826","9655.803"
"827","9598.969"
"828","9585.306"
"829","9626.556"
"830","9690.946"
"831","9742.426"
"832","9748.306"
"833","9712.785"
"834","9662.926"
"835","9626.111"
"836","9620.874"
"837","9637.215"
"838","9659.405"
"839","9672.082"
"840","9669.522"
"841","9656.516"
"842","9638.385"
"843","9620.358"
"844","9607.083"
"845","9602.991"
"846","9612.477"
"847","9636.16"
"848","9667.648"
"849","9699.78"
"850","9725.774"
"851","9743.021"
"852","9751.588"
"853","9751.585"
"854","9743.642"
"855","9730.036"
"856","9713.371"
"857","9696.299"
"858","9682.791"
"859","9678.157"
"860","9687.764"
"861","9714.814"
"862","9751.026"
"863","9784.341"
"864","9802.825"
"865","9803.204"
"866","9795.88"
"867","9792.462"
"868","9802.956"
"869","9823.327"
"870","9842.278"
"871","9848.474"
"872","9837.311"
"873","9820.366"
"874","9811.589"
"875","9824.011"
"876","9857.154"
"877","9900.227"
"878","9942.174"
"879","9973.365"
"880","9989.265"
"881","9986.482"
"882","9961.957"
"883","9921.348"
"884","9879.7"
"885","9852.517"
"886","9851.655"
"887","9869.919"
"888","9893.902"
"889","9910.387"
"890","9916.284"
"891","9923.36"
"892","9944.564"
"893","9989.963"
"894","10048.29"
"895","10098.74"
"896","10120.54"
"897","10105.89"
"898","10072.21"
"899","10039.84"
"900","10027.3"
"901","10034.6"
"902","10050.89"
"903","10065.18"
"904","10069.93"
"905","10066.25"
"906","10056.61"
"907","10043.55"
"908","10031.12"
"909","10024.46"
"910","10028.72"
"911","10045.85"
"912","10067.69"
"913","10084.08"
"914","10085.5"
"915","10074.42"
"916","10063.96"
"917","10067.59"
"918","10092.76"
"919","10123.59"
"920","10138.63"
"921","10117.48"
"922","10065.49"
"923","10014.74"
"924","9998.535"
"925","10040.46"
"926","10120.2"
"927","10205.1"
"928","10263.14"
"929","10281.62"
"930","10270.58"
"931","10241.3"
"932","10204.66"
"933","10169.36"
"934","10143.38"
"935","10134.54"
"936","10143.27"
"937","10160.56"
"938","10176.78"
"939","10183.86"
"940","10182.36"
"941","10175.77"
"942","10167.64"
"943","10162.03"
"944","10163.75"
"945","10177.65"
"946","10206.07"
"947","10236.66"
"948","10251.81"
"949","10234.25"
"950","10183.25"
"951","10121.08"
"952","10071.69"
"953","10054.87"
"954","10065.92"
"955","10091.26"
"956","10117.39"
"957","10137.07"
"958","10151.56"
"959","10162.79"
"960","10171.78"
"961","10174.4"
"962","10164.73"
"963","10137.03"
"964","10093.95"
"965","10049.28"
"966","10017.56"
"967","10010.6"
"968","10025.44"
"969","10054.22"
"970","10089.07"
"971","10122.04"
"972","10145.15"
"973","10150.37"
"974","10131.66"
"975","10092.49"
"976","10039.21"
"977","9978.28"
"978","9919.261"
"979","9875.177"
"980","9859.246"
"981","9880.271"
"982","9928.276"
"983","9988.295"
"984","10045.47"
"985","10087.52"
"986","10104.71"
"987","10087.4"
"988","10033.62"
"989","9969.051"
"990","9925.568"
"991","9933.114"
"992","9988.061"
"993","10058.61"
"994","10112.08"
"995","10128.27"
"996","10123.89"
"997","10122.43"
"998","10145.55"
"999","10191.29"
"1000","10241.29"
"1001","10276.91"
"1002","10286.86"
"1003","10277.37"
"1004","10257.14"
"1005","10234.93"
"1006","10218.21"
"1007","10206.1"
"1008","10194.24"
"1009","10178.33"
"1010","10157.32"
"1011","10134.82"
"1012","10114.77"
"1013","10101.08"
"1014","10097.22"
"1015","10106.52"
"1016","10132.09"
"1017","10169.84"
"1018","10207.25"
"1019","10231.27"
"1020","10233.06"
"1021","10221.45"
"1022","10209.92"
"1023","10211.44"
"1024","10228.28"
"1025","10252.82"
"1026","10277.04"
"1027","10294.98"
"1028","10307.14"
"1029","10315.28"
"1030","10321.06"
"1031","10324.65"
"1032","10325.2"
"1033","10321.85"
"1034","10314.45"
"1035","10304.46"
"1036","10293.57"
"1037","10283.78"
"1038","10279.47"
"1039","10286.27"
"1040","10309.67"
"1041","10347.36"
"1042","10384.45"
"1043","10404.95"
"1044","10396.86"
"1045","10370.5"
"1046","10343.91"
"1047","10334.69"
"1048","10347.34"
"1049","10372.04"
"1050","10398.25"
"1051","10417.13"
"1052","10425.96"
"1053","10423.34"
"1054","10408.33"
"1055","10386.07"
"1056","10366.09"
"1057","10358.02"
"1058","10367.03"
"1059","10388.52"
"1060","10416.6"
"1061","10445.68"
"1062","10472.58"
"1063","10495.18"
"1064","10511.36"
"1065","10518.89"
"1066","10515.33"
"1067","10498.26"
"1068","10467.94"
"1069","10436.1"
"1070","10417.49"
"1071","10425.72"
"1072","10455.74"
"1073","10487.4"
"1074","10500.18"
"1075","10482.88"
"1076","10446.15"
"1077","10403.78"
"1078","10368.82"
"1079","10348.9"
"1080","10349.12"
"1081","10374.27"
"1082","10417.38"
"1083","10456.19"
"1084","10467.43"
"1085","10437.57"
"1086","10390.45"
"1087","10358.88"
"1088","10372.91"
"1089","10425.81"
"1090","10484.8"
"1091","10516.67"
"1092","10506.49"
"1093","10474.55"
"1094","10445.19"
"1095","10438.5"
"1096","10450.02"
"1097","10466.46"
"1098","10474.85"
"1099","10469.84"
"1100","10453.6"
"1101","10428.62"
"1102","10398.88"
"1103","10372.38"
"1104","10357.74"
"1105","10361.92"
"1106","10378.04"
"1107","10392.57"
"1108","10392.2"
"1109","10374.17"
"1110","10348.96"
"1111","10327.94"
"1112","10320.43"
"1113","10328.9"
"1114","10354.39"
"1115","10396.6"
"1116","10441.9"
"1117","10468.78"
"1118","10456.02"
"1119","10403.53"
"1120","10342.48"
"1121","10306.56"
"1122","10319.12"
"1123","10362.63"
"1124","10409.44"
"1125","10433.99"
"1126","10434.95"
"1127","10426.9"
"1128","10424.51"
"1129","10432.49"
"1130","10439.63"
"1131","10433.28"
"1132","10405.05"
"1133","10364.39"
"1134","10325.32"
"1135","10300.89"
"1136","10291.78"
"1137","10290.44"
"1138","10289.27"
"1139","10285.39"
"1140","10283.41"
"1141","10288.63"
"1142","10303.25"
"1143","10317.29"
"1144","10317.7"
"1145","10293.43"
"1146","10255.42"
"1147","10228.29"
"1148","10236.52"
"1149","10284.71"
"1150","10349.08"
"1151","10403.61"
"1152","10429.27"
"1153","10431.23"
"1154","10419.86"
"1155","10405.16"
"1156","10393.23"
"1157","10388.15"
"1158","10393.86"
"1159","10410.06"
"1160","10431.48"
"1161","10452.49"
"1162","10468.76"
"1163","10479.36"
"1164","10483.96"
"1165","10482.9"
"1166","10481.04"
"1167","10485.15"
"1168","10501.24"
"1169","10520.54"
"1170","10520.59"
"1171","10478.58"
"1172","10395.2"
"1173","10318.29"
"1174","10301.44"
"1175","10379.52"
"1176","10500.16"
"1177","10585.5"
"1178","10565.18"
"1179","10458.66"
"1180","10344.05"
"1181","10299.22"
"1182","10346.01"
"1183","10429.41"
"1184","10488.87"
"1185","10486.4"
"1186","10451.03"
"1187","10424.15"
"1188","10440.05"
"1189","10484.55"
"1190","10523.27"
"1191","10523.54"
"1192","10485.53"
"1193","10437.98"
"1194","10410.43"
"1195","10418.45"
"1196","10452.95"
"1197","10502.31"
"1198","10554.52"
"1199","10596.11"
"1200","10613.24"
"1201","10595.3"
"1202","10559.07"
"1203","10535.08"
"1204","10552.55"
"1205","10607.73"
"1206","10664.04"
"1207","10683.62"
"1208","10652.82"
"1209","10605.39"
"1210","10580.61"
"1211","10605.14"
"1212","10654.55"
"1213","10691.45"
"1214","10683.03"
"1215","10636.87"
"1216","10581.41"
"1217","10544.47"
"1218","10535.65"
"1219","10546.51"
"1220","10567.85"
"1221","10592.83"
"1222","10618.95"
"1223","10644.2"
"1224","10665.72"
"1225","10677.54"
"1226","10672.93"
"1227","10647.51"
"1228","10614.28"
"1229","10594.22"
"1230","10606.93"
"1231","10647.56"
"1232","10690.48"
"1233","10709.73"
"1234","10697.95"
"1235","10676.38"
"1236","10668.73"
"1237","10688.67"
"1238","10721.25"
"1239","10746.44"
"1240","10748.65"
"1241","10736.89"
"1242","10728.65"
"1243","10739.65"
"1244","10765.95"
"1245","10791.22"
"1246","10799.47"
"1247","10788.86"
"1248","10773.11"
"1249","10766.67"
"1250","10775.79"
"1251","10791.04"
"1252","10801.21"
"1253","10799.46"
"1254","10794.23"
"1255","10797.25"
"1256","10817.49"
"1257","10846.36"
"1258","10868.32"
"1259","10869.24"
"1260","10852.56"
"1261","10833.78"
"1262","10828.15"
"1263","10837.99"
"1264","10850.87"
"1265","10853.62"
"1266","10841.72"
"1267","10827.01"
"1268","10823.18"
"1269","10838.46"
"1270","10863.14"
"1271","10883.89"
"1272","10889.93"
"1273","10884.96"
"1274","10877.8"
"1275","10876.45"
"1276","10880.08"
"1277","10882.67"
"1278","10878.42"
"1279","10867.45"
"1280","10855.45"
"1281","10848.29"
"1282","10848.14"
"1283","10851.68"
"1284","10855.15"
"1285","10856.09"
"1286","10855.21"
"1287","10853.67"
"1288","10852.62"
"1289","10853.18"
"1290","10856.43"
"1291","10862.96"
"1292","10870.22"
"1293","10874.4"
"1294","10872.25"
"1295","10866.89"
"1296","10865.46"
"1297","10874.78"
"1298","10893.51"
"1299","10912.59"
"1300","10922.73"
"1301","10919.91"
"1302","10907.59"
"1303","10889.83"
"1304","10870.79"
"1305","10854.9"
"1306","10846.6"
"1307","10848.46"
"1308","10856.77"
"1309","10866.52"
"1310","10873.33"
"1311","10876.15"
"1312","10874.96"
"1313","10870.19"
"1314","10865.87"
"1315","10867.76"
"1316","10880.91"
"1317","10901.14"
"1318","10917.82"
"1319","10920.74"
"1320","10912.46"
"1321","10908.28"
"1322","10923.66"
"1323","10957.17"
"1324","10983.51"
"1325","10975.74"
"1326","10928.19"
"1327","10877.51"
"1328","10865.37"
"1329","10913.34"
"1330","10985.96"
"1331","11037.71"
"1332","11036.22"
"1333","11002.86"
"1334","10972.73"
"1335","10974.28"
"1336","10997.01"
"1337","11016.27"
"1338","11010.81"
"1339","10988.26"
"1340","10970.74"
"1341","10978.6"
"1342","11008.36"
"1343","11040.35"
"1344","11055.38"
"1345","11049.12"
"1346","11030.79"
"1347","11009.95"
"1348","10991.69"
"1349","10975.81"
"1350","10961.76"
"1351","10947.12"
"1352","10926.59"
"1353","10894.64"
"1354","10853.65"
"1355","10822.15"
"1356","10820.65"
"1357","10855.66"
"1358","10896.2"
"1359","10905.04"
"1360","10859.67"
"1361","10789.37"
"1362","10734.84"
"1363","10727.07"
"1364","10752.29"
"1365","10783.85"
"1366","10798.34"
"1367","10791.93"
"1368","10768.01"
"1369","10730.35"
"1370","10685.79"
"1371","10642.55"
"1372","10608.82"
"1373","10591.92"
"1374","10598.68"
"1375","10634.63"
"1376","10687.47"
"1377","10732.2"
"1378","10744.97"
"1379","10727.31"
"1380","10702.73"
"1381","10694.54"
"1382","10702.53"
"1383","10702.1"
"1384","10668.39"
"1385","10606.78"
"1386","10560.04"
"1387","10572.51"
"1388","10648.97"
"1389","10736.46"
"1390","10777.84"
"1391","10751.51"
"1392","10696.76"
"1393","10658.72"
"1394","10659.51"
"1395","10675.11"
"1396","10676.04"
"1397","10647.91"
"1398","10611.41"
"1399","10592.19"
"1400","10602.57"
"1401","10618.95"
"1402","10611.74"
"1403","10566.31"
"1404","10514.13"
"1405","10495.53"
"1406","10535.73"
"1407","10606.8"
"1408","10669.11"
"1409","10692.24"
"1410","10682.35"
"1411","10654.71"
"1412","10624.25"
"1413","10604.44"
"1414","10608.35"
"1415","10643.01"
"1416","10685.77"
"1417","10704.76"
"1418","10676.16"
"1419","10619.82"
"1420","10570.38"
"1421","10555.75"
"1422","10564.1"
"1423","10568.94"
"1424","10548.72"
"1425","10513.48"
"1426","10485.71"
"1427","10484.55"
"1428","10505.85"
"1429","10535.71"
"1430","10562.28"
"1431","10588.99"
"1432","10626.02"
"1433","10679.88"
"1434","10728.72"
"1435","10737.6"
"1436","10679.27"
"1437","10588.37"
"1438","10529.16"
"1439","10556.57"
"1440","10647.34"
"1441","10739.84"
"1442","10778.81"
"1443","10764.86"
"1444","10726.42"
"1445","10690.96"
"1446","10675.85"
"1447","10693.38"
"1448","10751.5"
"1449","10822.02"
"1450","10858.48"
"1451","10821.59"
"1452","10732.81"
"1453","10643.87"
"1454","10600.63"
"1455","10598.74"
"1456","10609.31"
"1457","10606.57"
"1458","10590.93"
"1459","10575.31"
"1460","10571.35"
"1461","10580.33"
"1462","10598.82"
"1463","10622.03"
"1464","10635.78"
"1465","10621.74"
"1466","10565.89"
"1467","10483.72"
"1468","10403.02"
"1469","10346.88"
"1470","10308.04"
"1471","10267.39"
"1472","10210.29"
"1473","10148.8"
"1474","10104.69"
"1475","10094.44"
"1476","10105.99"
"1477","10117.68"
"1478","10111.62"
"1479","10088.66"
"1480","10055.37"
"1481","10018.13"
"1482","9982.432"
"1483","9953.559"
"1484","9935.483"
"1485","9927.053"
"1486","9925.848"
"1487","9928.895"
"1488","9931.274"
"1489","9927.645"
"1490","9914.338"
"1491","9892.861"
"1492","9865.715"
"1493","9835.843"
"1494","9807.363"
"1495","9784.588"
"1496","9769.215"
"1497","9756.823"
"1498","9742.182"
"1499","9726.234"
"1500","9722.36"
"1501","9745.224"
"1502","9791.765"
"1503","9828.34"
"1504","9818.831"
"1505","9757.645"
"1506","9684.176"
"1507","9640.683"
"1508","9641.017"
"1509","9663.497"
"1510","9684.652"
"1511","9693.301"
"1512","9691.235"
"1513","9680.9"
"1514","9665.41"
"1515","9648.474"
"1516","9633.591"
"1517","9621.128"
"1518","9609.145"
"1519","9596.061"
"1520","9584.642"
"1521","9580.274"
"1522","9587.358"
"1523","9601.886"
"1524","9615.749"
"1525","9621.146"
"1526","9612.408"
"1527","9584.699"
"1528","9537.057"
"1529","9487.478"
"1530","9459.772"
"1531","9471.019"
"1532","9512.779"
"1533","9570.579"
"1534","9627.336"
"1535","9658.48"
"1536","9638.161"
"1537","9563.512"
"1538","9482.916"
"1539","9451.272"
"1540","9484.916"
"1541","9533.941"
"1542","9542.875"
"1543","9497.111"
"1544","9436.081"
"1545","9401.606"
"1546","9403.362"
"1547","9418.396"
"1548","9423.546"
"1549","9414.792"
"1550","9402.905"
"1551","9398.249"
"1552","9403.08"
"1553","9414.938"
"1554","9430.618"
"1555","9442.137"
"1556","9439.446"
"1557","9415.979"
"1558","9382.494"
"1559","9355.117"
"1560","9342.952"
"1561","9330.479"
"1562","9296.806"
"1563","9234.565"
"1564","9169.85"
"1565","9133.639"
"1566","9137.452"
"1567","9158.482"
"1568","9170.805"
"1569","9163.75"
"1570","9145.937"
"1571","9126.936"
"1572","9110.632"
"1573","9095.749"
"1574","9081.346"
"1575","9072.446"
"1576","9077.902"
"1577","9104.18"
"1578","9139.674"
"1579","9164.73"
"1580","9164.317"
"1581","9145.886"
"1582","9123.645"
"1583","9110.75"
"1584","9116.998"
"1585","9151.437"
"1586","9208.333"
"1587","9250.82"
"1588","9238.93"
"1589","9174.286"
"1590","9117.612"
"1591","9131.015"
"1592","9207.744"
"1593","9274.735"
"1594","9263.297"
"1595","9188.264"
"1596","9118.541"
"1597","9113.296"
"1598","9157.341"
"1599","9203.948"
"1600","9216.871"
"1601","9205.558"
"1602","9191.699"
"1603","9190.19"
"1604","9197.7"
"1605","9207.889"
"1606","9214.84"
"1607","9213.356"
"1608","9198.751"
"1609","9178.452"
"1610","9173.161"
"1611","9201.44"
"1612","9244.463"
"1613","9257.035"
"1614","9203.06"
"1615","9116.998"
"1616","9064.541"
"1617","9092.054"
"1618","9162.761"
"1619","9217.771"
"1620","9221.904"
"1621","9199.967"
"1622","9185.783"
"1623","9193.091"
"1624","9204.706"
"1625","9201.68"
"1626","9183.724"
"1627","9168.302"
"1628","9171.725"
"1629","9191.214"
"1630","9212.854"
"1631","9225.938"
"1632","9238.228"
"1633","9263.823"
"1634","9308.881"
"1635","9354.83"
"1636","9378.429"
"1637","9369.599"
"1638","9341.907"
"1639","9311.311"
"1640","9291.356"
"1641","9293.036"
"1642","9325.064"
"1643","9371.925"
"1644","9402.839"
"1645","9393.99"
"1646","9363.344"
"1647","9343.831"
"1648","9356.355"
"1649","9384.263"
"1650","9403.754"
"1651","9404.608"
"1652","9400.085"
"1653","9405.271"
"1654","9423.58"
"1655","9446.873"
"1656","9465.952"
"1657","9466.391"
"1658","9430.812"
"1659","9349.474"
"1660","9250.055"
"1661","9171.599"
"1662","9139.582"
"1663","9144.933"
"1664","9173.094"
"1665","9206.183"
"1666","9221.742"
"1667","9198.975"
"1668","9147.294"
"1669","9099.258"
"1670","9082.472"
"1671","9087.06"
"1672","9087.698"
"1673","9065.202"
"1674","9021.093"
"1675","8961.293"
"1676","8899.187"
"1677","8860.97"
"1678","8872.064"
"1679","8916.347"
"1680","8939.343"
"1681","8894.21"
"1682","8808.672"
"1683","8746.828"
"1684","8752.874"
"1685","8792.875"
"1686","8814.193"
"1687","8788.146"
"1688","8731.855"
"1689","8667.36"
"1690","8610.757"
"1691","8572.266"
"1692","8560.301"
"1693","8569.793"
"1694","8588.791"
"1695","8604.797"
"1696","8603.458"
"1697","8570.102"
"1698","8507.27"
"1699","8449.811"
"1700","8434.46"
"1701","8461.447"
"1702","8496.407"
"1703","8507.064"
"1704","8488.701"
"1705","8449.584"
"1706","8400.269"
"1707","8358.946"
"1708","8345.29"
"1709","8363.887"
"1710","8394.56"
"1711","8415.236"
"1712","8411.017"
"1713","8372.797"
"1714","8297.581"
"1715","8219.51"
"1716","8187.052"
"1717","8223.219"
"1718","8281.134"
"1719","8303.064"
"1720","8272.354"
"1721","8224.978"
"1722","8197.533"
"1723","8195.181"
"1724","8203.809"
"1725","8209.733"
"1726","8202.507"
"1727","8172.689"
"1728","8126.66"
"1729","8101.199"
"1730","8133.68"
"1731","8205.662"
"1732","8248.679"
"1733","8206.749"
"1734","8119.577"
"1735","8065.98"
"1736","8093.087"
"1737","8160.257"
"1738","8212.767"
"1739","8228.795"
"1740","8226.839"
"1741","8225.791"
"1742","8224.359"
"1743","8210.021"
"1744","8174.129"
"1745","8123.019"
"1746","8066.65"
"1747","8022.013"
"1748","8017.149"
"1749","8076.795"
"1750","8168.835"
"1751","8221.106"
"1752","8182.151"
"1753","8103.11"
"1754","8065.154"
"1755","8099.081"
"1756","8139.264"
"1757","8113.488"
"1758","8024.199"
"1759","7935.959"
"1760","7904.369"
"1761","7923.411"
"1762","7965.585"
"1763","8007.447"
"1764","8034.521"
"1765","8034.322"
"1766","8011.081"
"1767","7984.466"
"1768","7971.352"
"1769","7967.506"
"1770","7960.638"
"1771","7945.469"
"1772","7933.161"
"1773","7936.631"
"1774","7955.633"
"1775","7977.23"
"1776","7988.792"
"1777","7983.068"
"1778","7954.942"
"1779","7908.153"
"1780","7867.149"
"1781","7858.01"
"1782","7878.22"
"1783","7898.208"
"1784","7892.066"
"1785","7862.842"
"1786","7824.461"
"1787","7793.57"
"1788","7792.662"
"1789","7842.998"
"1790","7928.421"
"1791","8000.107"
"1792","8016.439"
"1793","7981.05"
"1794","7912.809"
"1795","7834.754"
"1796","7777.906"
"1797","7772.065"
"1798","7814.849"
"1799","7879.501"
"1800","7940.136"
"1801","7977.771"
"1802","7975.546"
"1803","7932.604"
"1804","7873.677"
"1805","7824.671"
"1806","7798.434"
"1807","7799.785"
"1808","7828.36"
"1809","7866.244"
"1810","7892.087"
"1811","7899.387"
"1812","7900.236"
"1813","7903.931"
"1814","7888.719"
"1815","7818.281"
"1816","7685.098"
"1817","7554.824"
"1818","7501.482"
"1819","7534.414"
"1820","7603.05"
"1821","7661.631"
"1822","7702.511"
"1823","7730.57"
"1824","7746.746"
"1825","7745.021"
"1826","7719.958"
"1827","7681.259"
"1828","7648.369"
"1829","7635.732"
"1830","7639.983"
"1831","7653.867"
"1832","7667.575"
"1833","7668.32"
"1834","7646.469"
"1835","7614.981"
"1836","7596.129"
"1837","7599.261"
"1838","7606.382"
"1839","7597.72"
"1840","7577.897"
"1841","7569.617"
"1842","7587.935"
"1843","7616.654"
"1844","7632.398"
"1845","7626.835"
"1846","7610.63"
"1847","7595.204"
"1848","7588.593"
"1849","7597.35"
"1850","7623.224"
"1851","7657.753"
"1852","7690.718"
"1853","7706.178"
"1854","7684.038"
"1855","7618.273"
"1856","7554.09"
"1857","7546.542"
"1858","7595.221"
"1859","7635.774"
"1860","7614.293"
"1861","7563.31"
"1862","7547.66"
"1863","7590.92"
"1864","7641.974"
"1865","7646.813"
"1866","7604.61"
"1867","7546.264"
"1868","7499.502"
"1869","7481.756"
"1870","7507.124"
"1871","7559.845"
"1872","7597.376"
"1873","7588.946"
"1874","7560.129"
"1875","7551.32"
"1876","7574.378"
"1877","7603.801"
"1878","7614.239"
"1879","7598.851"
"1880","7558.529"
"1881","7505.926"
"1882","7475.65"
"1883","7499.256"
"1884","7550.604"
"1885","7569.433"
"1886","7523.709"
"1887","7457.945"
"1888","7426.827"
"1889","7443.524"
"1890","7487.422"
"1891","7536.476"
"1892","7567.175"
"1893","7556.704"
"1894","7512.035"
"1895","7472.47"
"1896","7470.101"
"1897","7491.114"
"1898","7507.206"
"1899","7502.225"
"1900","7477.247"
"1901","7435.924"
"1902","7390.63"
"1903","7357.348"
"1904","7341.595"
"1905","7329.924"
"1906","7309.295"
"1907","7289.02"
"1908","7290.375"
"1909","7321.025"
"1910","7357.469"
"1911","7374.076"
"1912","7372.093"
"1913","7370.536"
"1914","7379.737"
"1915","7384.88"
"1916","7368.089"
"1917","7332.011"
"1918","7295.538"
"1919","7273.006"
"1920","7261.876"
"1921","7256.201"
"1922","7252.611"
"1923","7250.107"
"1924","7251.571"
"1925","7274.719"
"1926","7339.144"
"1927","7419.439"
"1928","7443.129"
"1929","7360.727"
"1930","7236.292"
"1931","7163.581"
"1932","7166.79"
"1933","7189.502"
"1934","7183.461"
"1935","7164.049"
"1936","7165.609"
"1937","7192.965"
"1938","7213.914"
"1939","7202.364"
"1940","7177.991"
"1941","7175.197"
"1942","7202.77"
"1943","7235.589"
"1944","7250.286"
"1945","7246.944"
"1946","7233.788"
"1947","7216.038"
"1948","7194.812"
"1949","7171.526"
"1950","7151.013"
"1951","7139.219"
"1952","7137.474"
"1953","7140.768"
"1954","7143.656"
"1955","7140.954"
"1956","7127.69"
"1957","7104.236"
"1958","7078.165"
"1959","7055.912"
"1960","7034.722"
"1961","7008.919"
"1962","6981.606"
"1963","6967.205"
"1964","6976.438"
"1965","6996.802"
"1966","7008.656"
"1967","7005.411"
"1968","6996.219"
"1969","6987.704"
"1970","6970.002"
"1971","6929.397"
"1972","6880.875"
"1973","6871.045"
"1974","6928.407"
"1975","6998.103"
"1976","7006.499"
"1977","6953.626"
"1978","6912.028"
"1979","6931.348"
"1980","6966.201"
"1981","6952.998"
"1982","6891.103"
"1983","6833.883"
"1984","6821.344"
"1985","6846.653"
"1986","6893.637"
"1987","6941.389"
"1988","6965.528"
"1989","6951.352"
"1990","6909.044"
"1991","6852.971"
"1992","6800.189"
"1993","6769.356"
"1994","6768.55"
"1995","6784.005"
"1996","6799.022"
"1997","6795.319"
"1998","6754.232"
"1999","6687.383"
"2000","6655.941"
"2001","6708.84"
"2002","6790.572"
"2003","6807.72"
"2004","6739.314"
"2005","6657.264"
"2006","6624.305"
"2007","6632.544"
"2008","6654.549"
"2009","6677.578"
"2010","6703.318"
"2011","6728.869"
"2012","6734.104"
"2013","6697.94"
"2014","6636.932"
"2015","6595.283"
"2016","6596.308"
"2017","6611.75"
"2018","6608.778"
"2019","6582.556"
"2020","6543.243"
"2021","6505.489"
"2022","6491.253"
"2023","6514.441"
"2024","6535.703"
"2025","6497.607"
"2026","6405.51"
"2027","6340.011"
"2028","6364.943"
"2029","6458.613"
"2030","6577.398"
"2031","6669.602"
"2032","6676.863"
"2033","6581.171"
"2034","6470.316"
"2035","6437.634"
"2036","6463.525"
"2037","6466.095"
"2038","6415.57"
"2039","6372.06"
"2040","6388.454"
"2041","6424.698"
"2042","6409.815"
"2043","6340.985"
"2044","6290.923"
"2045","6308.227"
"2046","6343.121"
"2047","6330.314"
"2048","6285.208"
"2049","6280.061"
"2050","6338.715"
"2051","6380.234"
"2052","6327.326"
"2053","6225.202"
"2054","6170.606"
"2055","6190.984"
"2056","6224.27"
"2057","6219.077"
"2058","6191.205"
"2059","6171.66"
"2060","6165.356"
"2061","6156.952"
"2062","6145.613"
"2063","6164.538"
"2064","6240.708"
"2065","6318.835"
"2066","6308.092"
"2067","6193.178"
"2068","6057.466"
"2069","5974.208"
"2070","5949.545"
"2071","5972.214"
"2072","6018.284"
"2073","6054.433"
"2074","6063.061"
"2075","6060.224"
"2076","6064.009"
"2077","6077.416"
"2078","6096.915"
"2079","6107.795"
"2080","6082.522"
"2081","6011.499"
"2082","5947.103"
"2083","5948.978"
"2084","6012.749"
"2085","6094.255"
"2086","6155.671"
"2087","6171.086"
"2088","6126.781"
"2089","6065.228"
"2090","6043.675"
"2091","6061.142"
"2092","6065.005"
"2093","6022.265"
"2094","5951.95"
"2095","5880.353"
"2096","5829.947"
"2097","5820.79"
"2098","5847.464"
"2099","5873.959"
"2100","5869.898"
"2101","5830.07"
"2102","5757.778"
"2103","5690.754"
"2104","5686.649"
"2105","5759.095"
"2106","5852.758"
"2107","5912.942"
"2108","5914.722"
"2109","5845.088"
"2110","5746.557"
"2111","5702.873"
"2112","5743.234"
"2113","5789.511"
"2114","5771.714"
"2115","5732.498"
"2116","5747.88"
"2117","5798.143"
"2118","5778.1"
"2119","5648.083"
"2120","5525.54"
"2121","5524.827"
"2122","5595.65"
"2123","5625.252"
"2124","5581.126"
"2125","5512.705"
"2126","5465.564"
"2127","5465.403"
"2128","5526.352"
"2129","5600.579"
"2130","5614.911"
"2131","5560.834"
"2132","5501.588"
"2133","5481.11"
"2134","5478.607"
"2135","5466.419"
"2136","5451.36"
"2137","5455.435"
"2138","5470.194"
"2139","5452.124"
"2140","5382.122"
"2141","5316.633"
"2142","5313.77"
"2143","5337.774"
"2144","5311.072"
"2145","5235.336"
"2146","5202.749"
"2147","5261.739"
"2148","5324.668"
"2149","5298.491"
"2150","5228.015"
"2151","5217.163"
"2152","5276.852"
"2153","5317.437"
"2154","5283.856"
"2155","5223.668"
"2156","5191.255"
"2157","5175.679"
"2158","5140.718"
"2159","5089.51"
"2160","5063.608"
"2161","5081.848"
"2162","5107.516"
"2163","5104.885"
"2164","5089.196"
"2165","5092.008"
"2166","5109.922"
"2167","5110.188"
"2168","5083.637"
"2169","5068.288"
"2170","5098.68"
"2171","5166.989"
"2172","5248.938"
"2173","5270.005"
"2174","5122.809"
"2175","4842.612"
"2176","4687.91"
"2177","4829.527"
"2178","5042.769"
"2179","5047.127"
"2180","4899.941"
"2181","4838.758"
"2182","4917.526"
"2183","4965.331"
"2184","4879.472"
"2185","4781.442"
"2186","4803.044"
"2187","4889.269"
"2188","4914.077"
"2189","4857.77"
"2190","4796.83"
"2191","4772.854"
"2192","4751.907"
"2193","4701.97"
"2194","4640.35"
"2195","4597.382"
"2196","4590.349"
"2197","4627.315"
"2198","4679.538"
"2199","4668.148"
"2200","4561.015"
"2201","4478.123"
"2202","4540.431"
"2203","4669.712"
"2204","4707.837"
"2205","4630.737"
"2206","4538.223"
"2207","4492.697"
"2208","4474.749"
"2209","4461.753"
"2210","4457.936"
"2211","4472.698"
"2212","4493.797"
"2213","4496.623"
"2214","4474.518"
"2215","4442.983"
"2216","4409.997"
"2217","4360.756"
"2218","4285.919"
"2219","4228.209"
"2220","4244.008"
"2221","4318.002"
"2222","4382.105"
"2223","4412.332"
"2224","4453.016"
"2225","4522.362"
"2226","4538.364"
"2227","4421.251"
"2228","4246.86"
"2229","4151.366"
"2230","4153.666"
"2231","4171.281"
"2232","4161.041"
"2233","4153.295"
"2234","4172.837"
"2235","4198.474"
"2236","4200.804"
"2237","4167.43"
"2238","4095.139"
"2239","4004.607"
"2240","3938.5"
"2241","3910.691"
"2242","3880.964"
"2243","3822.728"
"2244","3782.12"
"2245","3809.583"
"2246","3852.118"
"2247","3812.311"
"2248","3709.076"
"2249","3669.591"
"2250","3735.626"
"2251","3788.229"
"2252","3741.9"
"2253","3692.283"
"2254","3753.459"
"2255","3869.467"
"2256","3911.901"
"2257","3849.803"
"2258","3737.343"
"2259","3616.627"
"2260","3505.253"
"2261","3418.878"
"2262","3373.857"
"2263","3379.099"
"2264","3394.07"
"2265","3362.095"
"2266","3280.6"
"2267","3187.668"
"2268","3110.532"
"2269","3059.897"
"2270","3039.399"
"2271","3037.329"
"2272","3035.884"
"2273","2999.042"
"2274","2891.659"
"2275","2751.937"
"2276","2661.073"
"2277","2654.305"
"2278","2715.372"
"2279","2797.566"
"2280","2798.935"
"2281","2659.495"
"2282","2503.901"
"2283","2473.693"
"2284","2507.634"
"2285","2462.77"
"2286","2357.136"
"2287","2337.504"
"2288","2425.272"
"2289","2456.397"
"2290","2336.038"
"2291","2186.85"
"2292","2137.021"
"2293","2169.51"
"2294","2222.352"
"2295","2228.748"
"2296","2123.557"
"2297","1940.541"
"2298","1808.565"
"2299","1765.662"
"2300","1689.749"
