,"Scan 00972"
"400","10165.51"
"401","10151.51"
"402","10139.13"
"403","10128.96"
"404","10121.54"
"405","10117.45"
"406","10117.24"
"407","10121.47"
"408","10130.7"
"409","10145.34"
"410","10163.85"
"411","10183.39"
"412","10201.08"
"413","10214.11"
"414","10220.6"
"415","10219.49"
"416","10209.78"
"417","10190.57"
"418","10164.23"
"419","10137.22"
"420","10116.16"
"421","10107.56"
"422","10111.07"
"423","10115.34"
"424","10108.11"
"425","10077.25"
"426","10021.01"
"427","9959.147"
"428","9914.01"
"429","9907.765"
"430","9951.034"
"431","10023.58"
"432","10100.14"
"433","10155.64"
"434","10172.33"
"435","10157.38"
"436","10123.25"
"437","10082.35"
"438","10045.14"
"439","10013.92"
"440","9988.753"
"441","9969.717"
"442","9956.829"
"443","9949.871"
"444","9948.546"
"445","9952.554"
"446","9960.893"
"447","9967.744"
"448","9965.346"
"449","9945.976"
"450","9903.762"
"451","9847.801"
"452","9794.495"
"453","9760.196"
"454","9759.268"
"455","9787.179"
"456","9828.547"
"457","9867.968"
"458","9891.057"
"459","9894.671"
"460","9883.096"
"461","9860.73"
"462","9831.738"
"463","9797.402"
"464","9756.86"
"465","9709.19"
"466","9653.855"
"467","9596.575"
"468","9548.278"
"469","9519.987"
"470","9521.959"
"471","9550.587"
"472","9589.588"
"473","9622.307"
"474","9632.834"
"475","9619.965"
"476","9597.081"
"477","9578.104"
"478","9576.395"
"479","9592.892"
"480","9615.382"
"481","9631.079"
"482","9627.676"
"483","9604.115"
"484","9571.912"
"485","9543.174"
"486","9529.601"
"487","9532.321"
"488","9540.199"
"489","9541.468"
"490","9524.679"
"491","9486.509"
"492","9433.312"
"493","9371.97"
"494","9309.271"
"495","9249.929"
"496","9196.185"
"497","9150.108"
"498","9113.688"
"499","9086.262"
"500","9063.977"
"501","9042.817"
"502","9018.826"
"503","8989.342"
"504","8953.229"
"505","8909.451"
"506","8857.031"
"507","8796.577"
"508","8730.53"
"509","8661.421"
"510","8591.839"
"511","8526.436"
"512","8472.153"
"513","8436.011"
"514","8424.591"
"515","8434.384"
"516","8451.318"
"517","8460.898"
"518","8449.342"
"519","8417.084"
"520","8378.445"
"521","8348.252"
"522","8340.527"
"523","8355.188"
"524","8379.459"
"525","8400.165"
"526","8404.779"
"527","8390.297"
"528","8361.507"
"529","8323.406"
"530","8280.871"
"531","8237.407"
"532","8195.506"
"533","8157.626"
"534","8125.993"
"535","8100.213"
"536","8078.194"
"537","8057.828"
"538","8037.152"
"539","8015.552"
"540","7993.18"
"541","7970.199"
"542","7947.174"
"543","7928.015"
"544","7918.237"
"545","7923.341"
"546","7947.223"
"547","7983.229"
"548","8020.425"
"549","8047.912"
"550","8057.137"
"551","8052.072"
"552","8040.887"
"553","8031.724"
"554","8030.309"
"555","8031.93"
"556","8029.039"
"557","8014.13"
"558","7983.18"
"559","7944.268"
"560","7908.067"
"561","7885.196"
"562","7881.629"
"563","7890.662"
"564","7903.468"
"565","7911.283"
"566","7909.45"
"567","7902.11"
"568","7894.531"
"569","7891.902"
"570","7895.547"
"571","7900.318"
"572","7900.469"
"573","7890.391"
"574","7868.711"
"575","7839.561"
"576","7807.429"
"577","7776.752"
"578","7751.417"
"579","7734.756"
"580","7730.061"
"581","7740.183"
"582","7761.667"
"583","7786.278"
"584","7805.701"
"585","7812.62"
"586","7809.264"
"587","7803.25"
"588","7802.227"
"589","7811.897"
"590","7825.08"
"591","7829.3"
"592","7812.125"
"593","7766.302"
"594","7708.567"
"595","7662.572"
"596","7651.866"
"597","7689.044"
"598","7751.713"
"599","7810.553"
"600","7836.436"
"601","7815.325"
"602","7766.458"
"603","7713.464"
"604","7679.641"
"605","7673.944"
"606","7683.357"
"607","7693.044"
"608","7688.693"
"609","7668.374"
"610","7643.345"
"611","7625.469"
"612","7625.712"
"613","7643.149"
"614","7668.139"
"615","7690.87"
"616","7702.539"
"617","7702.396"
"618","7693.66"
"619","7679.57"
"620","7663.127"
"621","7646.213"
"622","7630.337"
"623","7617.005"
"624","7606.825"
"625","7597.505"
"626","7586.194"
"627","7570.064"
"628","7548.796"
"629","7527.107"
"630","7510.305"
"631","7503.599"
"632","7508.934"
"633","7524.065"
"634","7546.477"
"635","7573.489"
"636","7599.639"
"637","7617.159"
"638","7618.239"
"639","7596.737"
"640","7560.89"
"641","7526.356"
"642","7508.802"
"643","7519.281"
"644","7546.101"
"645","7570.559"
"646","7574.02"
"647","7546.949"
"648","7505.797"
"649","7471.587"
"650","7465.083"
"651","7491.587"
"652","7530.34"
"653","7558.125"
"654","7552.692"
"655","7513.15"
"656","7460.235"
"657","7415.592"
"658","7398.965"
"659","7410.559"
"660","7438.824"
"661","7472.068"
"662","7499.764"
"663","7517.591"
"664","7523.353"
"665","7514.872"
"666","7492.189"
"667","7461.938"
"668","7431.953"
"669","7409.997"
"670","7400.57"
"671","7402.809"
"672","7415.359"
"673","7436.749"
"674","7463.061"
"675","7488.099"
"676","7505.594"
"677","7510.335"
"678","7506.259"
"679","7502.055"
"680","7506.428"
"681","7525.2"
"682","7551.7"
"683","7575.847"
"684","7587.623"
"685","7582.469"
"686","7568.057"
"687","7553.686"
"688","7548.446"
"689","7555.07"
"690","7568.705"
"691","7584.065"
"692","7596.042"
"693","7601.448"
"694","7598.324"
"695","7584.742"
"696","7560.409"
"697","7533.642"
"698","7515.554"
"699","7517.216"
"700","7542.644"
"701","7578.024"
"702","7606.785"
"703","7612.743"
"704","7592.723"
"705","7560.221"
"706","7529.792"
"707","7514.949"
"708","7517.088"
"709","7529.629"
"710","7545.864"
"711","7559.922"
"712","7570.157"
"713","7576.279"
"714","7577.999"
"715","7574.845"
"716","7565.937"
"717","7550.335"
"718","7527.261"
"719","7500.739"
"720","7480.329"
"721","7475.87"
"722","7495.624"
"723","7532.516"
"724","7570.855"
"725","7594.877"
"726","7593.688"
"727","7576.291"
"728","7556.769"
"729","7549.099"
"730","7559.039"
"731","7577.262"
"732","7592.849"
"733","7595.491"
"734","7585.627"
"735","7573.033"
"736","7567.783"
"737","7578.118"
"738","7600.479"
"739","7626.601"
"740","7648.222"
"741","7659.663"
"742","7662.219"
"743","7658.343"
"744","7650.475"
"745","7640.533"
"746","7629.819"
"747","7619.593"
"748","7611.235"
"749","7607.343"
"750","7611.173"
"751","7625.981"
"752","7652.184"
"753","7679.801"
"754","7696.484"
"755","7690.132"
"756","7661.582"
"757","7631.523"
"758","7622.3"
"759","7653.926"
"760","7717.695"
"761","7785.462"
"762","7828.747"
"763","7826.749"
"764","7792.795"
"765","7749.719"
"766","7720.185"
"767","7714.581"
"768","7721.519"
"769","7727.378"
"770","7719.643"
"771","7701.633"
"772","7688.68"
"773","7696.39"
"774","7735.563"
"775","7793.505"
"776","7850.348"
"777","7886.363"
"778","7893.783"
"779","7887.212"
"780","7883.696"
"781","7899.217"
"782","7934.096"
"783","7976.547"
"784","8014.486"
"785","8037.954"
"786","8047.268"
"787","8045.837"
"788","8037.083"
"789","8025.246"
"790","8016.059"
"791","8015.402"
"792","8028.48"
"793","8051.417"
"794","8073.804"
"795","8085.095"
"796","8078.008"
"797","8059.231"
"798","8039.21"
"799","8028.273"
"800","8030.214"
"801","8038.598"
"802","8046.106"
"803","8046.148"
"804","8039.97"
"805","8033.609"
"806","8033.156"
"807","8042.36"
"808","8056.847"
"809","8070.49"
"810","8077.287"
"811","8075.35"
"812","8067.953"
"813","8058.693"
"814","8051.357"
"815","8051.229"
"816","8064.292"
"817","8096.519"
"818","8147.51"
"819","8200.737"
"820","8237.157"
"821","8238.711"
"822","8206.59"
"823","8159.733"
"824","8117.737"
"825","8096.991"
"826","8097.178"
"827","8112.537"
"828","8137.31"
"829","8165.732"
"830","8192.035"
"831","8210.448"
"832","8216.031"
"833","8212.913"
"834","8210.846"
"835","8219.658"
"836","8245.374"
"837","8281.751"
"838","8320.077"
"839","8351.722"
"840","8369.906"
"841","8369.881"
"842","8347.001"
"843","8299.25"
"844","8240.474"
"845","8190.437"
"846","8168.779"
"847","8183.138"
"848","8218.808"
"849","8258.657"
"850","8286.836"
"851","8302.087"
"852","8312.453"
"853","8326.132"
"854","8347.553"
"855","8369.263"
"856","8381.476"
"857","8374.879"
"858","8351.418"
"859","8324.553"
"860","8308.263"
"861","8313.343"
"862","8333.741"
"863","8357.853"
"864","8374.158"
"865","8377.009"
"866","8370.03"
"867","8357.672"
"868","8344.421"
"869","8335.195"
"870","8335.121"
"871","8349.317"
"872","8379.409"
"873","8418.637"
"874","8459.008"
"875","8492.828"
"876","8516.787"
"877","8530.93"
"878","8535.381"
"879","8530.762"
"880","8519.479"
"881","8504.339"
"882","8488.167"
"883","8474.34"
"884","8466.829"
"885","8469.631"
"886","8485.141"
"887","8507.383"
"888","8527.648"
"889","8537.4"
"890","8536.873"
"891","8539.182"
"892","8558.461"
"893","8605.666"
"894","8668.218"
"895","8722.979"
"896","8746.889"
"897","8732.394"
"898","8702.101"
"899","8682.097"
"900","8695.481"
"901","8734.708"
"902","8774.249"
"903","8788.377"
"904","8764.342"
"905","8722.025"
"906","8686.356"
"907","8680.608"
"908","8704.902"
"909","8742.314"
"910","8775.521"
"911","8792.13"
"912","8795.313"
"913","8791.311"
"914","8786.277"
"915","8784.854"
"916","8790.336"
"917","8805.97"
"918","8832.63"
"919","8862.087"
"920","8883.926"
"921","8888.163"
"922","8875.421"
"923","8857.333"
"924","8846.046"
"925","8850.824"
"926","8867.967"
"927","8890.125"
"928","8910.026"
"929","8922.855"
"930","8926.667"
"931","8919.679"
"932","8901.854"
"933","8881.996"
"934","8871.71"
"935","8882.304"
"936","8913.704"
"937","8951.252"
"938","8979.331"
"939","8984.829"
"940","8968.487"
"941","8935.81"
"942","8892.38"
"943","8847.167"
"944","8813.722"
"945","8805.926"
"946","8833.118"
"947","8878.291"
"948","8914.964"
"949","8917.071"
"950","8878.662"
"951","8821.738"
"952","8770.375"
"953","8745.813"
"954","8752.699"
"955","8789.648"
"956","8855.033"
"957","8936.433"
"958","9006.539"
"959","9036.951"
"960","9006.954"
"961","8939.715"
"962","8873.938"
"963","8847.653"
"964","8870.371"
"965","8913.711"
"966","8946.67"
"967","8944.567"
"968","8916.608"
"969","8883.288"
"970","8864.715"
"971","8866.782"
"972","8877.79"
"973","8884.929"
"974","8878.083"
"975","8860.172"
"976","8838.076"
"977","8818.526"
"978","8804.152"
"979","8792.979"
"980","8782.787"
"981","8772.532"
"982","8766.168"
"983","8768.973"
"984","8785.799"
"985","8811.766"
"986","8832.426"
"987","8832.915"
"988","8805.389"
"989","8767.263"
"990","8741.646"
"991","8750.301"
"992","8791.854"
"993","8845.521"
"994","8889.903"
"995","8911.677"
"996","8921.356"
"997","8933.842"
"998","8962.661"
"999","9003.613"
"1000","9040.195"
"1001","9055.688"
"1002","9042.039"
"1003","9011.71"
"1004","8980.115"
"1005","8962.68"
"1006","8972.194"
"1007","9003.692"
"1008","9044.884"
"1009","9083.517"
"1010","9110.752"
"1011","9122.626"
"1012","9115.557"
"1013","9088.464"
"1014","9053.881"
"1015","9028.959"
"1016","9030.325"
"1017","9058.209"
"1018","9093.553"
"1019","9116.185"
"1020","9111.957"
"1021","9092.193"
"1022","9074.942"
"1023","9077.29"
"1024","9096.617"
"1025","9112.058"
"1026","9102.043"
"1027","9056.167"
"1028","8999.182"
"1029","8962.746"
"1030","8976.034"
"1031","9035.424"
"1032","9114.287"
"1033","9185.531"
"1034","9230.258"
"1035","9248.177"
"1036","9241.57"
"1037","9214.209"
"1038","9182.513"
"1039","9169.324"
"1040","9197.219"
"1041","9267.201"
"1042","9345.807"
"1043","9396.443"
"1044","9390.659"
"1045","9345.236"
"1046","9292.58"
"1047","9264.272"
"1048","9268.56"
"1049","9288.088"
"1050","9304.191"
"1051","9303.339"
"1052","9290.172"
"1053","9273.333"
"1054","9261.229"
"1055","9258.891"
"1056","9268.907"
"1057","9293.785"
"1058","9331.125"
"1059","9367.78"
"1060","9389.179"
"1061","9383.753"
"1062","9362.565"
"1063","9346.973"
"1064","9358.002"
"1065","9399.916"
"1066","9454.427"
"1067","9501.641"
"1068","9526.005"
"1069","9530.282"
"1070","9522.073"
"1071","9508.909"
"1072","9497.137"
"1073","9492.155"
"1074","9499.311"
"1075","9517.647"
"1076","9531.488"
"1077","9523.058"
"1078","9478.711"
"1079","9416.389"
"1080","9368.573"
"1081","9367.149"
"1082","9416.88"
"1083","9487.333"
"1084","9545.704"
"1085","9567.702"
"1086","9561.677"
"1087","9543.81"
"1088","9529.223"
"1089","9518.923"
"1090","9503.917"
"1091","9475.092"
"1092","9434.796"
"1093","9407.466"
"1094","9420.076"
"1095","9490.622"
"1096","9585.015"
"1097","9650.416"
"1098","9636.188"
"1099","9542.305"
"1100","9418.621"
"1101","9317.117"
"1102","9273.353"
"1103","9279.103"
"1104","9318.922"
"1105","9377.296"
"1106","9438.21"
"1107","9485.397"
"1108","9502.938"
"1109","9487.925"
"1110","9453.809"
"1111","9415.102"
"1112","9384.225"
"1113","9366.494"
"1114","9365.733"
"1115","9384.467"
"1116","9411.959"
"1117","9429.677"
"1118","9419.302"
"1119","9380.146"
"1120","9337.563"
"1121","9319.023"
"1122","9343.339"
"1123","9395.123"
"1124","9450.56"
"1125","9487.201"
"1126","9499.019"
"1127","9490.699"
"1128","9467.129"
"1129","9433.405"
"1130","9394.977"
"1131","9357.325"
"1132","9325.508"
"1133","9302.788"
"1134","9291.964"
"1135","9295.39"
"1136","9309.981"
"1137","9329.035"
"1138","9345.864"
"1139","9359.161"
"1140","9376.109"
"1141","9404.644"
"1142","9446.883"
"1143","9481.803"
"1144","9482.612"
"1145","9426.366"
"1146","9332.912"
"1147","9248.708"
"1148","9219.925"
"1149","9256.994"
"1150","9319.103"
"1151","9361.445"
"1152","9354.902"
"1153","9324.653"
"1154","9307.636"
"1155","9335.848"
"1156","9396.315"
"1157","9452.115"
"1158","9467.03"
"1159","9436.209"
"1160","9392.404"
"1161","9370.588"
"1162","9391.179"
"1163","9434.577"
"1164","9474.359"
"1165","9488.449"
"1166","9484.295"
"1167","9481.63"
"1168","9499.152"
"1169","9533.961"
"1170","9563.2"
"1171","9563.361"
"1172","9527.502"
"1173","9481.938"
"1174","9457.002"
"1175","9474.379"
"1176","9515.323"
"1177","9549.278"
"1178","9548.582"
"1179","9520.036"
"1180","9492.95"
"1181","9496.493"
"1182","9535.698"
"1183","9582.53"
"1184","9606.552"
"1185","9590.909"
"1186","9559.006"
"1187","9541.684"
"1188","9564.036"
"1189","9611.916"
"1190","9654.801"
"1191","9663.753"
"1192","9639.933"
"1193","9610.647"
"1194","9603.882"
"1195","9628.75"
"1196","9661.08"
"1197","9673.291"
"1198","9647.581"
"1199","9602.956"
"1200","9567.08"
"1201","9564.673"
"1202","9595.357"
"1203","9646.166"
"1204","9703.94"
"1205","9753.638"
"1206","9778.342"
"1207","9761.164"
"1208","9700.987"
"1209","9627.576"
"1210","9574.317"
"1211","9565.121"
"1212","9585.54"
"1213","9611.396"
"1214","9621.475"
"1215","9620.533"
"1216","9626.761"
"1217","9657.43"
"1218","9706.285"
"1219","9743.825"
"1220","9739.76"
"1221","9688.432"
"1222","9630.21"
"1223","9610.545"
"1224","9657.233"
"1225","9732.872"
"1226","9784.999"
"1227","9769.199"
"1228","9701.989"
"1229","9627.717"
"1230","9589.1"
"1231","9597.37"
"1232","9637.092"
"1233","9692.021"
"1234","9749.196"
"1235","9800.722"
"1236","9839.121"
"1237","9860.443"
"1238","9870.812"
"1239","9878.143"
"1240","9888.193"
"1241","9894.813"
"1242","9887.761"
"1243","9858.313"
"1244","9814.963"
"1245","9776.997"
"1246","9763.331"
"1247","9777.799"
"1248","9807.67"
"1249","9839.396"
"1250","9863.822"
"1251","9880.249"
"1252","9888.926"
"1253","9890.722"
"1254","9888.625"
"1255","9886.086"
"1256","9885.774"
"1257","9885.321"
"1258","9880.37"
"1259","9867.221"
"1260","9850.317"
"1261","9839.67"
"1262","9845.106"
"1263","9867.895"
"1264","9899.564"
"1265","9931.123"
"1266","9955.116"
"1267","9967.032"
"1268","9962.678"
"1269","9940.452"
"1270","9907.165"
"1271","9871.34"
"1272","9840.62"
"1273","9817.563"
"1274","9802.938"
"1275","9797.531"
"1276","9802.296"
"1277","9818.277"
"1278","9846.104"
"1279","9877.464"
"1280","9895.619"
"1281","9883.767"
"1282","9840.306"
"1283","9786.406"
"1284","9745.078"
"1285","9730.844"
"1286","9737.822"
"1287","9757.137"
"1288","9780.761"
"1289","9804.073"
"1290","9823.276"
"1291","9835.322"
"1292","9842.058"
"1293","9847.278"
"1294","9854.412"
"1295","9862.626"
"1296","9868.419"
"1297","9868.504"
"1298","9864.925"
"1299","9864.794"
"1300","9875.257"
"1301","9894.82"
"1302","9909.665"
"1303","9905.07"
"1304","9877.566"
"1305","9847.979"
"1306","9840.31"
"1307","9869.021"
"1308","9916.982"
"1309","9960.511"
"1310","9979.438"
"1311","9971.633"
"1312","9940.73"
"1313","9891.65"
"1314","9839.492"
"1315","9804.261"
"1316","9804.126"
"1317","9832.996"
"1318","9867.845"
"1319","9886.018"
"1320","9881.721"
"1321","9865.938"
"1322","9850.291"
"1323","9841.593"
"1324","9839.909"
"1325","9844.776"
"1326","9853.201"
"1327","9857.134"
"1328","9847.939"
"1329","9822.237"
"1330","9791.579"
"1331","9770.167"
"1332","9769.29"
"1333","9788.357"
"1334","9823.752"
"1335","9870.145"
"1336","9912.241"
"1337","9931.126"
"1338","9911.768"
"1339","9872.014"
"1340","9846.223"
"1341","9865.101"
"1342","9911.864"
"1343","9937.437"
"1344","9895.008"
"1345","9794.369"
"1346","9696.528"
"1347","9662.775"
"1348","9702.063"
"1349","9760.896"
"1350","9782.732"
"1351","9751.097"
"1352","9712.152"
"1353","9717.336"
"1354","9786.621"
"1355","9875.574"
"1356","9931.882"
"1357","9921.798"
"1358","9861.435"
"1359","9775.186"
"1360","9686.813"
"1361","9617.76"
"1362","9588.987"
"1363","9613.006"
"1364","9663.465"
"1365","9702.823"
"1366","9701.464"
"1367","9677.313"
"1368","9665.893"
"1369","9696.588"
"1370","9750.749"
"1371","9787.24"
"1372","9769.89"
"1373","9714.467"
"1374","9666.982"
"1375","9669.999"
"1376","9714.504"
"1377","9754.679"
"1378","9746.34"
"1379","9689.518"
"1380","9622.466"
"1381","9583.547"
"1382","9581.851"
"1383","9596.111"
"1384","9604.049"
"1385","9597.478"
"1386","9585.633"
"1387","9578.717"
"1388","9580.837"
"1389","9587.224"
"1390","9592.431"
"1391","9593.716"
"1392","9592.969"
"1393","9592.525"
"1394","9593.143"
"1395","9592.435"
"1396","9587.645"
"1397","9579.915"
"1398","9579.459"
"1399","9597.767"
"1400","9634.737"
"1401","9659.16"
"1402","9634.637"
"1403","9546.805"
"1404","9449.279"
"1405","9408.775"
"1406","9466.22"
"1407","9571.822"
"1408","9655.845"
"1409","9666.848"
"1410","9626.23"
"1411","9573.479"
"1412","9541.692"
"1413","9535.432"
"1414","9551.336"
"1415","9583.978"
"1416","9617.77"
"1417","9633.984"
"1418","9619.045"
"1419","9587.415"
"1420","9563.031"
"1421","9564.658"
"1422","9580.288"
"1423","9586.62"
"1424","9566.052"
"1425","9537.638"
"1426","9534.894"
"1427","9583.963"
"1428","9660.115"
"1429","9717.272"
"1430","9718.088"
"1431","9689.39"
"1432","9686.39"
"1433","9754.803"
"1434","9866.507"
"1435","9959.278"
"1436","9978.854"
"1437","9936.115"
"1438","9873.075"
"1439","9828.186"
"1440","9808.796"
"1441","9807.026"
"1442","9814.475"
"1443","9819.365"
"1444","9808.232"
"1445","9770.974"
"1446","9726.141"
"1447","9706.684"
"1448","9740.192"
"1449","9807.917"
"1450","9867.803"
"1451","9882.451"
"1452","9854.951"
"1453","9808.557"
"1454","9765.148"
"1455","9733.996"
"1456","9718.232"
"1457","9719.659"
"1458","9729.982"
"1459","9736.088"
"1460","9726.239"
"1461","9699.465"
"1462","9659.746"
"1463","9611.556"
"1464","9562.784"
"1465","9522.827"
"1466","9499.673"
"1467","9491.677"
"1468","9493.173"
"1469","9497.677"
"1470","9493.605"
"1471","9467.362"
"1472","9408.876"
"1473","9328.817"
"1474","9245.415"
"1475","9175.986"
"1476","9132.829"
"1477","9126.551"
"1478","9160.985"
"1479","9206.75"
"1480","9224.273"
"1481","9187.495"
"1482","9130.194"
"1483","9102.698"
"1484","9138.832"
"1485","9207.101"
"1486","9259.878"
"1487","9263.938"
"1488","9236.545"
"1489","9206.008"
"1490","9192.092"
"1491","9188.243"
"1492","9182.869"
"1493","9169.542"
"1494","9155.698"
"1495","9151.057"
"1496","9158.076"
"1497","9162.305"
"1498","9146.963"
"1499","9107.607"
"1500","9064.577"
"1501","9041.045"
"1502","9046.943"
"1503","9069.361"
"1504","9093.229"
"1505","9109.276"
"1506","9116.784"
"1507","9115.728"
"1508","9106.129"
"1509","9088.078"
"1510","9061.92"
"1511","9034.391"
"1512","9018.97"
"1513","9028.602"
"1514","9059.978"
"1515","9095.43"
"1516","9117.582"
"1517","9120.37"
"1518","9106.012"
"1519","9077.366"
"1520","9041.998"
"1521","9010.303"
"1522","8991.825"
"1523","8988.709"
"1524","8999.497"
"1525","9020.985"
"1526","9039.102"
"1527","9035.529"
"1528","8998.321"
"1529","8946.814"
"1530","8909.92"
"1531","8907.77"
"1532","8927.209"
"1533","8947.213"
"1534","8953.443"
"1535","8951.04"
"1536","8948.637"
"1537","8951.429"
"1538","8956.932"
"1539","8961.638"
"1540","8963.536"
"1541","8963.189"
"1542","8961.365"
"1543","8956.686"
"1544","8944.933"
"1545","8922.12"
"1546","8894.315"
"1547","8877.784"
"1548","8887.534"
"1549","8912.479"
"1550","8921.359"
"1551","8887.091"
"1552","8830.432"
"1553","8799.957"
"1554","8835.479"
"1555","8912.483"
"1556","8978.842"
"1557","8993.252"
"1558","8968.836"
"1559","8935.56"
"1560","8914.668"
"1561","8896.784"
"1562","8865.851"
"1563","8816.005"
"1564","8766.615"
"1565","8740.719"
"1566","8746.023"
"1567","8763.18"
"1568","8770.423"
"1569","8759.476"
"1570","8739.117"
"1571","8719.068"
"1572","8705.841"
"1573","8703.033"
"1574","8713.757"
"1575","8736.679"
"1576","8767.61"
"1577","8801.113"
"1578","8822.96"
"1579","8815.011"
"1580","8765.753"
"1581","8695.699"
"1582","8634.994"
"1583","8608.397"
"1584","8623.557"
"1585","8684.64"
"1586","8779.087"
"1587","8859.133"
"1588","8873.485"
"1589","8817.855"
"1590","8754.75"
"1591","8748.718"
"1592","8797.153"
"1593","8832.757"
"1594","8792.858"
"1595","8700.359"
"1596","8633.553"
"1597","8657.751"
"1598","8741.172"
"1599","8810.828"
"1600","8811.209"
"1601","8762.733"
"1602","8706.176"
"1603","8670.471"
"1604","8652.828"
"1605","8645.283"
"1606","8644.943"
"1607","8657.56"
"1608","8689.393"
"1609","8737.833"
"1610","8790.52"
"1611","8834.811"
"1612","8861.119"
"1613","8861.995"
"1614","8832.972"
"1615","8791.047"
"1616","8762.72"
"1617","8767.051"
"1618","8791.146"
"1619","8813.609"
"1620","8822.081"
"1621","8827.047"
"1622","8842.317"
"1623","8867.884"
"1624","8882.479"
"1625","8864.488"
"1626","8823.788"
"1627","8800.221"
"1628","8829.492"
"1629","8892.718"
"1630","8939.206"
"1631","8928.819"
"1632","8882.137"
"1633","8840.582"
"1634","8832.073"
"1635","8842.426"
"1636","8849.413"
"1637","8843.563"
"1638","8838.295"
"1639","8848.748"
"1640","8872.67"
"1641","8889.278"
"1642","8879.421"
"1643","8852.683"
"1644","8836.725"
"1645","8853.814"
"1646","8893.27"
"1647","8932.605"
"1648","8954.292"
"1649","8956.328"
"1650","8939.8"
"1651","8912.648"
"1652","8894.657"
"1653","8905.651"
"1654","8939.088"
"1655","8962.33"
"1656","8945.693"
"1657","8899.375"
"1658","8855.986"
"1659","8841.831"
"1660","8851.068"
"1661","8868.106"
"1662","8879.279"
"1663","8875.873"
"1664","8850.241"
"1665","8808.481"
"1666","8775.667"
"1667","8776.172"
"1668","8802.816"
"1669","8824.252"
"1670","8813.623"
"1671","8778.698"
"1672","8741.499"
"1673","8717.299"
"1674","8698.606"
"1675","8673.282"
"1676","8636.682"
"1677","8597.07"
"1678","8563.986"
"1679","8546.574"
"1680","8553.624"
"1681","8590.399"
"1682","8633.499"
"1683","8645.512"
"1684","8602.198"
"1685","8530.671"
"1686","8470.341"
"1687","8443.569"
"1688","8440.138"
"1689","8446.312"
"1690","8452.176"
"1691","8451.601"
"1692","8439.474"
"1693","8418.188"
"1694","8393.946"
"1695","8370.221"
"1696","8339.597"
"1697","8292.114"
"1698","8231.983"
"1699","8190.023"
"1700","8198.267"
"1701","8251.761"
"1702","8310.505"
"1703","8337.629"
"1704","8332.297"
"1705","8310.653"
"1706","8287.321"
"1707","8271.181"
"1708","8269.773"
"1709","8284.021"
"1710","8303.971"
"1711","8318.907"
"1712","8322.46"
"1713","8311.766"
"1714","8285.455"
"1715","8250.84"
"1716","8218.593"
"1717","8197.154"
"1718","8188.818"
"1719","8194.733"
"1720","8212.126"
"1721","8233.204"
"1722","8250.095"
"1723","8257.807"
"1724","8253.118"
"1725","8234.259"
"1726","8205.752"
"1727","8173.903"
"1728","8148.483"
"1729","8145.929"
"1730","8181.971"
"1731","8243.907"
"1732","8293.545"
"1733","8297.713"
"1734","8263.099"
"1735","8212.686"
"1736","8167.374"
"1737","8142.073"
"1738","8150.245"
"1739","8189.444"
"1740","8237.765"
"1741","8273.723"
"1742","8291.82"
"1743","8295.442"
"1744","8287.888"
"1745","8271.76"
"1746","8249.514"
"1747","8224.673"
"1748","8202.435"
"1749","8188.2"
"1750","8187.954"
"1751","8208.101"
"1752","8248.919"
"1753","8281.599"
"1754","8268.913"
"1755","8201.394"
"1756","8122.709"
"1757","8080.325"
"1758","8083.17"
"1759","8108.108"
"1760","8132.363"
"1761","8140.918"
"1762","8121.519"
"1763","8076.904"
"1764","8042.542"
"1765","8055.825"
"1766","8104.744"
"1767","8131.668"
"1768","8091.418"
"1769","8027.146"
"1770","8015.708"
"1771","8088.225"
"1772","8168.759"
"1773","8170.025"
"1774","8092.456"
"1775","8021.004"
"1776","8027.999"
"1777","8082.604"
"1778","8113.66"
"1779","8084.101"
"1780","8037.021"
"1781","8025.1"
"1782","8060.445"
"1783","8116.805"
"1784","8166.016"
"1785","8177.841"
"1786","8121.385"
"1787","8001.697"
"1788","7902.643"
"1789","7912.788"
"1790","8012.39"
"1791","8087.189"
"1792","8046.916"
"1793","7948.799"
"1794","7899.172"
"1795","7945.877"
"1796","8023.669"
"1797","8058.864"
"1798","8044.888"
"1799","8026.015"
"1800","8036.399"
"1801","8058.975"
"1802","8062.677"
"1803","8039.579"
"1804","8018.784"
"1805","8029.301"
"1806","8061.97"
"1807","8084.069"
"1808","8073.119"
"1809","8043.576"
"1810","8017.802"
"1811","8013.343"
"1812","8041.709"
"1813","8108.279"
"1814","8173.555"
"1815","8176.974"
"1816","8095.059"
"1817","7998.7"
"1818","7969.876"
"1819","8013.865"
"1820","8064.903"
"1821","8067.451"
"1822","8035.196"
"1823","8004.52"
"1824","7994.789"
"1825","7995.308"
"1826","7992.854"
"1827","7980.718"
"1828","7956.385"
"1829","7919.07"
"1830","7873.711"
"1831","7826.685"
"1832","7790.539"
"1833","7785.051"
"1834","7825.802"
"1835","7896.892"
"1836","7969.393"
"1837","8016.931"
"1838","8018.74"
"1839","7958.144"
"1840","7866.868"
"1841","7812.51"
"1842","7840.034"
"1843","7903.3"
"1844","7935.339"
"1845","7915.694"
"1846","7882.635"
"1847","7872.625"
"1848","7882.174"
"1849","7890.575"
"1850","7886.578"
"1851","7879.217"
"1852","7879.143"
"1853","7883.365"
"1854","7879.053"
"1855","7860.088"
"1856","7845.461"
"1857","7859"
"1858","7898.038"
"1859","7929.353"
"1860","7925.309"
"1861","7903.2"
"1862","7897.098"
"1863","7917.989"
"1864","7935.077"
"1865","7917.125"
"1866","7874.986"
"1867","7844.613"
"1868","7848.351"
"1869","7869.023"
"1870","7882.984"
"1871","7876.052"
"1872","7842.527"
"1873","7786.578"
"1874","7754.361"
"1875","7801.862"
"1876","7912.61"
"1877","7975.347"
"1878","7898.255"
"1879","7765.393"
"1880","7732.697"
"1881","7852.984"
"1882","7985.025"
"1883","7983.035"
"1884","7879.26"
"1885","7811.246"
"1886","7857.802"
"1887","7937.271"
"1888","7947.325"
"1889","7882.889"
"1890","7818.018"
"1891","7806.652"
"1892","7818.396"
"1893","7804.833"
"1894","7764.748"
"1895","7748.202"
"1896","7793.177"
"1897","7861.845"
"1898","7892.793"
"1899","7862.958"
"1900","7803.609"
"1901","7749.69"
"1902","7732.429"
"1903","7781.168"
"1904","7888.088"
"1905","7978.222"
"1906","7978.759"
"1907","7903.386"
"1908","7812.254"
"1909","7750.73"
"1910","7729.415"
"1911","7752.896"
"1912","7810.513"
"1913","7881.488"
"1914","7944.782"
"1915","7979.265"
"1916","7965.403"
"1917","7909.799"
"1918","7839.73"
"1919","7780.283"
"1920","7747.034"
"1921","7752.266"
"1922","7781.292"
"1923","7794.567"
"1924","7767.526"
"1925","7738.319"
"1926","7757.866"
"1927","7809.154"
"1928","7804.137"
"1929","7683.959"
"1930","7536.277"
"1931","7486.504"
"1932","7552.908"
"1933","7629.599"
"1934","7631.314"
"1935","7611.154"
"1936","7662.686"
"1937","7786.417"
"1938","7866.188"
"1939","7808.641"
"1940","7683.938"
"1941","7615.125"
"1942","7645.225"
"1943","7711.259"
"1944","7753.686"
"1945","7774.381"
"1946","7796.355"
"1947","7826.72"
"1948","7850.856"
"1949","7854.731"
"1950","7836.928"
"1951","7800.682"
"1952","7755.737"
"1953","7720.733"
"1954","7710.122"
"1955","7710.452"
"1956","7698.854"
"1957","7674.08"
"1958","7663.977"
"1959","7686.541"
"1960","7693.868"
"1961","7617.532"
"1962","7473.026"
"1963","7384.027"
"1964","7447.206"
"1965","7580.866"
"1966","7648.547"
"1967","7612.758"
"1968","7555.445"
"1969","7546.785"
"1970","7566.627"
"1971","7569.459"
"1972","7547.012"
"1973","7532.089"
"1974","7546.226"
"1975","7554.472"
"1976","7509.936"
"1977","7432.772"
"1978","7409.135"
"1979","7491.822"
"1980","7601.469"
"1981","7634.151"
"1982","7587.949"
"1983","7548.45"
"1984","7569.447"
"1985","7597.854"
"1986","7565.944"
"1987","7488.801"
"1988","7441.888"
"1989","7465.708"
"1990","7508.226"
"1991","7509.221"
"1992","7477.147"
"1993","7461.83"
"1994","7484.6"
"1995","7506.881"
"1996","7490.219"
"1997","7458.133"
"1998","7463.685"
"1999","7511.048"
"2000","7524"
"2001","7438.122"
"2002","7308.596"
"2003","7234.324"
"2004","7244.24"
"2005","7277.528"
"2006","7283.965"
"2007","7289.257"
"2008","7337.974"
"2009","7410.123"
"2010","7422.313"
"2011","7325.243"
"2012","7192.579"
"2013","7119.132"
"2014","7133.89"
"2015","7217.412"
"2016","7330.979"
"2017","7392.793"
"2018","7328.954"
"2019","7197.33"
"2020","7125.243"
"2021","7151.808"
"2022","7164.939"
"2023","7078.322"
"2024","7051.453"
"2025","7326.177"
"2026","7821.02"
"2027","8067.169"
"2028","7740.448"
"2029","7190.031"
"2030","6909.96"
"2031","6983.979"
"2032","7155.739"
"2033","7235.743"
"2034","7236.866"
"2035","7203.3"
"2036","7167.351"
"2037","7154.563"
"2038","7171.879"
"2039","7194.688"
"2040","7196.739"
"2041","7160.528"
"2042","7073.105"
"2043","6962.632"
"2044","6902.774"
"2045","6937.551"
"2046","6998.735"
"2047","7000.522"
"2048","6951.585"
"2049","6927.269"
"2050","6966.875"
"2051","7030.479"
"2052","7071.583"
"2053","7069.45"
"2054","7015.238"
"2055","6928.958"
"2056","6867.668"
"2057","6870.258"
"2058","6892.305"
"2059","6873.052"
"2060","6823.834"
"2061","6811.983"
"2062","6866.577"
"2063","6926.548"
"2064","6927.021"
"2065","6869.095"
"2066","6783.778"
"2067","6701.929"
"2068","6653.965"
"2069","6662.957"
"2070","6722.702"
"2071","6818.112"
"2072","6910.984"
"2073","6946.068"
"2074","6912.419"
"2075","6893.155"
"2076","6959.87"
"2077","7026.837"
"2078","6949.33"
"2079","6747.22"
"2080","6629.888"
"2081","6729.651"
"2082","6886.885"
"2083","6900.04"
"2084","6779.499"
"2085","6666.725"
"2086","6633.997"
"2087","6632.613"
"2088","6614.738"
"2089","6596.897"
"2090","6613.84"
"2091","6660.31"
"2092","6695.556"
"2093","6693.866"
"2094","6669.034"
"2095","6639.438"
"2096","6613.737"
"2097","6596.328"
"2098","6593.77"
"2099","6615.229"
"2100","6656.38"
"2101","6667.647"
"2102","6598.678"
"2103","6491.179"
"2104","6440.83"
"2105","6478.863"
"2106","6534.993"
"2107","6545.314"
"2108","6513.184"
"2109","6460.276"
"2110","6407.361"
"2111","6374.409"
"2112","6364.304"
"2113","6346.971"
"2114","6301.116"
"2115","6274.398"
"2116","6332.375"
"2117","6432.772"
"2118","6437.135"
"2119","6293.565"
"2120","6156.437"
"2121","6177.163"
"2122","6298.137"
"2123","6381.159"
"2124","6359.456"
"2125","6239.314"
"2126","6063.026"
"2127","5957.345"
"2128","6035.404"
"2129","6208.693"
"2130","6303.058"
"2131","6261.065"
"2132","6155.055"
"2133","6059.025"
"2134","6032.127"
"2135","6116.663"
"2136","6241.958"
"2137","6287"
"2138","6219.457"
"2139","6109.308"
"2140","6015.833"
"2141","5951.028"
"2142","5916.913"
"2143","5902.584"
"2144","5891.425"
"2145","5879.505"
"2146","5877.386"
"2147","5890.057"
"2148","5904.75"
"2149","5906.091"
"2150","5882.639"
"2151","5825.601"
"2152","5749.929"
"2153","5696.153"
"2154","5692.88"
"2155","5734.428"
"2156","5807.476"
"2157","5884.266"
"2158","5931.87"
"2159","5937.818"
"2160","5909.643"
"2161","5859.111"
"2162","5805.688"
"2163","5765.331"
"2164","5727.128"
"2165","5672.36"
"2166","5614.441"
"2167","5593.766"
"2168","5627.551"
"2169","5686.692"
"2170","5739.832"
"2171","5770.431"
"2172","5766.844"
"2173","5725.285"
"2174","5647.818"
"2175","5558.441"
"2176","5515.064"
"2177","5554.147"
"2178","5621.996"
"2179","5650.522"
"2180","5633.144"
"2181","5596.738"
"2182","5558.033"
"2183","5521.021"
"2184","5490.325"
"2185","5474.334"
"2186","5479.491"
"2187","5494.885"
"2188","5502.502"
"2189","5485.023"
"2190","5425.897"
"2191","5325.519"
"2192","5217.488"
"2193","5140.432"
"2194","5137.482"
"2195","5244.302"
"2196","5393.448"
"2197","5453.287"
"2198","5398.905"
"2199","5353.134"
"2200","5394.643"
"2201","5436.028"
"2202","5376.077"
"2203","5239.303"
"2204","5103"
"2205","5008.252"
"2206","4962.421"
"2207","4962.976"
"2208","4990.642"
"2209","5026.638"
"2210","5063.009"
"2211","5093.832"
"2212","5104.387"
"2213","5075.585"
"2214","5018.488"
"2215","4981.033"
"2216","4985.063"
"2217","4979.615"
"2218","4916.373"
"2219","4829.088"
"2220","4777.013"
"2221","4764.696"
"2222","4756.262"
"2223","4740.015"
"2224","4742.1"
"2225","4772.685"
"2226","4781.676"
"2227","4722.47"
"2228","4657.042"
"2229","4686.879"
"2230","4784.999"
"2231","4813.984"
"2232","4726.495"
"2233","4636.513"
"2234","4635.292"
"2235","4674.78"
"2236","4685.296"
"2237","4673.347"
"2238","4678.505"
"2239","4680.051"
"2240","4601.541"
"2241","4442.856"
"2242","4346.949"
"2243","4415.191"
"2244","4535.339"
"2245","4562.056"
"2246","4489.127"
"2247","4377.406"
"2248","4285.266"
"2249","4267.772"
"2250","4323.613"
"2251","4350.634"
"2252","4275.058"
"2253","4163.643"
"2254","4102.692"
"2255","4086.084"
"2256","4067.2"
"2257","4030.355"
"2258","3986.839"
"2259","3936.325"
"2260","3858.028"
"2261","3747.702"
"2262","3659.716"
"2263","3647.466"
"2264","3681.302"
"2265","3700.212"
"2266","3670.353"
"2267","3579.496"
"2268","3464.099"
"2269","3427.223"
"2270","3511.444"
"2271","3588.382"
"2272","3531.313"
"2273","3366.101"
"2274","3167.634"
"2275","3010.185"
"2276","2965.025"
"2277","3026.41"
"2278","3104.038"
"2279","3129.408"
"2280","3086.632"
"2281","2977.001"
"2282","2843.325"
"2283","2736.65"
"2284","2694.611"
"2285","2743.025"
"2286","2812.483"
"2287","2758.663"
"2288","2564.985"
"2289","2401.492"
"2290","2369.733"
"2291","2355.286"
"2292","2246.884"
"2293","2119.301"
"2294","2092.166"
"2295","2167.997"
"2296","2282.883"
"2297","2347.933"
"2298","2252.316"
"2299","2013.348"
"2300","1866.124"
