,"Scan 00979"
"400","38936.11"
"401","42712.69"
"402","47376.86"
"403","51844.85"
"404","55040.4"
"405","56031.98"
"406","55070.6"
"407","53004.78"
"408","50681.57"
"409","48905.32"
"410","48000.65"
"411","47958.39"
"412","48762.59"
"413","50377.96"
"414","52368.81"
"415","53926.64"
"416","54234.37"
"417","52502.06"
"418","48689.99"
"419","43680.74"
"420","38407.79"
"421","33791.5"
"422","30312.16"
"423","27745.48"
"424","25804.91"
"425","24206.48"
"426","22759.03"
"427","21463.17"
"428","20343.49"
"429","19424.38"
"430","18709.72"
"431","18148.35"
"432","17680.27"
"433","17245.89"
"434","16802.96"
"435","16368.15"
"436","15970.71"
"437","15639.69"
"438","15393.55"
"439","15205.09"
"440","15034.78"
"441","14843.4"
"442","14600.03"
"443","14318.16"
"444","14026.28"
"445","13752.65"
"446","13521.59"
"447","13331.48"
"448","13170.05"
"449","13025.1"
"450","12885.88"
"451","12753.28"
"452","12633.91"
"453","12534.36"
"454","12459.81"
"455","12401.5"
"456","12342.72"
"457","12266.75"
"458","12159.15"
"459","12031.54"
"460","11912.74"
"461","11831.7"
"462","11814.68"
"463","11851.67"
"464","11905.6"
"465","11938.96"
"466","11916.73"
"467","11841.81"
"468","11748.74"
"469","11672.78"
"470","11647.36"
"471","11673.02"
"472","11720.28"
"473","11758.72"
"474","11759.28"
"475","11719.67"
"476","11664.18"
"477","11618.08"
"478","11605.51"
"479","11625.3"
"480","11649.44"
"481","11648.79"
"482","11595.44"
"483","11491.52"
"484","11372.7"
"485","11276.22"
"486","11238.07"
"487","11262.11"
"488","11314.91"
"489","11361.15"
"490","11366.58"
"491","11326.39"
"492","11270.73"
"493","11231.68"
"494","11240.21"
"495","11297.15"
"496","11367.02"
"497","11412.34"
"498","11396.83"
"499","11316.41"
"500","11205.8"
"501","11101.85"
"502","11040.37"
"503","11030.31"
"504","11048.81"
"505","11071.27"
"506","11073.7"
"507","11046.28"
"508","10995.53"
"509","10928.83"
"510","10853.82"
"511","10786.3"
"512","10751.09"
"513","10773.37"
"514","10878.54"
"515","11101.69"
"516","11488.07"
"517","12083.15"
"518","12930.13"
"519","14027.03"
"520","15327.67"
"521","16784.28"
"522","18346.79"
"523","19916.09"
"524","21348.88"
"525","22501.03"
"526","23234.26"
"527","23494.72"
"528","23297.78"
"529","22660.78"
"530","21606.85"
"531","20242.29"
"532","18734.33"
"533","17250.71"
"534","15949.28"
"535","14880.17"
"536","14023.51"
"537","13358.34"
"538","12862.7"
"539","12504.07"
"540","12243.99"
"541","12044.14"
"542","11870.3"
"543","11720.34"
"544","11607.67"
"545","11545.73"
"546","11544.18"
"547","11587.72"
"548","11650.91"
"549","11708.4"
"550","11738.31"
"551","11737.02"
"552","11707.09"
"553","11651.08"
"554","11572.82"
"555","11481.79"
"556","11389"
"557","11305.4"
"558","11239.16"
"559","11188.97"
"560","11151.43"
"561","11123.19"
"562","11099.96"
"563","11074.99"
"564","11041.14"
"565","10991.28"
"566","10923.2"
"567","10845.04"
"568","10766.27"
"569","10696.25"
"570","10638.38"
"571","10586.11"
"572","10531.97"
"573","10468.58"
"574","10390.2"
"575","10293.28"
"576","10174.4"
"577","10030.7"
"578","9871.279"
"579","9717.227"
"580","9590.047"
"581","9509.656"
"582","9473.798"
"583","9463.424"
"584","9459.14"
"585","9443.85"
"586","9422.244"
"587","9411.32"
"588","9428.149"
"589","9486.538"
"590","9578.722"
"591","9688.097"
"592","9798.098"
"593","9895.103"
"594","9978.98"
"595","10053.51"
"596","10122.47"
"597","10188.13"
"598","10248.07"
"599","10298.91"
"600","10337.31"
"601","10363.89"
"602","10387.97"
"603","10420.04"
"604","10470.4"
"605","10541.43"
"606","10623.34"
"607","10705.37"
"608","10777"
"609","10833.91"
"610","10878.34"
"611","10912.83"
"612","10939.93"
"613","10962.08"
"614","10981.67"
"615","11001.07"
"616","11022.11"
"617","11042.3"
"618","11056.99"
"619","11061.55"
"620","11053.68"
"621","11043.04"
"622","11043.06"
"623","11067.13"
"624","11150.2"
"625","11396.42"
"626","11923.41"
"627","12847.81"
"628","14206.44"
"629","15875.56"
"630","17712.53"
"631","19575.07"
"632","21316.66"
"633","22785.1"
"634","23828.31"
"635","24302.2"
"636","24188.51"
"637","23572.7"
"638","22543.06"
"639","21191.77"
"640","19647.38"
"641","18057.04"
"642","16567.57"
"643","15301.79"
"644","14265.25"
"645","13427.17"
"646","12756.91"
"647","12228.25"
"648","11827.63"
"649","11543.76"
"650","11365.47"
"651","11286.39"
"652","11308.31"
"653","11433.82"
"654","11664.84"
"655","11988.34"
"656","12376.15"
"657","12799.48"
"658","13228.34"
"659","13618.9"
"660","13919.09"
"661","14076.85"
"662","14051.85"
"663","13867.53"
"664","13569.13"
"665","13201.75"
"666","12806.37"
"667","12411.84"
"668","12044.77"
"669","11731.51"
"670","11487.76"
"671","11311.71"
"672","11199.97"
"673","11153.27"
"674","11256.69"
"675","11673.83"
"676","12570.84"
"677","14097.55"
"678","16263.11"
"679","19003.64"
"680","22254.84"
"681","25901.66"
"682","29606.68"
"683","32972.41"
"684","35602.92"
"685","37207.82"
"686","37731.86"
"687","37151.79"
"688","35450.2"
"689","32799.38"
"690","29598.26"
"691","26258.16"
"692","23169.81"
"693","20496.92"
"694","18257.46"
"695","16466.96"
"696","15126.59"
"697","14161.94"
"698","13474.07"
"699","12964.28"
"700","12556.18"
"701","12229.46"
"702","11972.59"
"703","11773.94"
"704","11617.91"
"705","11483.74"
"706","11350.42"
"707","11198.79"
"708","11031.85"
"709","10867.17"
"710","10722.54"
"711","10611.35"
"712","10524.66"
"713","10446.41"
"714","10360.6"
"715","10262.56"
"716","10174.32"
"717","10121.74"
"718","10129.77"
"719","10198.1"
"720","10297.32"
"721","10396.45"
"722","10466.64"
"723","10499.04"
"724","10496.12"
"725","10460.41"
"726","10396.83"
"727","10319.89"
"728","10246.58"
"729","10193.72"
"730","10167.95"
"731","10157.21"
"732","10147.46"
"733","10125.38"
"734","10090.62"
"735","10054.01"
"736","10026.79"
"737","10018.56"
"738","10028.69"
"739","10052.44"
"740","10085.09"
"741","10122.92"
"742","10165.04"
"743","10211"
"744","10260.36"
"745","10311.78"
"746","10362.92"
"747","10411.35"
"748","10454.59"
"749","10489.51"
"750","10512.61"
"751","10520.41"
"752","10512.5"
"753","10499.85"
"754","10495.95"
"755","10514.12"
"756","10556.43"
"757","10607.7"
"758","10651.29"
"759","10672"
"760","10671.84"
"761","10664.49"
"762","10663.83"
"763","10679.03"
"764","10698.22"
"765","10703.66"
"766","10677.83"
"767","10619.71"
"768","10557.56"
"769","10522.63"
"770","10543.68"
"771","10613.5"
"772","10697.67"
"773","10761.11"
"774","10776.53"
"775","10754.59"
"776","10717.54"
"777","10687.54"
"778","10679.99"
"779","10697.67"
"780","10741.97"
"781","10813.51"
"782","10901.12"
"783","10984.53"
"784","11043.26"
"785","11061.48"
"786","11045.73"
"787","11009.34"
"788","10965.53"
"789","10922.66"
"790","10880.26"
"791","10837"
"792","10792.17"
"793","10753.78"
"794","10736.13"
"795","10753.64"
"796","10813.79"
"797","10894.28"
"798","10964.84"
"799","10995.54"
"800","10977.98"
"801","10937.47"
"802","10902.19"
"803","10897.72"
"804","10921.31"
"805","10953"
"806","10972.55"
"807","10966.58"
"808","10945.25"
"809","10923.81"
"810","10917.23"
"811","10930.48"
"812","10955.99"
"813","10985.41"
"814","11011.21"
"815","11032.17"
"816","11050.05"
"817","11066.59"
"818","11082.47"
"819","11095.5"
"820","11103.09"
"821","11102.94"
"822","11098.87"
"823","11100.33"
"824","11116.96"
"825","11155.12"
"826","11203.92"
"827","11246.85"
"828","11267.53"
"829","11261.03"
"830","11242.05"
"831","11227.26"
"832","11231.75"
"833","11253.84"
"834","11281.44"
"835","11302.3"
"836","11308"
"837","11302.41"
"838","11291.86"
"839","11282.73"
"840","11282.58"
"841","11300.26"
"842","11344.7"
"843","11420.47"
"844","11505.9"
"845","11569.57"
"846","11580.27"
"847","11528.15"
"848","11443.17"
"849","11359.6"
"850","11309.13"
"851","11293.79"
"852","11296.78"
"853","11300.96"
"854","11294.97"
"855","11285.58"
"856","11283.15"
"857","11297.8"
"858","11333.86"
"859","11389.77"
"860","11463.69"
"861","11552.73"
"862","11648.25"
"863","11739.78"
"864","11816.9"
"865","11874.37"
"866","11915.15"
"867","11942.89"
"868","11960.59"
"869","11965.3"
"870","11951"
"871","11911.67"
"872","11847.67"
"873","11774.77"
"874","11710.94"
"875","11672.74"
"876","11655.16"
"877","11636.75"
"878","11595.65"
"879","11519.52"
"880","11430.21"
"881","11357.26"
"882","11329.2"
"883","11348.53"
"884","11389.7"
"885","11425.77"
"886","11435.89"
"887","11430.83"
"888","11431.69"
"889","11459.32"
"890","11520.71"
"891","11602.54"
"892","11689.85"
"893","11768.16"
"894","11826.31"
"895","11854.63"
"896","11843.57"
"897","11796.35"
"898","11741.13"
"899","11708.93"
"900","11727.39"
"901","11789.75"
"902","11869.07"
"903","11938.13"
"904","11978.19"
"905","11991.75"
"906","11984.6"
"907","11962.85"
"908","11937"
"909","11920.83"
"910","11928.19"
"911","11964.96"
"912","12011.94"
"913","12044.98"
"914","12041.45"
"915","12007.01"
"916","11972.54"
"917","11969.78"
"918","12017.49"
"919","12084.44"
"920","12127.44"
"921","12105.04"
"922","12018.72"
"923","11914.55"
"924","11840.66"
"925","11833"
"926","11872.66"
"927","11925.3"
"928","11957.33"
"929","11958.44"
"930","11945.63"
"931","11937.45"
"932","11949.19"
"933","11979.46"
"934","12021.65"
"935","12069.06"
"936","12113.4"
"937","12144.29"
"938","12151.24"
"939","12126.63"
"940","12078.82"
"941","12021.69"
"942","11969.04"
"943","11930.95"
"944","11912.5"
"945","11918.41"
"946","11950.5"
"947","11993.83"
"948","12027.4"
"949","12030.55"
"950","11997.97"
"951","11945.68"
"952","11891.27"
"953","11850.89"
"954","11832.04"
"955","11839.11"
"956","11876.22"
"957","11935.21"
"958","11990.95"
"959","12017.1"
"960","11992.92"
"961","11929.77"
"962","11850.38"
"963","11777.2"
"964","11721.22"
"965","11678.13"
"966","11642.61"
"967","11610.56"
"968","11584.7"
"969","11569.99"
"970","11571.74"
"971","11606.61"
"972","11705.34"
"973","11899.58"
"974","12218.89"
"975","12682.87"
"976","13308.06"
"977","14109.19"
"978","15048.99"
"979","16031.88"
"980","16959.14"
"981","17737.74"
"982","18298.85"
"983","18580.06"
"984","18522.12"
"985","18137.19"
"986","17507.74"
"987","16719.26"
"988","15855.41"
"989","14993.23"
"990","14208.34"
"991","13573.21"
"992","13106.13"
"993","12779.97"
"994","12566.17"
"995","12437.83"
"996","12373.09"
"997","12350.94"
"998","12350.97"
"999","12359.88"
"1000","12369.37"
"1001","12371.2"
"1002","12360.85"
"1003","12342.49"
"1004","12321.55"
"1005","12303.47"
"1006","12292.69"
"1007","12287.01"
"1008","12281.49"
"1009","12271.19"
"1010","12252.28"
"1011","12222.47"
"1012","12179.61"
"1013","12122.49"
"1014","12054.95"
"1015","11982.56"
"1016","11910.92"
"1017","11845.98"
"1018","11794.08"
"1019","11761.65"
"1020","11749.7"
"1021","11736.7"
"1022","11695.1"
"1023","11599.01"
"1024","11455.42"
"1025","11301.81"
"1026","11176.85"
"1027","11106.66"
"1028","11077.87"
"1029","11069.33"
"1030","11061.92"
"1031","11062.82"
"1032","11097.69"
"1033","11192.53"
"1034","11353.13"
"1035","11539.47"
"1036","11705.18"
"1037","11809.63"
"1038","11861.53"
"1039","11894.62"
"1040","11942.5"
"1041","12017.62"
"1042","12098.6"
"1043","12161.01"
"1044","12185.96"
"1045","12185.5"
"1046","12182.34"
"1047","12198.56"
"1048","12237.95"
"1049","12284.28"
"1050","12320.3"
"1051","12335.15"
"1052","12340.76"
"1053","12354.01"
"1054","12390.34"
"1055","12444.3"
"1056","12495.34"
"1057","12522.61"
"1058","12514.9"
"1059","12482.06"
"1060","12436.78"
"1061","12390.96"
"1062","12350.8"
"1063","12319.86"
"1064","12301.7"
"1065","12298.86"
"1066","12312.53"
"1067","12343.82"
"1068","12391.36"
"1069","12443.38"
"1070","12485.39"
"1071","12503.99"
"1072","12504.07"
"1073","12505.32"
"1074","12527.78"
"1075","12577.82"
"1076","12629.84"
"1077","12653.68"
"1078","12624.7"
"1079","12560.54"
"1080","12498.31"
"1081","12474.5"
"1082","12497.39"
"1083","12538.61"
"1084","12567.33"
"1085","12561.6"
"1086","12533.5"
"1087","12503.25"
"1088","12489.77"
"1089","12494.08"
"1090","12504.59"
"1091","12509.42"
"1092","12501.4"
"1093","12482.25"
"1094","12454.77"
"1095","12422.09"
"1096","12389.46"
"1097","12362.89"
"1098","12348.16"
"1099","12345.15"
"1100","12347.95"
"1101","12350.43"
"1102","12351.27"
"1103","12362.05"
"1104","12396.47"
"1105","12464.31"
"1106","12543.73"
"1107","12597.59"
"1108","12589.68"
"1109","12521.83"
"1110","12443.75"
"1111","12408.24"
"1112","12447.55"
"1113","12524.21"
"1114","12585.94"
"1115","12585.78"
"1116","12531.59"
"1117","12463.48"
"1118","12421.59"
"1119","12424.34"
"1120","12458.11"
"1121","12506.65"
"1122","12553.98"
"1123","12585.11"
"1124","12585.27"
"1125","12542.21"
"1126","12473.46"
"1127","12416.02"
"1128","12406.83"
"1129","12455.51"
"1130","12528.23"
"1131","12587.2"
"1132","12603.9"
"1133","12588.32"
"1134","12560.46"
"1135","12539.16"
"1136","12529.16"
"1137","12525.77"
"1138","12524.2"
"1139","12523.36"
"1140","12527.92"
"1141","12543.13"
"1142","12572.13"
"1143","12609.89"
"1144","12649.32"
"1145","12683.55"
"1146","12707.88"
"1147","12718.97"
"1148","12713.64"
"1149","12695.83"
"1150","12679.68"
"1151","12680.11"
"1152","12704.9"
"1153","12737.08"
"1154","12754.32"
"1155","12737.36"
"1156","12695.22"
"1157","12651.94"
"1158","12631.33"
"1159","12645.08"
"1160","12690.29"
"1161","12763.2"
"1162","12852.56"
"1163","12926.65"
"1164","12950.19"
"1165","12895.47"
"1166","12785.9"
"1167","12666.16"
"1168","12579.51"
"1169","12538.75"
"1170","12528.55"
"1171","12532.59"
"1172","12541.73"
"1173","12561.41"
"1174","12598.79"
"1175","12656.12"
"1176","12712.76"
"1177","12741.37"
"1178","12718.12"
"1179","12660.83"
"1180","12614.55"
"1181","12623.78"
"1182","12688.35"
"1183","12746.78"
"1184","12733.19"
"1185","12608.74"
"1186","12414.99"
"1187","12208.3"
"1188","12039.41"
"1189","11920.48"
"1190","11847.61"
"1191","11816.66"
"1192","11820.73"
"1193","11850.46"
"1194","11896.45"
"1195","11952.75"
"1196","12019.48"
"1197","12097.38"
"1198","12186.68"
"1199","12285.67"
"1200","12392.16"
"1201","12503.21"
"1202","12609.54"
"1203","12698.65"
"1204","12758.38"
"1205","12784.61"
"1206","12781.23"
"1207","12752.55"
"1208","12709.07"
"1209","12673.44"
"1210","12669.72"
"1211","12712.38"
"1212","12777.01"
"1213","12829.34"
"1214","12839.84"
"1215","12820.42"
"1216","12804.45"
"1217","12824.09"
"1218","12879.21"
"1219","12937.8"
"1220","12966.67"
"1221","12950.45"
"1222","12907.26"
"1223","12858.87"
"1224","12821.86"
"1225","12793.68"
"1226","12767.34"
"1227","12737.45"
"1228","12710.59"
"1229","12698.84"
"1230","12713.57"
"1231","12753.35"
"1232","12805.92"
"1233","12858.74"
"1234","12904.42"
"1235","12943.49"
"1236","12977.14"
"1237","13004.74"
"1238","13020.34"
"1239","13017.1"
"1240","12991.81"
"1241","12961.46"
"1242","12950"
"1243","12978.62"
"1244","13037.58"
"1245","13097.71"
"1246","13130.23"
"1247","13125.73"
"1248","13096.07"
"1249","13054.19"
"1250","13009.6"
"1251","12965.21"
"1252","12923.2"
"1253","12887.04"
"1254","12864.75"
"1255","12865.3"
"1256","12893.47"
"1257","12927.01"
"1258","12933.06"
"1259","12883.01"
"1260","12802.35"
"1261","12753.42"
"1262","12797.14"
"1263","12930.68"
"1264","13078.65"
"1265","13162.07"
"1266","13147.27"
"1267","13086.77"
"1268","13042.72"
"1269","13056.78"
"1270","13103.7"
"1271","13144.67"
"1272","13147.71"
"1273","13120.07"
"1274","13082.83"
"1275","13055.68"
"1276","13043.4"
"1277","13042.07"
"1278","13047.64"
"1279","13056.77"
"1280","13066.72"
"1281","13074.83"
"1282","13079.74"
"1283","13082.09"
"1284","13082.66"
"1285","13081.76"
"1286","13078.6"
"1287","13072.19"
"1288","13062.92"
"1289","13056.48"
"1290","13059.88"
"1291","13077.16"
"1292","13092.93"
"1293","13084"
"1294","13031.16"
"1295","12960.04"
"1296","12924.29"
"1297","12975.12"
"1298","13102.34"
"1299","13237.3"
"1300","13309.88"
"1301","13293.46"
"1302","13223.52"
"1303","13140.33"
"1304","13076.39"
"1305","13047.44"
"1306","13067.03"
"1307","13139"
"1308","13234.87"
"1309","13319.5"
"1310","13365.21"
"1311","13382.69"
"1312","13394.92"
"1313","13423"
"1314","13472.97"
"1315","13543.65"
"1316","13633.11"
"1317","13730.23"
"1318","13817.51"
"1319","13878.11"
"1320","13913.81"
"1321","13944.91"
"1322","13992.13"
"1323","14056.59"
"1324","14111.85"
"1325","14129.7"
"1326","14120.16"
"1327","14169.41"
"1328","14372.64"
"1329","14760.95"
"1330","15183.5"
"1331","15457.25"
"1332","15586.45"
"1333","16338.69"
"1334","18676.62"
"1335","23251.87"
"1336","28895.7"
"1337","33779.27"
"1338","36292.62"
"1339","36691.15"
"1340","36166.74"
"1341","35853.69"
"1342","36067.68"
"1343","36568"
"1344","37108.48"
"1345","37546.33"
"1346","37832.36"
"1347","37914.44"
"1348","37538.25"
"1349","36208.28"
"1350","33424.32"
"1351","29288.43"
"1352","24844.12"
"1353","21214.16"
"1354","19008.74"
"1355","17788.46"
"1356","16985.48"
"1357","16196.42"
"1358","15459.58"
"1359","14886.56"
"1360","14546.12"
"1361","14355.88"
"1362","14200.2"
"1363","13991.06"
"1364","13767.67"
"1365","13605.86"
"1366","13565.73"
"1367","13613.18"
"1368","13679.25"
"1369","13701.53"
"1370","13669.4"
"1371","13596.49"
"1372","13496.87"
"1373","13387.44"
"1374","13286.8"
"1375","13212.43"
"1376","13166.54"
"1377","13140.44"
"1378","13125.21"
"1379","13112.63"
"1380","13095.06"
"1381","13065.4"
"1382","13029.4"
"1383","13006.23"
"1384","13015.25"
"1385","13061.77"
"1386","13133.7"
"1387","13217.79"
"1388","13296.49"
"1389","13345.9"
"1390","13341.92"
"1391","13281.34"
"1392","13196.91"
"1393","13124.76"
"1394","13084.16"
"1395","13060.55"
"1396","13035.34"
"1397","12999.61"
"1398","12966.81"
"1399","12953.59"
"1400","12963.91"
"1401","12967.6"
"1402","12928.82"
"1403","12832.81"
"1404","12729.85"
"1405","12682.75"
"1406","12730.14"
"1407","12825.56"
"1408","12903.87"
"1409","12916.77"
"1410","12883.06"
"1411","12838.23"
"1412","12812.27"
"1413","12810.67"
"1414","12832.12"
"1415","12870.85"
"1416","12899.11"
"1417","12882.35"
"1418","12798.61"
"1419","12694.36"
"1420","12639.2"
"1421","12686.3"
"1422","12791.32"
"1423","12874.11"
"1424","12869.74"
"1425","12811.2"
"1426","12770.13"
"1427","12804.92"
"1428","12882.22"
"1429","12930.21"
"1430","12889.63"
"1431","12793.86"
"1432","12717.25"
"1433","12723.47"
"1434","12792.83"
"1435","12867.14"
"1436","12895.04"
"1437","12881.56"
"1438","12858.66"
"1439","12853.79"
"1440","12855.74"
"1441","12834.35"
"1442","12764.37"
"1443","12662.91"
"1444","12568.23"
"1445","12514.98"
"1446","12506.15"
"1447","12528.78"
"1448","12569.09"
"1449","12607.55"
"1450","12621.67"
"1451","12592.26"
"1452","12527.68"
"1453","12450.04"
"1454","12380.53"
"1455","12331.89"
"1456","12312.75"
"1457","12329.5"
"1458","12371.35"
"1459","12419.24"
"1460","12456.66"
"1461","12486.75"
"1462","12521.71"
"1463","12569.92"
"1464","12612.02"
"1465","12616.45"
"1466","12559.65"
"1467","12473.12"
"1468","12411.35"
"1469","12416.5"
"1470","12451.82"
"1471","12449.64"
"1472","12358.57"
"1473","12223.48"
"1474","12124.38"
"1475","12125.75"
"1476","12207.92"
"1477","12322.98"
"1478","12426.62"
"1479","12492.53"
"1480","12499.85"
"1481","12439.53"
"1482","12354.59"
"1483","12302.46"
"1484","12323.88"
"1485","12393.5"
"1486","12469.64"
"1487","12516.08"
"1488","12515.78"
"1489","12455.9"
"1490","12341.05"
"1491","12229.38"
"1492","12189.33"
"1493","12252.19"
"1494","12349.47"
"1495","12396.25"
"1496","12347.06"
"1497","12248.45"
"1498","12159.94"
"1499","12121.76"
"1500","12135.34"
"1501","12197.34"
"1502","12294.08"
"1503","12394.06"
"1504","12464.36"
"1505","12491.99"
"1506","12493.41"
"1507","12487.13"
"1508","12481.24"
"1509","12470.8"
"1510","12450.62"
"1511","12430.88"
"1512","12437.98"
"1513","12496.77"
"1514","12588.98"
"1515","12658.18"
"1516","12651.83"
"1517","12591.04"
"1518","12550.88"
"1519","12600.82"
"1520","12736.68"
"1521","12909.95"
"1522","13081.02"
"1523","13288.27"
"1524","13608.17"
"1525","14135.68"
"1526","15080.11"
"1527","16695.52"
"1528","19207.18"
"1529","22697.68"
"1530","27206.13"
"1531","32515.37"
"1532","37440.48"
"1533","40567.3"
"1534","41102.12"
"1535","40054.54"
"1536","38758.8"
"1537","38165.96"
"1538","38370.78"
"1539","39345.62"
"1540","40527.93"
"1541","40436.85"
"1542","37537.7"
"1543","31840.86"
"1544","25399.74"
"1545","20349.43"
"1546","17389.55"
"1547","15762.93"
"1548","14676.24"
"1549","13783"
"1550","13081.97"
"1551","12576.43"
"1552","12225.19"
"1553","11961.16"
"1554","11723.83"
"1555","11501.7"
"1556","11304.28"
"1557","11137.97"
"1558","10993.32"
"1559","10855.92"
"1560","10716.05"
"1561","10580.39"
"1562","10459.2"
"1563","10357.69"
"1564","10268.72"
"1565","10183.26"
"1566","10097.11"
"1567","10014.49"
"1568","9940.395"
"1569","9875.777"
"1570","9816.486"
"1571","9758.284"
"1572","9701.85"
"1573","9652.291"
"1574","9613.296"
"1575","9570.133"
"1576","9496.235"
"1577","9370.084"
"1578","9208.705"
"1579","9046.317"
"1580","8914.452"
"1581","8831.131"
"1582","8810.352"
"1583","8857.215"
"1584","8948.676"
"1585","9056.074"
"1586","9146.805"
"1587","9180.011"
"1588","9114.831"
"1589","8962.897"
"1590","8810.381"
"1591","8745.825"
"1592","8784.081"
"1593","8869.01"
"1594","8945.037"
"1595","8997.577"
"1596","9038.571"
"1597","9079.08"
"1598","9120.943"
"1599","9162.087"
"1600","9197.697"
"1601","9211.288"
"1602","9183.249"
"1603","9103.935"
"1604","8990.367"
"1605","8863.768"
"1606","8727.246"
"1607","8553.152"
"1608","8312.687"
"1609","8028.086"
"1610","7777.522"
"1611","7637.24"
"1612","7619.308"
"1613","7690.554"
"1614","7820.938"
"1615","8010.357"
"1616","8271.946"
"1617","8602.631"
"1618","8930.048"
"1619","9163.396"
"1620","9247.62"
"1621","9218.123"
"1622","9124.077"
"1623","8995.027"
"1624","8830.294"
"1625","8628.219"
"1626","8420.542"
"1627","8270.787"
"1628","8235.477"
"1629","8286.434"
"1630","8346.126"
"1631","8349.729"
"1632","8306.413"
"1633","8250.73"
"1634","8212.601"
"1635","8207.36"
"1636","8247.338"
"1637","8326.938"
"1638","8408.396"
"1639","8451.895"
"1640","8452.338"
"1641","8441.616"
"1642","8450.444"
"1643","8475.924"
"1644","8493.987"
"1645","8485.284"
"1646","8459.736"
"1647","8437.75"
"1648","8433.557"
"1649","8442.087"
"1650","8454.507"
"1651","8460.887"
"1652","8449.422"
"1653","8408.82"
"1654","8344.146"
"1655","8276.654"
"1656","8229.668"
"1657","8239.551"
"1658","8350.028"
"1659","8582.509"
"1660","8849.274"
"1661","9029.498"
"1662","9066.861"
"1663","9068.99"
"1664","9167.078"
"1665","9392.867"
"1666","9640.719"
"1667","9801.552"
"1668","9866.659"
"1669","9904.208"
"1670","9971.318"
"1671","10037.26"
"1672","10035.08"
"1673","9923.201"
"1674","9745.109"
"1675","9561.956"
"1676","9423.943"
"1677","9362.368"
"1678","9403.944"
"1679","9520.211"
"1680","9631.771"
"1681","9667.003"
"1682","9634.251"
"1683","9580.845"
"1684","9544.576"
"1685","9525.105"
"1686","9512.928"
"1687","9501.274"
"1688","9488.625"
"1689","9474.045"
"1690","9456.582"
"1691","9435.263"
"1692","9407.992"
"1693","9363.043"
"1694","9283.771"
"1695","9157.232"
"1696","8985.251"
"1697","8773.383"
"1698","8540.123"
"1699","8328.218"
"1700","8182.214"
"1701","8126.754"
"1702","8167.612"
"1703","8299.89"
"1704","8440.959"
"1705","8471.421"
"1706","8323.064"
"1707","8107.438"
"1708","7974.123"
"1709","7978.279"
"1710","8020.028"
"1711","7991.333"
"1712","7887.579"
"1713","7787.764"
"1714","7761.205"
"1715","7800.969"
"1716","7870.75"
"1717","7938.716"
"1718","7985.609"
"1719","7994.609"
"1720","7961.918"
"1721","7900.424"
"1722","7824.546"
"1723","7753.193"
"1724","7708.05"
"1725","7706.909"
"1726","7750.111"
"1727","7833.042"
"1728","7932.526"
"1729","7989.773"
"1730","7945.641"
"1731","7813.38"
"1732","7671.136"
"1733","7589.887"
"1734","7576.616"
"1735","7612.162"
"1736","7673.705"
"1737","7728.676"
"1738","7743.656"
"1739","7715.359"
"1740","7677.419"
"1741","7662.242"
"1742","7668.257"
"1743","7674.973"
"1744","7667.644"
"1745","7653.836"
"1746","7646.282"
"1747","7653.914"
"1748","7679.661"
"1749","7724.566"
"1750","7771.776"
"1751","7791.833"
"1752","7763.182"
"1753","7703.193"
"1754","7640.827"
"1755","7608.328"
"1756","7644.15"
"1757","7784.093"
"1758","8006.151"
"1759","8240.191"
"1760","8420.879"
"1761","8518.858"
"1762","8517.352"
"1763","8416.672"
"1764","8254.416"
"1765","8073.02"
"1766","7911.386"
"1767","7805.165"
"1768","7787.266"
"1769","7873.858"
"1770","8074.639"
"1771","8372.022"
"1772","8684.824"
"1773","8924.04"
"1774","9031.688"
"1775","8979.674"
"1776","8754.061"
"1777","8423.481"
"1778","8088.91"
"1779","7816.265"
"1780","7589.009"
"1781","7380.256"
"1782","7193.28"
"1783","7059.859"
"1784","7004.424"
"1785","6999.708"
"1786","6999.1"
"1787","6977.719"
"1788","6958.498"
"1789","6969.897"
"1790","7024.618"
"1791","7121.609"
"1792","7258.208"
"1793","7425.582"
"1794","7612.677"
"1795","7793.803"
"1796","7915.112"
"1797","7925.162"
"1798","7856.281"
"1799","7804.284"
"1800","7839.63"
"1801","7911.565"
"1802","7935.88"
"1803","7864.406"
"1804","7706.714"
"1805","7480.091"
"1806","7229.314"
"1807","7016.195"
"1808","6885.118"
"1809","6818.779"
"1810","6786.895"
"1811","6774.456"
"1812","6785.593"
"1813","6825.87"
"1814","6902.512"
"1815","7023.51"
"1816","7185.793"
"1817","7358.236"
"1818","7506.481"
"1819","7620.62"
"1820","7713.392"
"1821","7793.997"
"1822","7848.236"
"1823","7854.404"
"1824","7813.023"
"1825","7763.794"
"1826","7744.973"
"1827","7730.761"
"1828","7654.098"
"1829","7477.295"
"1830","7265.878"
"1831","7105.259"
"1832","7007.678"
"1833","6899.518"
"1834","6721.235"
"1835","6542.382"
"1836","6485.66"
"1837","6605.648"
"1838","6812.712"
"1839","7004.053"
"1840","7152.476"
"1841","7286.743"
"1842","7427.363"
"1843","7557.743"
"1844","7652.821"
"1845","7707.122"
"1846","7739.887"
"1847","7771.009"
"1848","7813.492"
"1849","7877.366"
"1850","7969.604"
"1851","8090.672"
"1852","8236.848"
"1853","8358.974"
"1854","8375.03"
"1855","8244.854"
"1856","8082.528"
"1857","8033.235"
"1858","8120.224"
"1859","8226.139"
"1860","8252.091"
"1861","8261.341"
"1862","8377.682"
"1863","8641.395"
"1864","8941.626"
"1865","9159.502"
"1866","9261.443"
"1867","9264.693"
"1868","9187.786"
"1869","9050.864"
"1870","8874.847"
"1871","8688.787"
"1872","8529.046"
"1873","8425.177"
"1874","8375.256"
"1875","8368.292"
"1876","8377.108"
"1877","8353.392"
"1878","8259.021"
"1879","8134.959"
"1880","8054.569"
"1881","8052.999"
"1882","8093.374"
"1883","8133.947"
"1884","8165.676"
"1885","8198.854"
"1886","8244.356"
"1887","8313.88"
"1888","8418.589"
"1889","8558.313"
"1890","8723.645"
"1891","8891.28"
"1892","8987.208"
"1893","8929.353"
"1894","8742.55"
"1895","8567.759"
"1896","8519.12"
"1897","8541.327"
"1898","8525.951"
"1899","8425.976"
"1900","8281.417"
"1901","8135.393"
"1902","8006.041"
"1903","7901.028"
"1904","7831.075"
"1905","7812.457"
"1906","7856.174"
"1907","7919.252"
"1908","7929.791"
"1909","7858.072"
"1910","7770.727"
"1911","7742.734"
"1912","7787.473"
"1913","7877.568"
"1914","7980.598"
"1915","8052.378"
"1916","8049.87"
"1917","7981.832"
"1918","7898.01"
"1919","7843.595"
"1920","7844.292"
"1921","7918.962"
"1922","8029.8"
"1923","8086.789"
"1924","8031.033"
"1925","7934.121"
"1926","7896.796"
"1927","7942.637"
"1928","8014.535"
"1929","8056.945"
"1930","8039.068"
"1931","7938.463"
"1932","7779.073"
"1933","7638.565"
"1934","7578.02"
"1935","7560.097"
"1936","7518.714"
"1937","7455.656"
"1938","7457.747"
"1939","7594.086"
"1940","7808.519"
"1941","8004.047"
"1942","8131.488"
"1943","8205.046"
"1944","8236.866"
"1945","8202.866"
"1946","8067.571"
"1947","7854.463"
"1948","7667.36"
"1949","7587.151"
"1950","7528.008"
"1951","7347.231"
"1952","7029.557"
"1953","6734.609"
"1954","6601.951"
"1955","6581.766"
"1956","6558.411"
"1957","6477.449"
"1958","6367.013"
"1959","6259.102"
"1960","6174.497"
"1961","6129.822"
"1962","6127.193"
"1963","6150.015"
"1964","6176.289"
"1965","6162.887"
"1966","6062.157"
"1967","5906.342"
"1968","5824.031"
"1969","5906.317"
"1970","6038.518"
"1971","6049.908"
"1972","5908.937"
"1973","5737.526"
"1974","5642.142"
"1975","5629.646"
"1976","5679.819"
"1977","5751.119"
"1978","5781.021"
"1979","5726.994"
"1980","5623.081"
"1981","5519.097"
"1982","5433.716"
"1983","5358.91"
"1984","5294.306"
"1985","5265.671"
"1986","5298.992"
"1987","5353.181"
"1988","5338.236"
"1989","5210.992"
"1990","5050.316"
"1991","4947.706"
"1992","4922.913"
"1993","4952.284"
"1994","5004.994"
"1995","5036.869"
"1996","5009.123"
"1997","4941.444"
"1998","4881.546"
"1999","4841.425"
"2000","4774.25"
"2001","4643.743"
"2002","4512.667"
"2003","4479.021"
"2004","4544.799"
"2005","4588.993"
"2006","4517.624"
"2007","4398.527"
"2008","4341.779"
"2009","4363.846"
"2010","4389.277"
"2011","4371.774"
"2012","4375.485"
"2013","4478.624"
"2014","4632.211"
"2015","4693.867"
"2016","4591.559"
"2017","4427.007"
"2018","4317.151"
"2019","4282.911"
"2020","4293.814"
"2021","4310.371"
"2022","4278.717"
"2023","4162.842"
"2024","4043.787"
"2025","4042.585"
"2026","4150.51"
"2027","4203.349"
"2028","4095.052"
"2029","3989.857"
"2030","4103.818"
"2031","4381.368"
"2032","4541.85"
"2033","4433.97"
"2034","4262.328"
"2035","4260.86"
"2036","4389.466"
"2037","4456.795"
"2038","4390.109"
"2039","4321.388"
"2040","4372.713"
"2041","4492.063"
"2042","4567.796"
"2043","4566.914"
"2044","4543.614"
"2045","4532.72"
"2046","4485.317"
"2047","4342.933"
"2048","4163.985"
"2049","4089.224"
"2050","4173.511"
"2051","4286.563"
"2052","4299.333"
"2053","4261.95"
"2054","4299.575"
"2055","4425.476"
"2056","4508.498"
"2057","4449.702"
"2058","4319.089"
"2059","4223.708"
"2060","4185.363"
"2061","4159.554"
"2062","4118.556"
"2063","4076.743"
"2064","4052.618"
"2065","4051.868"
"2066","4073.717"
"2067","4091.504"
"2068","4044.938"
"2069","3903.184"
"2070","3761.002"
"2071","3735.896"
"2072","3822.861"
"2073","3925.685"
"2074","3983.412"
"2075","4014.184"
"2076","4044.57"
"2077","4090.352"
"2078","4162.583"
"2079","4260.847"
"2080","4371.541"
"2081","4479.959"
"2082","4570.346"
"2083","4629.086"
"2084","4669.259"
"2085","4720.429"
"2086","4798.719"
"2087","4896.965"
"2088","5003.366"
"2089","5094.308"
"2090","5143.192"
"2091","5139.1"
"2092","5085.039"
"2093","4987.463"
"2094","4859.934"
"2095","4715.717"
"2096","4557.654"
"2097","4384.891"
"2098","4227.853"
"2099","4154.552"
"2100","4202.729"
"2101","4301.642"
"2102","4363.106"
"2103","4355.121"
"2104","4279.496"
"2105","4159.952"
"2106","4053.549"
"2107","4008.059"
"2108","4017.172"
"2109","4058.999"
"2110","4100.479"
"2111","4100.411"
"2112","4050.255"
"2113","4004.948"
"2114","4015.917"
"2115","4074.822"
"2116","4151.999"
"2117","4199.464"
"2118","4153.115"
"2119","4016.547"
"2120","3949.593"
"2121","4092.015"
"2122","4308.921"
"2123","4363.914"
"2124","4223.191"
"2125","4059.542"
"2126","3994.443"
"2127","3991.39"
"2128","3990.99"
"2129","3952.174"
"2130","3844.899"
"2131","3722.746"
"2132","3731.737"
"2133","3938.01"
"2134","4170.483"
"2135","4241.651"
"2136","4161.82"
"2137","4032.701"
"2138","3909.872"
"2139","3795.241"
"2140","3699.164"
"2141","3664.411"
"2142","3725.272"
"2143","3803.235"
"2144","3771.02"
"2145","3643.054"
"2146","3595.45"
"2147","3727.933"
"2148","3901.958"
"2149","3957.413"
"2150","3885.038"
"2151","3745.002"
"2152","3625.039"
"2153","3642.015"
"2154","3828.981"
"2155","3998.573"
"2156","3962.364"
"2157","3766.599"
"2158","3553.063"
"2159","3423.793"
"2160","3441.437"
"2161","3600.506"
"2162","3743.942"
"2163","3724.551"
"2164","3577.235"
"2165","3401.487"
"2166","3281.052"
"2167","3285.746"
"2168","3411.274"
"2169","3511.533"
"2170","3471.669"
"2171","3402.625"
"2172","3467.253"
"2173","3632.597"
"2174","3730.542"
"2175","3693.259"
"2176","3613.735"
"2177","3572.325"
"2178","3550.823"
"2179","3514.423"
"2180","3485.386"
"2181","3515.649"
"2182","3599.363"
"2183","3660.269"
"2184","3644.619"
"2185","3572.271"
"2186","3477.256"
"2187","3404.367"
"2188","3399.018"
"2189","3430.703"
"2190","3400.806"
"2191","3291.656"
"2192","3249.448"
"2193","3388.958"
"2194","3592.392"
"2195","3688.884"
"2196","3667.358"
"2197","3618.641"
"2198","3585.81"
"2199","3544.122"
"2200","3473.203"
"2201","3380.758"
"2202","3276.781"
"2203","3149.949"
"2204","2982.127"
"2205","2804.037"
"2206","2691.357"
"2207","2690.008"
"2208","2784.684"
"2209","2941.839"
"2210","3079.859"
"2211","3116.165"
"2212","3096.8"
"2213","3141.542"
"2214","3275.54"
"2215","3407.021"
"2216","3470.017"
"2217","3483.478"
"2218","3474.71"
"2219","3441.789"
"2220","3375.893"
"2221","3317.835"
"2222","3343.782"
"2223","3432.428"
"2224","3414.648"
"2225","3193.996"
"2226","2942.562"
"2227","2853.141"
"2228","2889.072"
"2229","2920.142"
"2230","2901.742"
"2231","2863.565"
"2232","2819.099"
"2233","2749.744"
"2234","2656.616"
"2235","2622.529"
"2236","2728.654"
"2237","2897.344"
"2238","2982.552"
"2239","2979.631"
"2240","3015.692"
"2241","3144.57"
"2242","3277.056"
"2243","3328.516"
"2244","3289.341"
"2245","3172.654"
"2246","3033.681"
"2247","2944.418"
"2248","2900.161"
"2249","2824.975"
"2250","2704.816"
"2251","2641.512"
"2252","2705.669"
"2253","2811.629"
"2254","2852.224"
"2255","2825.142"
"2256","2774.482"
"2257","2718.128"
"2258","2650.775"
"2259","2557.63"
"2260","2409.718"
"2261","2212.402"
"2262","2084.33"
"2263","2135.883"
"2264","2275.406"
"2265","2340.759"
"2266","2320.908"
"2267","2317.048"
"2268","2338.599"
"2269","2263.963"
"2270","2053.334"
"2271","1905.641"
"2272","1997.984"
"2273","2194.019"
"2274","2272.771"
"2275","2189.717"
"2276","2008.729"
"2277","1828.125"
"2278","1781.628"
"2279","1899.28"
"2280","2000.212"
"2281","1943.374"
"2282","1835.166"
"2283","1818.661"
"2284","1871.316"
"2285","1899.838"
"2286","1876.072"
"2287","1825.541"
"2288","1795.444"
"2289","1861.647"
"2290","2035.7"
"2291","2156.466"
"2292","2090.294"
"2293","1975.497"
"2294","2001.894"
"2295","2052.89"
"2296","1855.972"
"2297","1468.837"
"2298","1269.321"
"2299","1405.305"
"2300","1613.507"
