,"Scan 00954"
"400","18403.15"
"401","18377.3"
"402","18294.57"
"403","18189.12"
"404","18094.85"
"405","18042.19"
"406","18033.26"
"407","18055.91"
"408","18097.95"
"409","18147.33"
"410","18192.64"
"411","18222.94"
"412","18227.41"
"413","18196.02"
"414","18134.61"
"415","18063.73"
"416","18004.33"
"417","17976.81"
"418","17986.05"
"419","18017.93"
"420","18057.27"
"421","18089.03"
"422","18103.63"
"423","18100.13"
"424","18078.37"
"425","18038.24"
"426","17982.98"
"427","17922.88"
"428","17869.04"
"429","17832.51"
"430","17819.86"
"431","17825.87"
"432","17843.39"
"433","17865.32"
"434","17885.46"
"435","17900.64"
"436","17908.34"
"437","17906.09"
"438","17892.44"
"439","17870.46"
"440","17844.44"
"441","17818.63"
"442","17796.78"
"443","17779.91"
"444","17768.15"
"445","17761.61"
"446","17759.76"
"447","17757.66"
"448","17748.59"
"449","17725.86"
"450","17684.37"
"451","17631.81"
"452","17582.17"
"453","17549.36"
"454","17545.37"
"455","17563.66"
"456","17587.09"
"457","17598.49"
"458","17582.4"
"459","17542.78"
"460","17496.38"
"461","17460.09"
"462","17449.15"
"463","17456.87"
"464","17460.11"
"465","17435.53"
"466","17361.88"
"467","17251.58"
"468","17145.12"
"469","17083.54"
"470","17105.37"
"471","17202.99"
"472","17326.59"
"473","17425.13"
"474","17449.83"
"475","17397.13"
"476","17308.22"
"477","17226.01"
"478","17191.74"
"479","17211.06"
"480","17251.89"
"481","17280.48"
"482","17264.35"
"483","17200.01"
"484","17116.39"
"485","17043.96"
"486","17012.23"
"487","17025.97"
"488","17061.27"
"489","17092.73"
"490","17095.6"
"491","17061.12"
"492","16999.56"
"493","16922.28"
"494","16840.42"
"495","16761.05"
"496","16686.3"
"497","16617.98"
"498","16557.87"
"499","16506.02"
"500","16460.47"
"501","16419.14"
"502","16379.94"
"503","16339.69"
"504","16293.9"
"505","16238.09"
"506","16167.93"
"507","16084.98"
"508","15997.51"
"509","15914.12"
"510","15843.25"
"511","15789.95"
"512","15755.5"
"513","15740.97"
"514","15747.22"
"515","15769.1"
"516","15795.2"
"517","15813.87"
"518","15813.99"
"519","15794.51"
"520","15764.27"
"521","15732.44"
"522","15707.8"
"523","15691.94"
"524","15679.99"
"525","15666.88"
"526","15647.79"
"527","15622.07"
"528","15592.43"
"529","15561.68"
"530","15532.61"
"531","15507.97"
"532","15490.5"
"533","15482.92"
"534","15487.16"
"535","15495.99"
"536","15496.23"
"537","15474.69"
"538","15420.22"
"539","15341.29"
"540","15257.45"
"541","15188.26"
"542","15150.88"
"543","15143.35"
"544","15154.48"
"545","15173.06"
"546","15189.1"
"547","15200.37"
"548","15207.82"
"549","15212.43"
"550","15214.93"
"551","15215"
"552","15211.95"
"553","15205.1"
"554","15193.54"
"555","15175.47"
"556","15148.86"
"557","15111.65"
"558","15064.5"
"559","15017.38"
"560","14982.27"
"561","14971.07"
"562","14988.77"
"563","15021.51"
"564","15052.24"
"565","15064.05"
"566","15049.59"
"567","15021.96"
"568","14996.83"
"569","14989.68"
"570","15004.01"
"571","15023.28"
"572","15029.13"
"573","15003.69"
"574","14945.18"
"575","14872.79"
"576","14806.98"
"577","14767.53"
"578","14759.75"
"579","14774.54"
"580","14802.21"
"581","14833.2"
"582","14859.22"
"583","14872.99"
"584","14867.26"
"585","14836.54"
"586","14792"
"587","14754.2"
"588","14743.76"
"589","14776.59"
"590","14837.54"
"591","14898.77"
"592","14932.48"
"593","14918.2"
"594","14869.17"
"595","14808.35"
"596","14758.64"
"597","14736.3"
"598","14736.5"
"599","14750.24"
"600","14768.54"
"601","14783.75"
"602","14791.06"
"603","14786.06"
"604","14764.43"
"605","14726.73"
"606","14680.99"
"607","14635.82"
"608","14599.69"
"609","14577.72"
"610","14571.49"
"611","14582.39"
"612","14611.18"
"613","14650.05"
"614","14684.9"
"615","14701.53"
"616","14688.16"
"617","14652.9"
"618","14613.56"
"619","14587.97"
"620","14589.31"
"621","14607.08"
"622","14623.25"
"623","14619.85"
"624","14586.06"
"625","14533.68"
"626","14479.01"
"627","14438.23"
"628","14419.14"
"629","14412.71"
"630","14407.96"
"631","14394.15"
"632","14370.56"
"633","14349.31"
"634","14343.35"
"635","14364.53"
"636","14407.37"
"637","14452.08"
"638","14478.51"
"639","14469.43"
"640","14432.87"
"641","14389.83"
"642","14361.37"
"643","14363.52"
"644","14387.6"
"645","14417.32"
"646","14436.42"
"647","14434.48"
"648","14417.63"
"649","14394.94"
"650","14375.41"
"651","14364.36"
"652","14360.9"
"653","14363.55"
"654","14370.76"
"655","14379.01"
"656","14382.82"
"657","14376.62"
"658","14355.98"
"659","14328.51"
"660","14309.04"
"661","14312.43"
"662","14348.56"
"663","14399.79"
"664","14439.13"
"665","14439.66"
"666","14388.77"
"667","14316.06"
"668","14258.87"
"669","14254.02"
"670","14310.96"
"671","14394.16"
"672","14464.03"
"673","14482.71"
"674","14446.2"
"675","14381.94"
"676","14318.54"
"677","14282"
"678","14276.1"
"679","14293.07"
"680","14325.07"
"681","14364.72"
"682","14406.59"
"683","14445.79"
"684","14477.47"
"685","14497.55"
"686","14503.72"
"687","14493.92"
"688","14466.31"
"689","14426.35"
"690","14388.24"
"691","14366.62"
"692","14374.39"
"693","14404.34"
"694","14436.35"
"695","14450.17"
"696","14430.75"
"697","14390.29"
"698","14349.87"
"699","14330.5"
"700","14343.03"
"701","14372.73"
"702","14400.85"
"703","14409.1"
"704","14393.42"
"705","14367.96"
"706","14348.06"
"707","14347.67"
"708","14364.75"
"709","14386.72"
"710","14400.84"
"711","14397.36"
"712","14381.8"
"713","14364.53"
"714","14355.89"
"715","14361.09"
"716","14373.27"
"717","14383.83"
"718","14384.43"
"719","14374.71"
"720","14363.42"
"721","14359.81"
"722","14371.93"
"723","14396.24"
"724","14422.67"
"725","14441.12"
"726","14444.4"
"727","14437.24"
"728","14427.45"
"729","14422.76"
"730","14426.05"
"731","14431.31"
"732","14431.6"
"733","14420.47"
"734","14400.31"
"735","14381.19"
"736","14373.46"
"737","14385.17"
"738","14409.99"
"739","14435.79"
"740","14450.47"
"741","14447.47"
"742","14435.18"
"743","14424.49"
"744","14426.01"
"745","14441.45"
"746","14461.83"
"747","14477.51"
"748","14480.11"
"749","14472.98"
"750","14465.9"
"751","14468.67"
"752","14487.3"
"753","14513.76"
"754","14536.86"
"755","14545.59"
"756","14539.86"
"757","14536.27"
"758","14552.85"
"759","14605.32"
"760","14681.42"
"761","14749.88"
"762","14779.16"
"763","14747.18"
"764","14674.21"
"765","14592.25"
"766","14533.12"
"767","14513.17"
"768","14521.41"
"769","14544.02"
"770","14567.84"
"771","14589.25"
"772","14611.83"
"773","14639.35"
"774","14673.99"
"775","14710.27"
"776","14740.37"
"777","14756.53"
"778","14758.4"
"779","14759.47"
"780","14774.74"
"781","14817.94"
"782","14883.95"
"783","14953.12"
"784","15005.44"
"785","15025.59"
"786","15020.98"
"787","15005.86"
"788","14994.38"
"789","14993.35"
"790","14996.48"
"791","14996.1"
"792","14985.29"
"793","14966.92"
"794","14950.91"
"795","14947.32"
"796","14962.5"
"797","14986.89"
"798","15006.67"
"799","15008.19"
"800","14988.9"
"801","14963.63"
"802","14948.68"
"803","14958.41"
"804","14986.13"
"805","15012.3"
"806","15017.22"
"807","14989.15"
"808","14943.94"
"809","14903.35"
"810","14888.79"
"811","14908.43"
"812","14953.94"
"813","15015.93"
"814","15084.83"
"815","15149.72"
"816","15198.96"
"817","15220.99"
"818","15211.4"
"819","15184.01"
"820","15155.46"
"821","15141.66"
"822","15143.68"
"823","15149"
"824","15144.57"
"825","15121.06"
"826","15088.39"
"827","15062.8"
"828","15060.37"
"829","15086.53"
"830","15128.39"
"831","15171.23"
"832","15201.34"
"833","15215.96"
"834","15219.08"
"835","15214.78"
"836","15207.12"
"837","15199.95"
"838","15197.08"
"839","15202.15"
"840","15213.59"
"841","15224.15"
"842","15226.32"
"843","15214.24"
"844","15192.11"
"845","15167.88"
"846","15149.5"
"847","15143.16"
"848","15151.85"
"849","15178.2"
"850","15223.97"
"851","15280.89"
"852","15334.29"
"853","15369.41"
"854","15376.99"
"855","15365.23"
"856","15345.73"
"857","15329.82"
"858","15321.82"
"859","15318.92"
"860","15317.97"
"861","15316.91"
"862","15319.26"
"863","15330.39"
"864","15355.58"
"865","15394.51"
"866","15437.93"
"867","15475.83"
"868","15499.16"
"869","15507.51"
"870","15504.88"
"871","15495.33"
"872","15484.73"
"873","15483.26"
"874","15501.74"
"875","15549.62"
"876","15615.94"
"877","15674.2"
"878","15697.49"
"879","15669.62"
"880","15612.9"
"881","15558.28"
"882","15535.82"
"883","15552.2"
"884","15588.95"
"885","15626.37"
"886","15648.21"
"887","15656.4"
"888","15658.79"
"889","15663.21"
"890","15676.21"
"891","15702.48"
"892","15746.54"
"893","15811.25"
"894","15886.83"
"895","15957.83"
"896","16008.88"
"897","16031.83"
"898","16032.69"
"899","16019.09"
"900","15998.42"
"901","15975.52"
"902","15953.78"
"903","15936.54"
"904","15925.72"
"905","15919.63"
"906","15916.02"
"907","15912.91"
"908","15912.09"
"909","15918.13"
"910","15935.67"
"911","15966.63"
"912","16004.5"
"913","16041.07"
"914","16068.38"
"915","16082.73"
"916","16084.24"
"917","16073.14"
"918","16050.99"
"919","16024.33"
"920","16000.88"
"921","15988.28"
"922","15991.84"
"923","16014.46"
"924","16058.9"
"925","16124.86"
"926","16198.06"
"927","16260.32"
"928","16293.85"
"929","16293.43"
"930","16268.58"
"931","16229.66"
"932","16186.4"
"933","16145.56"
"934","16112.91"
"935","16094.15"
"936","16091.64"
"937","16103.53"
"938","16127.66"
"939","16161.05"
"940","16196.13"
"941","16223.76"
"942","16234.94"
"943","16228.39"
"944","16213.18"
"945","16199.14"
"946","16194.54"
"947","16198.5"
"948","16206.85"
"949","16215.45"
"950","16221.46"
"951","16223.89"
"952","16221.84"
"953","16214.86"
"954","16204.92"
"955","16194.88"
"956","16187.56"
"957","16183.83"
"958","16181.85"
"959","16179.61"
"960","16175.31"
"961","16168.45"
"962","16159"
"963","16146.96"
"964","16134.67"
"965","16127.5"
"966","16131.07"
"967","16149.21"
"968","16176.45"
"969","16204.18"
"970","16223.94"
"971","16232.38"
"972","16232.52"
"973","16227.74"
"974","16220.36"
"975","16207.47"
"976","16184.6"
"977","16147.56"
"978","16100.58"
"979","16057.35"
"980","16032.08"
"981","16034.92"
"982","16058.96"
"983","16092.7"
"984","16124.85"
"985","16147.73"
"986","16157.33"
"987","16149.75"
"988","16124.64"
"989","16094.37"
"990","16074.19"
"991","16078.42"
"992","16105.93"
"993","16142.58"
"994","16173.84"
"995","16190.99"
"996","16202.53"
"997","16220.12"
"998","16254.25"
"999","16300.09"
"1000","16342.19"
"1001","16364.92"
"1002","16360.33"
"1003","16338.74"
"1004","16313.07"
"1005","16296.27"
"1006","16299.37"
"1007","16320.57"
"1008","16352.81"
"1009","16388.98"
"1010","16421.91"
"1011","16444.3"
"1012","16448.87"
"1013","16431.01"
"1014","16400.81"
"1015","16373.38"
"1016","16363.42"
"1017","16373.36"
"1018","16391.22"
"1019","16404.21"
"1020","16403.14"
"1021","16394.28"
"1022","16387.96"
"1023","16394.05"
"1024","16413.64"
"1025","16439.6"
"1026","16464.51"
"1027","16482.79"
"1028","16494.66"
"1029","16501.52"
"1030","16504.97"
"1031","16509.9"
"1032","16523.45"
"1033","16552.77"
"1034","16597.56"
"1035","16640.5"
"1036","16661.88"
"1037","16645.57"
"1038","16605.57"
"1039","16571.16"
"1040","16571.49"
"1041","16616.37"
"1042","16684.7"
"1043","16752.59"
"1044","16799.58"
"1045","16824.17"
"1046","16831.44"
"1047","16826.49"
"1048","16815.36"
"1049","16805.14"
"1050","16802.93"
"1051","16813.73"
"1052","16834.96"
"1053","16862.39"
"1054","16891.56"
"1055","16915.25"
"1056","16924.23"
"1057","16909.24"
"1058","16870.61"
"1059","16829.58"
"1060","16810.17"
"1061","16832.69"
"1062","16889.37"
"1063","16959.71"
"1064","17023.31"
"1065","17067.49"
"1066","17090.04"
"1067","17089.47"
"1068","17066.63"
"1069","17032.36"
"1070","17000.09"
"1071","16982.58"
"1072","16981.15"
"1073","16987.89"
"1074","16994.67"
"1075","16996.56"
"1076","16996.3"
"1077","16997.71"
"1078","17003.78"
"1079","17011.09"
"1080","17013.29"
"1081","17004.21"
"1082","16985.35"
"1083","16968.17"
"1084","16964.83"
"1085","16982.85"
"1086","17012.09"
"1087","17038.19"
"1088","17047.71"
"1089","17039.81"
"1090","17022.58"
"1091","17004.25"
"1092","16991.12"
"1093","16985.59"
"1094","16989.66"
"1095","17004.23"
"1096","17023.87"
"1097","17040.85"
"1098","17047.65"
"1099","17041.05"
"1100","17022.09"
"1101","16992.01"
"1102","16954.25"
"1103","16918.2"
"1104","16894.25"
"1105","16891.09"
"1106","16903.8"
"1107","16920.9"
"1108","16931.03"
"1109","16929.66"
"1110","16920.82"
"1111","16909.11"
"1112","16898.45"
"1113","16890.54"
"1114","16886.61"
"1115","16887.85"
"1116","16895.1"
"1117","16909.04"
"1118","16930.23"
"1119","16955.12"
"1120","16973.98"
"1121","16976.63"
"1122","16956.2"
"1123","16919.05"
"1124","16874.77"
"1125","16833.08"
"1126","16804.85"
"1127","16801.74"
"1128","16835.15"
"1129","16899.28"
"1130","16960.91"
"1131","16984.37"
"1132","16946.28"
"1133","16874.61"
"1134","16810.65"
"1135","16792.36"
"1136","16816.52"
"1137","16852.53"
"1138","16869.66"
"1139","16860.28"
"1140","16853.2"
"1141","16880.5"
"1142","16959.25"
"1143","17046.71"
"1144","17085.31"
"1145","17024.51"
"1146","16892.66"
"1147","16767.09"
"1148","16724.86"
"1149","16787.73"
"1150","16898.25"
"1151","16992.79"
"1152","17025.75"
"1153","17014.09"
"1154","16988.26"
"1155","16976.08"
"1156","16981.32"
"1157","16994.9"
"1158","17007.77"
"1159","17015.24"
"1160","17017.87"
"1161","17016.55"
"1162","17012.95"
"1163","17010.98"
"1164","17014.94"
"1165","17028.69"
"1166","17053.07"
"1167","17087.73"
"1168","17131.83"
"1169","17175.84"
"1170","17202.1"
"1171","17192.79"
"1172","17145.93"
"1173","17091.36"
"1174","17062.77"
"1175","17084.51"
"1176","17137.22"
"1177","17188.8"
"1178","17209.77"
"1179","17202.09"
"1180","17188.23"
"1181","17190.58"
"1182","17211.97"
"1183","17228.45"
"1184","17214.08"
"1185","17158.4"
"1186","17096.68"
"1187","17072.67"
"1188","17120.98"
"1189","17214.06"
"1190","17298.44"
"1191","17323.35"
"1192","17289.65"
"1193","17243.1"
"1194","17230.63"
"1195","17270.77"
"1196","17331.93"
"1197","17377.39"
"1198","17379.81"
"1199","17347.21"
"1200","17295.9"
"1201","17242.36"
"1202","17203.98"
"1203","17198.63"
"1204","17243.04"
"1205","17326.75"
"1206","17412.31"
"1207","17461.21"
"1208","17455.83"
"1209","17419.51"
"1210","17380.34"
"1211","17360.7"
"1212","17359.83"
"1213","17371.07"
"1214","17387.71"
"1215","17402.43"
"1216","17407.58"
"1217","17395.96"
"1218","17369.66"
"1219","17340.07"
"1220","17318.93"
"1221","17314.19"
"1222","17326.76"
"1223","17356.79"
"1224","17400.4"
"1225","17438.96"
"1226","17450.42"
"1227","17417.77"
"1228","17362.21"
"1229","17322.45"
"1230","17335"
"1231","17397.12"
"1232","17472.78"
"1233","17525.22"
"1234","17538.81"
"1235","17530.37"
"1236","17519.5"
"1237","17519.68"
"1238","17526.74"
"1239","17533.43"
"1240","17534.38"
"1241","17534.72"
"1242","17543.22"
"1243","17567.43"
"1244","17601.62"
"1245","17631.71"
"1246","17643.91"
"1247","17636.36"
"1248","17620.31"
"1249","17607.67"
"1250","17605.65"
"1251","17612.56"
"1252","17625.67"
"1253","17642.56"
"1254","17661.84"
"1255","17682.37"
"1256","17702.65"
"1257","17719.2"
"1258","17727.71"
"1259","17724.42"
"1260","17712.39"
"1261","17699.32"
"1262","17692.73"
"1263","17693.4"
"1264","17694.35"
"1265","17688.22"
"1266","17674.59"
"1267","17666.1"
"1268","17676.87"
"1269","17712.27"
"1270","17749.13"
"1271","17758.45"
"1272","17718.96"
"1273","17653.35"
"1274","17599.88"
"1275","17593.17"
"1276","17630"
"1277","17684.85"
"1278","17732.56"
"1279","17761.51"
"1280","17772.81"
"1281","17768.14"
"1282","17750.55"
"1283","17725.25"
"1284","17697.59"
"1285","17671.52"
"1286","17647.56"
"1287","17625.75"
"1288","17606.94"
"1289","17595.31"
"1290","17595.88"
"1291","17611.89"
"1292","17635.36"
"1293","17653.76"
"1294","17656.36"
"1295","17652.26"
"1296","17663.05"
"1297","17709.2"
"1298","17783.03"
"1299","17850.19"
"1300","17875.7"
"1301","17848.29"
"1302","17790.58"
"1303","17727.76"
"1304","17681.16"
"1305","17663.68"
"1306","17687.14"
"1307","17753.22"
"1308","17830.04"
"1309","17878.78"
"1310","17868.78"
"1311","17811.32"
"1312","17731.13"
"1313","17652.59"
"1314","17597.22"
"1315","17585.21"
"1316","17633.75"
"1317","17720.94"
"1318","17797.66"
"1319","17816.13"
"1320","17772.97"
"1321","17708.98"
"1322","17666.38"
"1323","17663.19"
"1324","17683.35"
"1325","17708.31"
"1326","17725.29"
"1327","17733.05"
"1328","17731.77"
"1329","17723.27"
"1330","17714.18"
"1331","17711.96"
"1332","17722.01"
"1333","17741.17"
"1334","17764.1"
"1335","17784.57"
"1336","17791.11"
"1337","17770.34"
"1338","17712.54"
"1339","17638.9"
"1340","17586.14"
"1341","17588.21"
"1342","17642.84"
"1343","17723.09"
"1344","17801.86"
"1345","17858.33"
"1346","17877.34"
"1347","17844.61"
"1348","17767.36"
"1349","17678.45"
"1350","17612.04"
"1351","17586.56"
"1352","17595.88"
"1353","17631.75"
"1354","17684.17"
"1355","17739.68"
"1356","17784.37"
"1357","17806.13"
"1358","17797.8"
"1359","17752.98"
"1360","17671.92"
"1361","17578.22"
"1362","17500.63"
"1363","17462.44"
"1364","17461.86"
"1365","17489.87"
"1366","17537.29"
"1367","17594.01"
"1368","17649.6"
"1369","17692.9"
"1370","17707.36"
"1371","17673.88"
"1372","17578.24"
"1373","17455.86"
"1374","17371.04"
"1375","17382.73"
"1376","17472.65"
"1377","17567.38"
"1378","17595.84"
"1379","17551.18"
"1380","17482.06"
"1381","17437.61"
"1382","17432.24"
"1383","17444.34"
"1384","17451.12"
"1385","17447.72"
"1386","17451.33"
"1387","17480.12"
"1388","17529.63"
"1389","17562.48"
"1390","17539.04"
"1391","17453.65"
"1392","17358.87"
"1393","17312.78"
"1394","17340.77"
"1395","17402.84"
"1396","17451.21"
"1397","17456.41"
"1398","17431.64"
"1399","17396.09"
"1400","17364.26"
"1401","17337.84"
"1402","17316.43"
"1403","17299.79"
"1404","17288.19"
"1405","17282.03"
"1406","17280.55"
"1407","17279.06"
"1408","17272.01"
"1409","17256.41"
"1410","17239.67"
"1411","17231.72"
"1412","17239.86"
"1413","17259.48"
"1414","17282.69"
"1415","17302.36"
"1416","17315.21"
"1417","17319.18"
"1418","17312.4"
"1419","17294.18"
"1420","17264.18"
"1421","17223.92"
"1422","17185.58"
"1423","17165.29"
"1424","17176.56"
"1425","17216.21"
"1426","17274.46"
"1427","17340.41"
"1428","17395.71"
"1429","17418.86"
"1430","17394.14"
"1431","17347.78"
"1432","17324.59"
"1433","17362.23"
"1434","17442.67"
"1435","17522.14"
"1436","17562.3"
"1437","17568.98"
"1438","17569.15"
"1439","17586.38"
"1440","17615.09"
"1441","17635.42"
"1442","17629.76"
"1443","17600.33"
"1444","17559.23"
"1445","17518.58"
"1446","17490.02"
"1447","17484.98"
"1448","17512.31"
"1449","17559.28"
"1450","17602.25"
"1451","17619.53"
"1452","17606.22"
"1453","17565.79"
"1454","17503.23"
"1455","17435.35"
"1456","17384.77"
"1457","17370.85"
"1458","17386.9"
"1459","17413.81"
"1460","17433.87"
"1461","17440.46"
"1462","17432.1"
"1463","17406.83"
"1464","17359.06"
"1465","17281.62"
"1466","17171.72"
"1467","17056.6"
"1468","16976.02"
"1469","16960.87"
"1470","16985.25"
"1471","17000.96"
"1472","16967.84"
"1473","16893.14"
"1474","16801.45"
"1475","16717.29"
"1476","16664.85"
"1477","16668.15"
"1478","16738.51"
"1479","16824.73"
"1480","16856.43"
"1481","16785.43"
"1482","16661.87"
"1483","16563.07"
"1484","16546.74"
"1485","16592.95"
"1486","16662.58"
"1487","16720.26"
"1488","16743.87"
"1489","16714.14"
"1490","16627.65"
"1491","16529.68"
"1492","16474.79"
"1493","16491.58"
"1494","16538.82"
"1495","16563.73"
"1496","16537.19"
"1497","16485.24"
"1498","16441.7"
"1499","16427.23"
"1500","16436.04"
"1501","16459.17"
"1502","16486.26"
"1503","16504.55"
"1504","16501.29"
"1505","16474.65"
"1506","16439.05"
"1507","16409.99"
"1508","16394.78"
"1509","16390.53"
"1510","16393.71"
"1511","16401.74"
"1512","16413.01"
"1513","16425.6"
"1514","16430.97"
"1515","16414.71"
"1516","16364.46"
"1517","16299.39"
"1518","16261.83"
"1519","16288.93"
"1520","16357.26"
"1521","16406.87"
"1522","16386.64"
"1523","16321.97"
"1524","16275.64"
"1525","16297.37"
"1526","16352.41"
"1527","16373.06"
"1528","16309.89"
"1529","16203.37"
"1530","16121.48"
"1531","16113.45"
"1532","16157.24"
"1533","16214"
"1534","16253.72"
"1535","16272.22"
"1536","16269.96"
"1537","16249.14"
"1538","16215.83"
"1539","16176.66"
"1540","16141.73"
"1541","16127.03"
"1542","16148.6"
"1543","16197.75"
"1544","16233.18"
"1545","16213.17"
"1546","16139.36"
"1547","16057.48"
"1548","16012.53"
"1549","16008.26"
"1550","16016.6"
"1551","16011.84"
"1552","16001.17"
"1553","16010.9"
"1554","16061.47"
"1555","16129.93"
"1556","16174.77"
"1557","16164.26"
"1558","16115.89"
"1559","16062.39"
"1560","16027.67"
"1561","16004.68"
"1562","15979.6"
"1563","15944.43"
"1564","15905.59"
"1565","15871.63"
"1566","15845.88"
"1567","15822.51"
"1568","15794.88"
"1569","15761.8"
"1570","15728.91"
"1571","15702.32"
"1572","15687.44"
"1573","15689.13"
"1574","15711.55"
"1575","15751.05"
"1576","15798.98"
"1577","15845.76"
"1578","15875.59"
"1579","15869.94"
"1580","15817.86"
"1581","15745.23"
"1582","15689"
"1583","15675.08"
"1584","15694.37"
"1585","15730.91"
"1586","15771.72"
"1587","15810.25"
"1588","15840.73"
"1589","15856.46"
"1590","15849.42"
"1591","15812.51"
"1592","15761.22"
"1593","15732.75"
"1594","15760.48"
"1595","15822.02"
"1596","15858.93"
"1597","15823.33"
"1598","15745.39"
"1599","15688.38"
"1600","15698.04"
"1601","15744.03"
"1602","15775.62"
"1603","15762.94"
"1604","15731.91"
"1605","15717.38"
"1606","15727.97"
"1607","15727.71"
"1608","15678.14"
"1609","15591.99"
"1610","15538.07"
"1611","15581.25"
"1612","15695.98"
"1613","15792.9"
"1614","15796.14"
"1615","15738.37"
"1616","15700.25"
"1617","15740.42"
"1618","15822.48"
"1619","15884.77"
"1620","15888.95"
"1621","15855.8"
"1622","15815.04"
"1623","15781.04"
"1624","15744.55"
"1625","15695.39"
"1626","15646.03"
"1627","15630.59"
"1628","15678.78"
"1629","15766.74"
"1630","15839.39"
"1631","15852.63"
"1632","15825.32"
"1633","15797.98"
"1634","15797.45"
"1635","15808.13"
"1636","15806.26"
"1637","15781.51"
"1638","15747.54"
"1639","15720.34"
"1640","15709.91"
"1641","15719.92"
"1642","15752.35"
"1643","15793.38"
"1644","15819.22"
"1645","15811.82"
"1646","15786.94"
"1647","15772.47"
"1648","15783.55"
"1649","15795.46"
"1650","15776.13"
"1651","15723.33"
"1652","15686.54"
"1653","15717.87"
"1654","15811.32"
"1655","15903.37"
"1656","15934.83"
"1657","15913.4"
"1658","15884.36"
"1659","15882.04"
"1660","15885.17"
"1661","15855.64"
"1662","15775.72"
"1663","15679.48"
"1664","15608.64"
"1665","15581.7"
"1666","15585.11"
"1667","15602.81"
"1668","15616.37"
"1669","15605.59"
"1670","15556.48"
"1671","15497.36"
"1672","15473.97"
"1673","15511.25"
"1674","15564.55"
"1675","15575.05"
"1676","15520.54"
"1677","15441.79"
"1678","15384.17"
"1679","15359.68"
"1680","15349.48"
"1681","15335.51"
"1682","15315.58"
"1683","15295.27"
"1684","15277.02"
"1685","15250.97"
"1686","15204.4"
"1687","15137.55"
"1688","15075.34"
"1689","15044.49"
"1690","15048.13"
"1691","15066.07"
"1692","15078.69"
"1693","15080.05"
"1694","15071.21"
"1695","15051.7"
"1696","15014.89"
"1697","14952.79"
"1698","14871.07"
"1699","14801.14"
"1700","14776"
"1701","14802.11"
"1702","14860.77"
"1703","14931.82"
"1704","14991.8"
"1705","15015.63"
"1706","14990.06"
"1707","14943.2"
"1708","14911.97"
"1709","14914.25"
"1710","14936.74"
"1711","14963.47"
"1712","14983.03"
"1713","14987.61"
"1714","14971.27"
"1715","14938.83"
"1716","14899.31"
"1717","14858.29"
"1718","14811.88"
"1719","14755.06"
"1720","14701"
"1721","14686.11"
"1722","14742.58"
"1723","14839.29"
"1724","14906.28"
"1725","14892.21"
"1726","14830.66"
"1727","14778.4"
"1728","14766.3"
"1729","14775.36"
"1730","14781.63"
"1731","14774.22"
"1732","14754.06"
"1733","14724.76"
"1734","14705.4"
"1735","14721.32"
"1736","14779.49"
"1737","14836.16"
"1738","14840.28"
"1739","14789.12"
"1740","14739.14"
"1741","14743.36"
"1742","14785.93"
"1743","14812.62"
"1744","14786.16"
"1745","14734.48"
"1746","14700.34"
"1747","14701.79"
"1748","14717.86"
"1749","14725.28"
"1750","14716.76"
"1751","14696.22"
"1752","14668.2"
"1753","14639.05"
"1754","14615.68"
"1755","14601.84"
"1756","14595.27"
"1757","14593.14"
"1758","14594.16"
"1759","14598.34"
"1760","14605.15"
"1761","14610.89"
"1762","14610.72"
"1763","14603.53"
"1764","14596.34"
"1765","14596.73"
"1766","14602.23"
"1767","14601.06"
"1768","14584.5"
"1769","14565.08"
"1770","14563.47"
"1771","14589.36"
"1772","14626.81"
"1773","14656.8"
"1774","14672.85"
"1775","14680.57"
"1776","14684.49"
"1777","14678.89"
"1778","14654.1"
"1779","14609.68"
"1780","14566.85"
"1781","14548.93"
"1782","14557.93"
"1783","14575.66"
"1784","14584.89"
"1785","14579.25"
"1786","14556.45"
"1787","14521.44"
"1788","14494.92"
"1789","14498.08"
"1790","14522.12"
"1791","14531.99"
"1792","14501.68"
"1793","14458.86"
"1794","14449.06"
"1795","14492.68"
"1796","14561.57"
"1797","14623.2"
"1798","14663.21"
"1799","14680.95"
"1800","14675.27"
"1801","14641.17"
"1802","14572.83"
"1803","14482.33"
"1804","14410.39"
"1805","14395.77"
"1806","14426.82"
"1807","14460.76"
"1808","14467.2"
"1809","14460.6"
"1810","14464.63"
"1811","14484.28"
"1812","14501.09"
"1813","14496.22"
"1814","14459.71"
"1815","14385.83"
"1816","14290.05"
"1817","14241.45"
"1818","14312.54"
"1819","14473.41"
"1820","14599.25"
"1821","14591.22"
"1822","14508.53"
"1823","14461.94"
"1824","14494.8"
"1825","14531.38"
"1826","14492.4"
"1827","14399.81"
"1828","14340.74"
"1829","14369.63"
"1830","14425.01"
"1831","14422.62"
"1832","14346.12"
"1833","14258.82"
"1834","14219.65"
"1835","14226.08"
"1836","14250.26"
"1837","14275.56"
"1838","14309.37"
"1839","14360.52"
"1840","14415.17"
"1841","14442.74"
"1842","14424.23"
"1843","14387.25"
"1844","14369.85"
"1845","14378.79"
"1846","14381.32"
"1847","14348.46"
"1848","14296.2"
"1849","14259.95"
"1850","14261.45"
"1851","14293.23"
"1852","14342.83"
"1853","14381.64"
"1854","14369.34"
"1855","14288.32"
"1856","14204.2"
"1857","14198.97"
"1858","14275.8"
"1859","14346.97"
"1860","14336.92"
"1861","14276.43"
"1862","14236.17"
"1863","14251.42"
"1864","14293.37"
"1865","14328.72"
"1866","14348.83"
"1867","14359.71"
"1868","14362.89"
"1869","14346.81"
"1870","14299.39"
"1871","14242.78"
"1872","14229.87"
"1873","14295.21"
"1874","14387.59"
"1875","14433.21"
"1876","14404.57"
"1877","14334.73"
"1878","14261.29"
"1879","14224.31"
"1880","14264.5"
"1881","14375.02"
"1882","14459.84"
"1883","14424.85"
"1884","14300.43"
"1885","14190.6"
"1886","14164.3"
"1887","14194.15"
"1888","14237.94"
"1889","14271.53"
"1890","14285.49"
"1891","14273.89"
"1892","14242.47"
"1893","14200.05"
"1894","14164.85"
"1895","14165.29"
"1896","14220.31"
"1897","14297.22"
"1898","14347.11"
"1899","14340.85"
"1900","14277.34"
"1901","14165.25"
"1902","14066.06"
"1903","14062.94"
"1904","14170.09"
"1905","14276.76"
"1906","14273.91"
"1907","14191.53"
"1908","14134.19"
"1909","14157.72"
"1910","14205.63"
"1911","14211.66"
"1912","14180.4"
"1913","14163.31"
"1914","14187.49"
"1915","14209.78"
"1916","14178.9"
"1917","14108.35"
"1918","14062.87"
"1919","14083.94"
"1920","14130"
"1921","14144.75"
"1922","14127.03"
"1923","14126.42"
"1924","14174.75"
"1925","14226.31"
"1926","14218.48"
"1927","14144.07"
"1928","14053.84"
"1929","13992"
"1930","13960.65"
"1931","13950.09"
"1932","13950.8"
"1933","13953.42"
"1934","13952.48"
"1935","13961.86"
"1936","14000.52"
"1937","14052.93"
"1938","14060.28"
"1939","13979.46"
"1940","13866.86"
"1941","13810.84"
"1942","13839.99"
"1943","13903.73"
"1944","13952.86"
"1945","13977.44"
"1946","13981.19"
"1947","13967.51"
"1948","13939.28"
"1949","13901.06"
"1950","13867.06"
"1951","13854.71"
"1952","13869.6"
"1953","13901.06"
"1954","13936.51"
"1955","13959.47"
"1956","13952.31"
"1957","13911.31"
"1958","13851.43"
"1959","13790.21"
"1960","13751.65"
"1961","13761.07"
"1962","13807.76"
"1963","13834.48"
"1964","13796.85"
"1965","13733.38"
"1966","13707.84"
"1967","13730.59"
"1968","13747.53"
"1969","13714.67"
"1970","13654.65"
"1971","13608.96"
"1972","13594.98"
"1973","13603.51"
"1974","13622.7"
"1975","13635.54"
"1976","13624.25"
"1977","13586.44"
"1978","13534.78"
"1979","13483.72"
"1980","13451.58"
"1981","13455.61"
"1982","13477.28"
"1983","13467.33"
"1984","13404.07"
"1985","13353.69"
"1986","13392.19"
"1987","13495.85"
"1988","13568.19"
"1989","13549.9"
"1990","13480.61"
"1991","13412.36"
"1992","13362.4"
"1993","13327.04"
"1994","13305.15"
"1995","13301.43"
"1996","13318.2"
"1997","13332.42"
"1998","13309.03"
"1999","13240.75"
"2000","13166.01"
"2001","13121.92"
"2002","13110.87"
"2003","13122.03"
"2004","13142.25"
"2005","13155.51"
"2006","13150.71"
"2007","13140.43"
"2008","13142.97"
"2009","13152.34"
"2010","13138.69"
"2011","13082.82"
"2012","13004.4"
"2013","12931.08"
"2014","12887.58"
"2015","12896.36"
"2016","12952.39"
"2017","12985.13"
"2018","12926.93"
"2019","12826.45"
"2020","12793.53"
"2021","12855.96"
"2022","12901.01"
"2023","12833.16"
"2024","12745.04"
"2025","12794.65"
"2026","12970.17"
"2027","13056.33"
"2028","12904.14"
"2029","12679.34"
"2030","12613"
"2031","12704.26"
"2032","12760.14"
"2033","12667.7"
"2034","12538.58"
"2035","12506.82"
"2036","12571.52"
"2037","12656.76"
"2038","12702.62"
"2039","12677.91"
"2040","12569.46"
"2041","12452.09"
"2042","12428.32"
"2043","12489.06"
"2044","12501.59"
"2045","12383.8"
"2046","12253.55"
"2047","12259.86"
"2048","12381.72"
"2049","12478.04"
"2050","12463.45"
"2051","12375.93"
"2052","12267.46"
"2053","12177.24"
"2054","12138.13"
"2055","12147.32"
"2056","12156.25"
"2057","12126.77"
"2058","12075.25"
"2059","12030.8"
"2060","12006.74"
"2061","12004.1"
"2062","12020.92"
"2063","12049.25"
"2064","12079.77"
"2065","12099.45"
"2066","12093.79"
"2067","12057.64"
"2068","11998.11"
"2069","11927.45"
"2070","11874.81"
"2071","11869.77"
"2072","11887.18"
"2073","11861.21"
"2074","11770.1"
"2075","11686.83"
"2076","11682.49"
"2077","11734.44"
"2078","11783.09"
"2079","11811.62"
"2080","11852.57"
"2081","11920.51"
"2082","11961.32"
"2083","11913.23"
"2084","11789.48"
"2085","11649.97"
"2086","11545.04"
"2087","11507.43"
"2088","11555.06"
"2089","11639.1"
"2090","11691.94"
"2091","11692.45"
"2092","11660.71"
"2093","11613.43"
"2094","11555.49"
"2095","11493.07"
"2096","11454.5"
"2097","11476.37"
"2098","11540.09"
"2099","11560.58"
"2100","11486.98"
"2101","11395.77"
"2102","11379.99"
"2103","11426.02"
"2104","11457.06"
"2105","11427.35"
"2106","11340.85"
"2107","11215.92"
"2108","11114.96"
"2109","11106"
"2110","11162.23"
"2111","11186.11"
"2112","11130.43"
"2113","11048.58"
"2114","10999.24"
"2115","11006.16"
"2116","11078.81"
"2117","11180.11"
"2118","11231.42"
"2119","11193.03"
"2120","11118.07"
"2121","11063.51"
"2122","11026.09"
"2123","10979.96"
"2124","10932.3"
"2125","10924.02"
"2126","10963.25"
"2127","10969.3"
"2128","10864.7"
"2129","10701.36"
"2130","10586.55"
"2131","10563.59"
"2132","10604.66"
"2133","10670.43"
"2134","10700.17"
"2135","10641.5"
"2136","10538.21"
"2137","10477.32"
"2138","10482.25"
"2139","10503.07"
"2140","10503.08"
"2141","10495.45"
"2142","10498.58"
"2143","10502.54"
"2144","10484.45"
"2145","10436.32"
"2146","10367.17"
"2147","10287.04"
"2148","10206.14"
"2149","10136.58"
"2150","10104.14"
"2151","10138.41"
"2152","10205.59"
"2153","10203.6"
"2154","10090"
"2155","9985.451"
"2156","10010.28"
"2157","10104.6"
"2158","10138.58"
"2159","10089.6"
"2160","10039.83"
"2161","10036.83"
"2162","10038.98"
"2163","10001.64"
"2164","9934.844"
"2165","9867.354"
"2166","9811.182"
"2167","9764.195"
"2168","9724.205"
"2169","9689.765"
"2170","9662.336"
"2171","9656.726"
"2172","9689.101"
"2173","9741.629"
"2174","9773.03"
"2175","9761.399"
"2176","9715.857"
"2177","9653.12"
"2178","9607.728"
"2179","9609.976"
"2180","9610.618"
"2181","9519.903"
"2182","9358.612"
"2183","9281.954"
"2184","9375.655"
"2185","9512.7"
"2186","9549.827"
"2187","9478.701"
"2188","9347.73"
"2189","9235.978"
"2190","9249.361"
"2191","9392.333"
"2192","9468.089"
"2193","9322.982"
"2194","9110.156"
"2195","9050.402"
"2196","9126.896"
"2197","9171.748"
"2198","9112.123"
"2199","9009.042"
"2200","8922.833"
"2201","8882.049"
"2202","8902.183"
"2203","8947.516"
"2204","8962.072"
"2205","8931.311"
"2206","8879.002"
"2207","8822.68"
"2208","8764.915"
"2209","8707.656"
"2210","8657.456"
"2211","8622.211"
"2212","8610.342"
"2213","8629.504"
"2214","8650.336"
"2215","8598.363"
"2216","8453.856"
"2217","8344.561"
"2218","8384.711"
"2219","8475.119"
"2220","8453.46"
"2221","8345.841"
"2222","8316.919"
"2223","8408.657"
"2224","8473.36"
"2225","8403.146"
"2226","8266.081"
"2227","8151.59"
"2228","8054.714"
"2229","7934.299"
"2230","7824.389"
"2231","7823.207"
"2232","7935.646"
"2233","8002.492"
"2234","7912.626"
"2235","7786.301"
"2236","7770.98"
"2237","7817.989"
"2238","7791.696"
"2239","7677.67"
"2240","7574.709"
"2241","7532.452"
"2242","7502.78"
"2243","7447.077"
"2244","7401.436"
"2245","7407.899"
"2246","7415.015"
"2247","7331.93"
"2248","7188.336"
"2249","7126.002"
"2250","7191.024"
"2251","7250.103"
"2252","7195.069"
"2253","7076.336"
"2254","6971.678"
"2255","6895.404"
"2256","6833.251"
"2257","6777.398"
"2258","6725.716"
"2259","6673.246"
"2260","6610.123"
"2261","6530.161"
"2262","6440.436"
"2263","6350.865"
"2264","6272.495"
"2265","6215.012"
"2266","6161.353"
"2267","6074.908"
"2268","5950.145"
"2269","5825.303"
"2270","5726.419"
"2271","5639.056"
"2272","5543.64"
"2273","5428.064"
"2274","5286.75"
"2275","5158.859"
"2276","5107.96"
"2277","5119.65"
"2278","5093.714"
"2279","4980.224"
"2280","4838.746"
"2281","4725.531"
"2282","4634.363"
"2283","4547.955"
"2284","4476.61"
"2285","4439.532"
"2286","4398.248"
"2287","4268.936"
"2288","4048.955"
"2289","3854.157"
"2290","3762.949"
"2291","3732.132"
"2292","3700.077"
"2293","3611.16"
"2294","3425.387"
"2295","3236.702"
"2296","3205.15"
"2297","3298.604"
"2298","3298.892"
"2299","3121.838"
"2300","2922.792"
