,"Scan 00948"
"400","13434.19"
"401","13454.43"
"402","13480.77"
"403","13506.38"
"404","13524.46"
"405","13529.14"
"406","13522.13"
"407","13508.93"
"408","13495.07"
"409","13485.59"
"410","13479.87"
"411","13473.38"
"412","13461.53"
"413","13440.05"
"414","13410.71"
"415","13380.85"
"416","13358"
"417","13349.44"
"418","13356.31"
"419","13372.2"
"420","13390.26"
"421","13403.72"
"422","13406.57"
"423","13394.02"
"424","13361.43"
"425","13304.22"
"426","13225.02"
"427","13141.42"
"428","13072.78"
"429","13038.32"
"430","13047.46"
"431","13083.49"
"432","13125.44"
"433","13152.49"
"434","13150.83"
"435","13130.62"
"436","13107.09"
"437","13095.35"
"438","13106.44"
"439","13133.7"
"440","13165.74"
"441","13191.21"
"442","13200.57"
"443","13193.76"
"444","13173.91"
"445","13144.13"
"446","13107.58"
"447","13067.8"
"448","13028.48"
"449","12993.28"
"450","12965.4"
"451","12944.34"
"452","12927.8"
"453","12913.48"
"454","12899.2"
"455","12884.1"
"456","12868.03"
"457","12850.85"
"458","12832.57"
"459","12815.08"
"460","12801.45"
"461","12794.77"
"462","12797.62"
"463","12805.35"
"464","12807.94"
"465","12795.33"
"466","12758.28"
"467","12701.46"
"468","12641.04"
"469","12593.44"
"470","12574.09"
"471","12580.24"
"472","12592.58"
"473","12591.28"
"474","12557.62"
"475","12495.89"
"476","12433.13"
"477","12397.2"
"478","12414.64"
"479","12482.17"
"480","12564.91"
"481","12626.64"
"482","12632.42"
"483","12577.5"
"484","12490.75"
"485","12402.71"
"486","12343.08"
"487","12322.55"
"488","12329.7"
"489","12351.96"
"490","12376.85"
"491","12393.85"
"492","12394.71"
"493","12371.33"
"494","12315.95"
"495","12229.34"
"496","12122.56"
"497","12007.24"
"498","11894.87"
"499","11794.66"
"500","11713.07"
"501","11656.36"
"502","11630.46"
"503","11631.83"
"504","11645.63"
"505","11656.49"
"506","11649.39"
"507","11618.37"
"508","11567.9"
"509","11503.03"
"510","11428.77"
"511","11351.17"
"512","11277.4"
"513","11214.6"
"514","11169.72"
"515","11144.2"
"516","11133.82"
"517","11134.07"
"518","11140.44"
"519","11147.11"
"520","11147.05"
"521","11133.17"
"522","11098.92"
"523","11047.02"
"524","10988.56"
"525","10934.87"
"526","10896.57"
"527","10874.07"
"528","10859.33"
"529","10844.13"
"530","10820.86"
"531","10790.2"
"532","10758.92"
"533","10733.88"
"534","10721.36"
"535","10720.8"
"536","10727.26"
"537","10735.75"
"538","10741.19"
"539","10737.61"
"540","10718.53"
"541","10677.52"
"542","10610.51"
"543","10532.56"
"544","10467.99"
"545","10441.04"
"546","10470.57"
"547","10539.95"
"548","10618.14"
"549","10674.22"
"550","10683.03"
"551","10650.05"
"552","10591.07"
"553","10521.84"
"554","10456.61"
"555","10403.44"
"556","10368.66"
"557","10358.56"
"558","10375.85"
"559","10410.71"
"560","10450.64"
"561","10483.2"
"562","10499.01"
"563","10496.91"
"564","10477.16"
"565","10440.05"
"566","10389.82"
"567","10339.23"
"568","10302.13"
"569","10292.14"
"570","10312.21"
"571","10347.44"
"572","10381.32"
"573","10397.6"
"574","10389.79"
"575","10363.96"
"576","10327.03"
"577","10285.82"
"578","10245.97"
"579","10211.97"
"580","10188.24"
"581","10178.7"
"582","10180.16"
"583","10184.04"
"584","10181.67"
"585","10165.58"
"586","10139.72"
"587","10114.47"
"588","10100.26"
"589","10105.61"
"590","10126.63"
"591","10154.31"
"592","10179.66"
"593","10195.12"
"594","10199.58"
"595","10193.82"
"596","10178.64"
"597","10156.11"
"598","10132.53"
"599","10115.03"
"600","10110.67"
"601","10121.03"
"602","10135.53"
"603","10142.02"
"604","10128.55"
"605","10092.62"
"606","10046.27"
"607","10002.71"
"608","9974.799"
"609","9967.524"
"610","9977.483"
"611","10000.87"
"612","10033.72"
"613","10069.68"
"614","10100.67"
"615","10118.56"
"616","10116.44"
"617","10096.84"
"618","10066.98"
"619","10034.06"
"620","10004.56"
"621","9981.189"
"622","9965.48"
"623","9958.941"
"624","9961.052"
"625","9964.744"
"626","9961.678"
"627","9943.581"
"628","9907.996"
"629","9864.171"
"630","9822.728"
"631","9794.143"
"632","9784.651"
"633","9795.025"
"634","9825.686"
"635","9876.511"
"636","9938.473"
"637","9995.212"
"638","10030.19"
"639","10029.25"
"640","9998.414"
"641","9954.164"
"642","9913.003"
"643","9888.102"
"644","9876.269"
"645","9869.255"
"646","9858.848"
"647","9840.578"
"648","9820.688"
"649","9807.306"
"650","9808.442"
"651","9824.999"
"652","9845.886"
"653","9858.889"
"654","9852.319"
"655","9826.225"
"656","9792.532"
"657","9763.665"
"658","9751.059"
"659","9756.002"
"660","9773.676"
"661","9799.19"
"662","9827.307"
"663","9850.838"
"664","9861.929"
"665","9852.76"
"666","9820.147"
"667","9774.623"
"668","9729.232"
"669","9696.899"
"670","9685.007"
"671","9691.844"
"672","9714.864"
"673","9751.272"
"674","9793.109"
"675","9827.606"
"676","9841.843"
"677","9825.143"
"678","9786.385"
"679","9744.585"
"680","9718.792"
"681","9723.288"
"682","9751.694"
"683","9792.002"
"684","9832.25"
"685","9862.988"
"686","9880.367"
"687","9881.296"
"688","9862.918"
"689","9829.373"
"690","9793.189"
"691","9767.349"
"692","9763.661"
"693","9780.704"
"694","9808.563"
"695","9837.211"
"696","9857.752"
"697","9867.148"
"698","9864.274"
"699","9848.017"
"700","9819.91"
"701","9788.202"
"702","9762.164"
"703","9750.852"
"704","9755.807"
"705","9768.949"
"706","9781.59"
"707","9785.623"
"708","9779.74"
"709","9767.111"
"710","9750.975"
"711","9734.597"
"712","9721.443"
"713","9715.033"
"714","9718.867"
"715","9733.897"
"716","9755.057"
"717","9776.418"
"718","9792.183"
"719","9799.945"
"720","9801.212"
"721","9797.702"
"722","9791.122"
"723","9783.084"
"724","9775.147"
"725","9768.864"
"726","9765.451"
"727","9764.751"
"728","9766.254"
"729","9769.461"
"730","9774.773"
"731","9784.238"
"732","9800.083"
"733","9824.231"
"734","9853.296"
"735","9879.259"
"736","9893.97"
"737","9890.76"
"738","9872.546"
"739","9846.068"
"740","9818.061"
"741","9795.036"
"742","9782.933"
"743","9787.567"
"744","9814.491"
"745","9860.308"
"746","9910.809"
"747","9951.163"
"748","9968.114"
"749","9963.084"
"750","9945.538"
"751","9925.016"
"752","9909.504"
"753","9901.321"
"754","9901.494"
"755","9911.031"
"756","9929.862"
"757","9956.266"
"758","9988.374"
"759","10024"
"760","10056.77"
"761","10077.48"
"762","10076.91"
"763","10049.75"
"764","10008.26"
"765","9969.597"
"766","9950.771"
"767","9958.647"
"768","9982.072"
"769","10008.05"
"770","10024.46"
"771","10031.41"
"772","10038.36"
"773","10054.94"
"774","10087.74"
"775","10128.35"
"776","10163.76"
"777","10181.09"
"778","10177.82"
"779","10170.81"
"780","10179.04"
"781","10219.94"
"782","10287.96"
"783","10359.78"
"784","10411.65"
"785","10425.36"
"786","10409.31"
"787","10379.96"
"788","10353.66"
"789","10339.42"
"790","10333.14"
"791","10329.34"
"792","10322.97"
"793","10314.63"
"794","10308.98"
"795","10310.74"
"796","10323"
"797","10341.68"
"798","10360.78"
"799","10374.36"
"800","10380.16"
"801","10381.59"
"802","10382.59"
"803","10386.86"
"804","10395.51"
"805","10408.12"
"806","10424.24"
"807","10442.39"
"808","10457.61"
"809","10464.17"
"810","10456.6"
"811","10438.75"
"812","10426.17"
"813","10435.11"
"814","10478.51"
"815","10543.37"
"816","10604.51"
"817","10636.71"
"818","10627.09"
"819","10593.99"
"820","10560.59"
"821","10549.16"
"822","10563.27"
"823","10589.33"
"824","10613.1"
"825","10622.89"
"826","10620.42"
"827","10611.76"
"828","10602.94"
"829","10596.96"
"830","10591.62"
"831","10584.19"
"832","10572.48"
"833","10560.11"
"834","10554.27"
"835","10562.22"
"836","10587.36"
"837","10620.68"
"838","10650.67"
"839","10666.13"
"840","10664.04"
"841","10650.37"
"842","10631.49"
"843","10613.39"
"844","10599.62"
"845","10592.82"
"846","10595.64"
"847","10609.88"
"848","10635.84"
"849","10673.66"
"850","10723.09"
"851","10779.44"
"852","10835.19"
"853","10882.76"
"854","10915.29"
"855","10928.03"
"856","10916.65"
"857","10877.35"
"858","10818.78"
"859","10762.26"
"860","10729.7"
"861","10737.96"
"862","10777.07"
"863","10828.24"
"864","10872.8"
"865","10901.01"
"866","10917.2"
"867","10926.93"
"868","10935.29"
"869","10943.17"
"870","10949.26"
"871","10952.25"
"872","10952.9"
"873","10956.95"
"874","10970.88"
"875","11000.62"
"876","11044.31"
"877","11094.12"
"878","11142.08"
"879","11180.7"
"880","11204.19"
"881","11207.19"
"882","11184.76"
"883","11143.68"
"884","11103.38"
"885","11083.89"
"886","11100.19"
"887","11140.83"
"888","11185.74"
"889","11215.14"
"890","11224.25"
"891","11230.32"
"892","11252.37"
"893","11305.4"
"894","11375.06"
"895","11433.77"
"896","11454.07"
"897","11427.15"
"898","11380.52"
"899","11345.9"
"900","11351.51"
"901","11390.14"
"902","11433.77"
"903","11454.14"
"904","11436.88"
"905","11402.58"
"906","11377.24"
"907","11384.85"
"908","11421.39"
"909","11462.22"
"910","11482.2"
"911","11466.32"
"912","11431.37"
"913","11400.46"
"914","11395.73"
"915","11421.64"
"916","11466.89"
"917","11519.66"
"918","11567.81"
"919","11598.14"
"920","11597.15"
"921","11552.3"
"922","11474.02"
"923","11396.58"
"924","11355.38"
"925","11376.65"
"926","11445.53"
"927","11535.58"
"928","11620.66"
"929","11684.99"
"930","11724.83"
"931","11737.17"
"932","11720.7"
"933","11683.08"
"934","11634.76"
"935","11586.19"
"936","11546.6"
"937","11523.7"
"938","11525.12"
"939","11554.94"
"940","11597.82"
"941","11631.69"
"942","11634.96"
"943","11605.63"
"944","11568.3"
"945","11549.47"
"946","11569.41"
"947","11612.3"
"948","11649.34"
"949","11652.17"
"950","11614.51"
"951","11560.68"
"952","11517.32"
"953","11506.15"
"954","11520.44"
"955","11543.05"
"956","11557.08"
"957","11555.46"
"958","11544.73"
"959","11532.39"
"960","11524.48"
"961","11518.47"
"962","11508.82"
"963","11490.13"
"964","11463.57"
"965","11439"
"966","11426.9"
"967","11435.32"
"968","11459.33"
"969","11489.62"
"970","11517.03"
"971","11536"
"972","11545.47"
"973","11544.64"
"974","11533.38"
"975","11514.61"
"976","11492.21"
"977","11469.98"
"978","11449.64"
"979","11430.57"
"980","11412.03"
"981","11394.83"
"982","11386.34"
"983","11395.67"
"984","11431.15"
"985","11483.17"
"986","11524.44"
"987","11526.92"
"988","11475.43"
"989","11401.01"
"990","11345.15"
"991","11347.04"
"992","11406.84"
"993","11491.93"
"994","11568.66"
"995","11614.06"
"996","11636.74"
"997","11651.09"
"998","11670.71"
"999","11699.08"
"1000","11732.62"
"1001","11767.6"
"1002","11799.08"
"1003","11819.26"
"1004","11819.93"
"1005","11792.86"
"1006","11733.23"
"1007","11659.04"
"1008","11597.68"
"1009","11576.14"
"1010","11597.93"
"1011","11632.97"
"1012","11648.52"
"1013","11619.8"
"1014","11565.37"
"1015","11518.38"
"1016","11511.16"
"1017","11548.02"
"1018","11600.33"
"1019","11637.6"
"1020","11638.28"
"1021","11618.72"
"1022","11605.29"
"1023","11623.03"
"1024","11669.7"
"1025","11717.83"
"1026","11738.96"
"1027","11717.82"
"1028","11680.65"
"1029","11661.83"
"1030","11692.77"
"1031","11765.44"
"1032","11844.19"
"1033","11892.82"
"1034","11892.07"
"1035","11861.15"
"1036","11824.59"
"1037","11804.84"
"1038","11806.46"
"1039","11824.94"
"1040","11855.64"
"1041","11891.11"
"1042","11919.39"
"1043","11928.08"
"1044","11908.76"
"1045","11874.95"
"1046","11847.73"
"1047","11847.59"
"1048","11877.56"
"1049","11921.54"
"1050","11962.43"
"1051","11987.2"
"1052","11997.06"
"1053","11996.37"
"1054","11989.33"
"1055","11977.6"
"1056","11960.99"
"1057","11939.31"
"1058","11915.86"
"1059","11901.61"
"1060","11908.56"
"1061","11945.84"
"1062","12001.17"
"1063","12052.51"
"1064","12078.13"
"1065","12072.2"
"1066","12050.31"
"1067","12029.54"
"1068","12023.69"
"1069","12032.53"
"1070","12052.18"
"1071","12078.63"
"1072","12106.37"
"1073","12128.62"
"1074","12138.61"
"1075","12132.58"
"1076","12113.91"
"1077","12086.98"
"1078","12056.51"
"1079","12029.74"
"1080","12015.09"
"1081","12020.74"
"1082","12045.31"
"1083","12075.06"
"1084","12095.41"
"1085","12095.84"
"1086","12081.46"
"1087","12061.09"
"1088","12043.18"
"1089","12030.87"
"1090","12023.53"
"1091","12020.48"
"1092","12021.7"
"1093","12028.4"
"1094","12041.98"
"1095","12063.32"
"1096","12090.32"
"1097","12119.83"
"1098","12148.58"
"1099","12170.68"
"1100","12177.66"
"1101","12160.93"
"1102","12118.13"
"1103","12063.38"
"1104","12013.58"
"1105","11983.57"
"1106","11971.94"
"1107","11969.38"
"1108","11966.74"
"1109","11962.03"
"1110","11962.33"
"1111","11975.3"
"1112","12004.78"
"1113","12041.63"
"1114","12074"
"1115","12090.66"
"1116","12087.12"
"1117","12062.85"
"1118","12017.59"
"1119","11961.33"
"1120","11919.26"
"1121","11917.78"
"1122","11971.68"
"1123","12049.8"
"1124","12109.65"
"1125","12112.72"
"1126","12068.25"
"1127","12016.58"
"1128","11998.22"
"1129","12026.08"
"1130","12069.02"
"1131","12091.94"
"1132","12069.05"
"1133","12013.19"
"1134","11947.23"
"1135","11893.05"
"1136","11859.87"
"1137","11848.52"
"1138","11859.62"
"1139","11889.97"
"1140","11930.36"
"1141","11971.04"
"1142","12003.19"
"1143","12021.74"
"1144","12022.51"
"1145","12002.41"
"1146","11969.98"
"1147","11941.05"
"1148","11931.31"
"1149","11946.02"
"1150","11975.4"
"1151","12008.48"
"1152","12036.25"
"1153","12056.32"
"1154","12067.77"
"1155","12069.94"
"1156","12064.77"
"1157","12055.57"
"1158","12045.73"
"1159","12040.42"
"1160","12046.96"
"1161","12072.81"
"1162","12118.86"
"1163","12167.96"
"1164","12199.92"
"1165","12198.22"
"1166","12171.58"
"1167","12139.15"
"1168","12119.46"
"1169","12116.63"
"1170","12121.53"
"1171","12124.56"
"1172","12120.87"
"1173","12115.13"
"1174","12113.2"
"1175","12119.32"
"1176","12130.34"
"1177","12140.95"
"1178","12146.4"
"1179","12148.51"
"1180","12153.43"
"1181","12167.22"
"1182","12189"
"1183","12208.42"
"1184","12214.4"
"1185","12201.55"
"1186","12181.28"
"1187","12168.06"
"1188","12174.28"
"1189","12197.88"
"1190","12230.77"
"1191","12264.95"
"1192","12294.75"
"1193","12316.51"
"1194","12326.68"
"1195","12326.57"
"1196","12326.04"
"1197","12335.83"
"1198","12361.52"
"1199","12389.19"
"1200","12400.33"
"1201","12379.87"
"1202","12341.73"
"1203","12314.41"
"1204","12325.42"
"1205","12376.74"
"1206","12444.92"
"1207","12505.45"
"1208","12540.88"
"1209","12547.68"
"1210","12523.9"
"1211","12472.13"
"1212","12413.27"
"1213","12372.84"
"1214","12372.73"
"1215","12402.63"
"1216","12435.59"
"1217","12445.57"
"1218","12430.72"
"1219","12413.12"
"1220","12415.71"
"1221","12447.43"
"1222","12490.95"
"1223","12526.03"
"1224","12538.25"
"1225","12534.58"
"1226","12526.95"
"1227","12525.94"
"1228","12531.9"
"1229","12540.54"
"1230","12547.8"
"1231","12554.58"
"1232","12565.94"
"1233","12586.98"
"1234","12617.3"
"1235","12648.05"
"1236","12669.65"
"1237","12677.27"
"1238","12679.8"
"1239","12688.54"
"1240","12711.82"
"1241","12741.46"
"1242","12763.66"
"1243","12765.98"
"1244","12751.81"
"1245","12734.39"
"1246","12726.88"
"1247","12734.63"
"1248","12754.48"
"1249","12782.8"
"1250","12814.57"
"1251","12842.09"
"1252","12857.4"
"1253","12856.79"
"1254","12851.42"
"1255","12855.69"
"1256","12880.33"
"1257","12912.62"
"1258","12930.62"
"1259","12914.64"
"1260","12873.78"
"1261","12836.75"
"1262","12831.73"
"1263","12859.99"
"1264","12892.19"
"1265","12897.46"
"1266","12866.06"
"1267","12828.26"
"1268","12818.85"
"1269","12858.31"
"1270","12920.45"
"1271","12969.58"
"1272","12977.29"
"1273","12956.82"
"1274","12936.1"
"1275","12940.33"
"1276","12966.12"
"1277","12993.22"
"1278","13001.91"
"1279","12987.59"
"1280","12959.93"
"1281","12929.16"
"1282","12902.88"
"1283","12884.89"
"1284","12878.62"
"1285","12885.48"
"1286","12901.89"
"1287","12923.6"
"1288","12945.57"
"1289","12959.83"
"1290","12957.69"
"1291","12933.04"
"1292","12896.52"
"1293","12865.5"
"1294","12856.18"
"1295","12871.34"
"1296","12905.35"
"1297","12952.34"
"1298","13003.53"
"1299","13047.45"
"1300","13072.64"
"1301","13075.24"
"1302","13062.2"
"1303","13041.3"
"1304","13019.77"
"1305","13003.56"
"1306","12998.47"
"1307","13008.84"
"1308","13034.11"
"1309","13072.71"
"1310","13120.85"
"1311","13163.15"
"1312","13180.56"
"1313","13158.02"
"1314","13112.35"
"1315","13075.71"
"1316","13077.57"
"1317","13111.16"
"1318","13144.36"
"1319","13145.86"
"1320","13114.17"
"1321","13077.47"
"1322","13064.85"
"1323","13086.1"
"1324","13123.86"
"1325","13158.77"
"1326","13178.07"
"1327","13182.18"
"1328","13173.1"
"1329","13155.09"
"1330","13138.91"
"1331","13136.47"
"1332","13156.19"
"1333","13192.23"
"1334","13235.1"
"1335","13275.71"
"1336","13307.33"
"1337","13324.07"
"1338","13321.21"
"1339","13303.75"
"1340","13281.57"
"1341","13263.93"
"1342","13251.69"
"1343","13239.96"
"1344","13224.12"
"1345","13206.71"
"1346","13196.73"
"1347","13203"
"1348","13221.09"
"1349","13230.72"
"1350","13210.97"
"1351","13158.48"
"1352","13097.35"
"1353","13054.03"
"1354","13042.39"
"1355","13050.58"
"1356","13063.63"
"1357","13069.34"
"1358","13063.04"
"1359","13041.33"
"1360","13003.79"
"1361","12960.65"
"1362","12924.43"
"1363","12905.14"
"1364","12900.95"
"1365","12906.64"
"1366","12917.28"
"1367","12929.66"
"1368","12941.21"
"1369","12949.03"
"1370","12947.64"
"1371","12930.33"
"1372","12892.02"
"1373","12844.14"
"1374","12807.7"
"1375","12802.01"
"1376","12821.59"
"1377","12843.23"
"1378","12844.57"
"1379","12825.33"
"1380","12804.3"
"1381","12800.21"
"1382","12814.24"
"1383","12829.32"
"1384","12828.04"
"1385","12810.85"
"1386","12800.16"
"1387","12819.3"
"1388","12865.14"
"1389","12895.95"
"1390","12867.47"
"1391","12775.78"
"1392","12686.28"
"1393","12670.82"
"1394","12754.86"
"1395","12870.84"
"1396","12940.23"
"1397","12922.61"
"1398","12866.25"
"1399","12832.02"
"1400","12854.44"
"1401","12897.13"
"1402","12911.98"
"1403","12870.9"
"1404","12807.72"
"1405","12768.24"
"1406","12782.12"
"1407","12822.55"
"1408","12850.28"
"1409","12838.31"
"1410","12808.49"
"1411","12794.79"
"1412","12821.96"
"1413","12873.59"
"1414","12921.82"
"1415","12944.19"
"1416","12944.97"
"1417","12936.66"
"1418","12928.96"
"1419","12916.34"
"1420","12888.12"
"1421","12837.91"
"1422","12784.59"
"1423","12756.35"
"1424","12775.25"
"1425","12824.18"
"1426","12870.53"
"1427","12885.85"
"1428","12870.46"
"1429","12836.75"
"1430","12797.57"
"1431","12768.9"
"1432","12768.08"
"1433","12808.18"
"1434","12869.28"
"1435","12916.26"
"1436","12919.1"
"1437","12889.25"
"1438","12858.02"
"1439","12853.66"
"1440","12878.33"
"1441","12921.41"
"1442","12972.08"
"1443","13018.86"
"1444","13049.9"
"1445","13055.91"
"1446","13049.41"
"1447","13053.83"
"1448","13088.42"
"1449","13135.86"
"1450","13160.52"
"1451","13131.78"
"1452","13062.41"
"1453","12986.76"
"1454","12935.8"
"1455","12911.27"
"1456","12900.61"
"1457","12892.12"
"1458","12881.54"
"1459","12868.2"
"1460","12851.67"
"1461","12833.44"
"1462","12815.85"
"1463","12800.36"
"1464","12781.96"
"1465","12752.78"
"1466","12707.04"
"1467","12653.28"
"1468","12605.96"
"1469","12576.13"
"1470","12552.56"
"1471","12515.33"
"1472","12449.72"
"1473","12371.79"
"1474","12308.84"
"1475","12282.38"
"1476","12282.65"
"1477","12289.39"
"1478","12284.32"
"1479","12258.98"
"1480","12207.96"
"1481","12131.6"
"1482","12055.91"
"1483","12013.97"
"1484","12026.69"
"1485","12066.64"
"1486","12094.47"
"1487","12082.25"
"1488","12042.01"
"1489","11994.57"
"1490","11956.14"
"1491","11928.72"
"1492","11911.63"
"1493","11902.51"
"1494","11894.51"
"1495","11880.06"
"1496","11856.63"
"1497","11833.38"
"1498","11821.08"
"1499","11822.88"
"1500","11826.5"
"1501","11817.94"
"1502","11792.55"
"1503","11761.86"
"1504","11738.87"
"1505","11730.52"
"1506","11734.8"
"1507","11748.87"
"1508","11766.78"
"1509","11778.72"
"1510","11774.98"
"1511","11755.98"
"1512","11732.83"
"1513","11716.53"
"1514","11706.91"
"1515","11693.87"
"1516","11668.13"
"1517","11636.04"
"1518","11615.44"
"1519","11622.19"
"1520","11648.1"
"1521","11670.46"
"1522","11669.43"
"1523","11650.11"
"1524","11629.8"
"1525","11621.81"
"1526","11613.59"
"1527","11582.48"
"1528","11514.88"
"1529","11441.57"
"1530","11406.91"
"1531","11439.21"
"1532","11506"
"1533","11560.4"
"1534","11573.05"
"1535","11565.6"
"1536","11568.82"
"1537","11598.58"
"1538","11637.42"
"1539","11663.51"
"1540","11663.21"
"1541","11637.09"
"1542","11587.26"
"1543","11523.48"
"1544","11465.52"
"1545","11433.2"
"1546","11430.57"
"1547","11445.68"
"1548","11465.78"
"1549","11477.62"
"1550","11467.47"
"1551","11424.68"
"1552","11369.39"
"1553","11339.68"
"1554","11366.24"
"1555","11425.99"
"1556","11472.78"
"1557","11470.18"
"1558","11430.46"
"1559","11380.99"
"1560","11343.8"
"1561","11321.99"
"1562","11314.53"
"1563","11318.32"
"1564","11325.14"
"1565","11326.03"
"1566","11316.72"
"1567","11301.17"
"1568","11284.13"
"1569","11268.06"
"1570","11252.57"
"1571","11237.04"
"1572","11220.48"
"1573","11201.58"
"1574","11179.42"
"1575","11158.23"
"1576","11145.49"
"1577","11146.6"
"1578","11151.31"
"1579","11142.35"
"1580","11109.56"
"1581","11077.02"
"1582","11079.12"
"1583","11133.42"
"1584","11204.22"
"1585","11245.36"
"1586","11234.6"
"1587","11199.99"
"1588","11175.62"
"1589","11177.95"
"1590","11198.38"
"1591","11226.22"
"1592","11247.55"
"1593","11245.31"
"1594","11205.43"
"1595","11150.33"
"1596","11126.08"
"1597","11169.37"
"1598","11248.75"
"1599","11303.86"
"1600","11291.8"
"1601","11245.23"
"1602","11217.03"
"1603","11236.04"
"1604","11266.67"
"1605","11263.07"
"1606","11213.17"
"1607","11162.31"
"1608","11159.85"
"1609","11211.67"
"1610","11275.94"
"1611","11311.16"
"1612","11312.83"
"1613","11302.51"
"1614","11299.97"
"1615","11307.77"
"1616","11320.85"
"1617","11334.59"
"1618","11346.45"
"1619","11354.42"
"1620","11356.29"
"1621","11349.35"
"1622","11330.88"
"1623","11302.44"
"1624","11272.2"
"1625","11249.05"
"1626","11244.86"
"1627","11274.36"
"1628","11348.85"
"1629","11443.52"
"1630","11512.51"
"1631","11520.75"
"1632","11494.29"
"1633","11480.19"
"1634","11508.44"
"1635","11555.91"
"1636","11589.33"
"1637","11595.22"
"1638","11595.58"
"1639","11615.33"
"1640","11658.09"
"1641","11704.79"
"1642","11736.69"
"1643","11751.21"
"1644","11755.92"
"1645","11758.14"
"1646","11762.72"
"1647","11773.63"
"1648","11792.59"
"1649","11814.35"
"1650","11832.33"
"1651","11840.38"
"1652","11833.14"
"1653","11805.76"
"1654","11763.63"
"1655","11722.27"
"1656","11696.22"
"1657","11686.04"
"1658","11684.46"
"1659","11682.65"
"1660","11664.66"
"1661","11612.37"
"1662","11522.12"
"1663","11426.82"
"1664","11364.68"
"1665","11351.91"
"1666","11374.27"
"1667","11415.13"
"1668","11455.47"
"1669","11474.45"
"1670","11455.38"
"1671","11409.94"
"1672","11361.47"
"1673","11326.44"
"1674","11298.15"
"1675","11265.11"
"1676","11221.09"
"1677","11168.97"
"1678","11112.58"
"1679","11057.49"
"1680","11010.88"
"1681","10979.23"
"1682","10962.73"
"1683","10958.56"
"1684","10961.62"
"1685","10958.28"
"1686","10932.92"
"1687","10882.23"
"1688","10826.41"
"1689","10787.19"
"1690","10760.58"
"1691","10717.07"
"1692","10632.61"
"1693","10539.36"
"1694","10498.16"
"1695","10543.55"
"1696","10605.73"
"1697","10589.84"
"1698","10465.39"
"1699","10322.84"
"1700","10262.02"
"1701","10296.26"
"1702","10356.95"
"1703","10380"
"1704","10363.18"
"1705","10333.39"
"1706","10312.33"
"1707","10302.71"
"1708","10303.04"
"1709","10308.61"
"1710","10309.36"
"1711","10295.44"
"1712","10269.01"
"1713","10241.95"
"1714","10223.58"
"1715","10205.72"
"1716","10173.43"
"1717","10119.96"
"1718","10061.03"
"1719","10016.02"
"1720","9998.08"
"1721","10012.33"
"1722","10061.04"
"1723","10121.2"
"1724","10154.29"
"1725","10134.36"
"1726","10092.07"
"1727","10073.48"
"1728","10098.46"
"1729","10136.5"
"1730","10152.86"
"1731","10141.58"
"1732","10122.58"
"1733","10113.27"
"1734","10108.2"
"1735","10092.63"
"1736","10060.1"
"1737","10027.11"
"1738","10013.57"
"1739","10020.57"
"1740","10026.22"
"1741","10010.18"
"1742","9981.054"
"1743","9963.546"
"1744","9973.265"
"1745","9991.008"
"1746","9989.699"
"1747","9959.643"
"1748","9918.572"
"1749","9886.119"
"1750","9874.774"
"1751","9892.008"
"1752","9938.415"
"1753","9982.503"
"1754","9983.464"
"1755","9927.638"
"1756","9853.331"
"1757","9803.056"
"1758","9790.009"
"1759","9802.996"
"1760","9829.915"
"1761","9857.907"
"1762","9873.843"
"1763","9870.457"
"1764","9853.307"
"1765","9829.667"
"1766","9807.017"
"1767","9793.036"
"1768","9793.51"
"1769","9802.343"
"1770","9808.906"
"1771","9805.861"
"1772","9793.636"
"1773","9773.993"
"1774","9753.717"
"1775","9744.413"
"1776","9754.872"
"1777","9774.566"
"1778","9785.413"
"1779","9778.979"
"1780","9769.464"
"1781","9773.625"
"1782","9793.557"
"1783","9817.495"
"1784","9833.555"
"1785","9832.675"
"1786","9806.856"
"1787","9756.478"
"1788","9700.256"
"1789","9658.678"
"1790","9639.214"
"1791","9637.989"
"1792","9650.038"
"1793","9666.634"
"1794","9677.796"
"1795","9677.362"
"1796","9666.542"
"1797","9648.197"
"1798","9636.853"
"1799","9655.889"
"1800","9716.353"
"1801","9773.039"
"1802","9765.684"
"1803","9684.181"
"1804","9598.688"
"1805","9579.725"
"1806","9621.167"
"1807","9669.572"
"1808","9683.078"
"1809","9662.75"
"1810","9619.202"
"1811","9571.538"
"1812","9549.479"
"1813","9576.663"
"1814","9623.559"
"1815","9635.676"
"1816","9589.747"
"1817","9542.049"
"1818","9557.995"
"1819","9634.127"
"1820","9703.214"
"1821","9708.934"
"1822","9666.412"
"1823","9614.246"
"1824","9576.354"
"1825","9550.716"
"1826","9532.817"
"1827","9519.987"
"1828","9510.729"
"1829","9503.59"
"1830","9497.203"
"1831","9490.086"
"1832","9476.258"
"1833","9444.484"
"1834","9387.759"
"1835","9329.807"
"1836","9307.006"
"1837","9334.708"
"1838","9383.81"
"1839","9420.996"
"1840","9434.234"
"1841","9427.224"
"1842","9404.208"
"1843","9370.053"
"1844","9329.948"
"1845","9295.175"
"1846","9284.684"
"1847","9313.469"
"1848","9364.792"
"1849","9408.243"
"1850","9426.596"
"1851","9430.824"
"1852","9434.585"
"1853","9438.616"
"1854","9434.326"
"1855","9417.212"
"1856","9398.325"
"1857","9391.79"
"1858","9397.659"
"1859","9399.757"
"1860","9384.769"
"1861","9362.597"
"1862","9351.799"
"1863","9357.405"
"1864","9359.965"
"1865","9340.482"
"1866","9312.082"
"1867","9307.055"
"1868","9337.773"
"1869","9359.655"
"1870","9321.519"
"1871","9239.071"
"1872","9188.011"
"1873","9223.308"
"1874","9298.781"
"1875","9341.532"
"1876","9326.323"
"1877","9290.285"
"1878","9269.834"
"1879","9267.505"
"1880","9271.87"
"1881","9274.397"
"1882","9272.095"
"1883","9263.034"
"1884","9250.162"
"1885","9239.302"
"1886","9235.836"
"1887","9243.813"
"1888","9266.168"
"1889","9291.131"
"1890","9294.942"
"1891","9263.501"
"1892","9220.248"
"1893","9196.723"
"1894","9204.617"
"1895","9234.061"
"1896","9272.725"
"1897","9301.428"
"1898","9299.052"
"1899","9259.604"
"1900","9198.501"
"1901","9133.458"
"1902","9086.497"
"1903","9081.319"
"1904","9123.552"
"1905","9186.096"
"1906","9239.614"
"1907","9266.611"
"1908","9255.958"
"1909","9206.81"
"1910","9141.461"
"1911","9084.721"
"1912","9052.258"
"1913","9053.697"
"1914","9088.661"
"1915","9129.215"
"1916","9144.324"
"1917","9130.31"
"1918","9105.12"
"1919","9085.56"
"1920","9082.443"
"1921","9104.109"
"1922","9134.013"
"1923","9132.671"
"1924","9077.059"
"1925","9012.353"
"1926","8998.274"
"1927","9036.399"
"1928","9067.499"
"1929","9047.904"
"1930","9016.972"
"1931","9035.215"
"1932","9095.626"
"1933","9113.004"
"1934","9025.57"
"1935","8910.69"
"1936","8886.251"
"1937","8967.391"
"1938","9040.422"
"1939","9010.666"
"1940","8930.794"
"1941","8901.031"
"1942","8947.519"
"1943","8998.263"
"1944","8990.157"
"1945","8949.245"
"1946","8931.817"
"1947","8949.323"
"1948","8951.997"
"1949","8899.712"
"1950","8833.737"
"1951","8823.157"
"1952","8876.836"
"1953","8921.002"
"1954","8893.014"
"1955","8829.162"
"1956","8799.709"
"1957","8824.866"
"1958","8857.388"
"1959","8854.008"
"1960","8820.331"
"1961","8778.599"
"1962","8746.461"
"1963","8735.6"
"1964","8752.59"
"1965","8779.479"
"1966","8790.879"
"1967","8778.758"
"1968","8756.031"
"1969","8733.284"
"1970","8704.026"
"1971","8657.576"
"1972","8607.165"
"1973","8592.373"
"1974","8636.158"
"1975","8685.613"
"1976","8671.079"
"1977","8597.654"
"1978","8544.023"
"1979","8567.675"
"1980","8636.929"
"1981","8700.746"
"1982","8726.418"
"1983","8696.924"
"1984","8613.94"
"1985","8534.977"
"1986","8523.146"
"1987","8568.576"
"1988","8608.146"
"1989","8603.169"
"1990","8580.323"
"1991","8572.817"
"1992","8573.576"
"1993","8551.35"
"1994","8502.493"
"1995","8480.861"
"1996","8535.663"
"1997","8619.393"
"1998","8638.183"
"1999","8560.059"
"2000","8455.012"
"2001","8391.935"
"2002","8373.617"
"2003","8377.646"
"2004","8378.024"
"2005","8344.271"
"2006","8262.527"
"2007","8196.603"
"2008","8228.37"
"2009","8343.428"
"2010","8432.842"
"2011","8419.33"
"2012","8345.163"
"2013","8275.072"
"2014","8237.948"
"2015","8236.326"
"2016","8260.33"
"2017","8271.947"
"2018","8235.424"
"2019","8174.193"
"2020","8142.916"
"2021","8159.652"
"2022","8179.661"
"2023","8163.129"
"2024","8137.589"
"2025","8154.408"
"2026","8219.011"
"2027","8281.747"
"2028","8301.23"
"2029","8282.593"
"2030","8242.449"
"2031","8194.833"
"2032","8151.66"
"2033","8121.45"
"2034","8103.979"
"2035","8098.025"
"2036","8106.267"
"2037","8133.367"
"2038","8168.709"
"2039","8175.73"
"2040","8128.029"
"2041","8072.971"
"2042","8081.473"
"2043","8141.944"
"2044","8151.372"
"2045","8046.179"
"2046","7917.704"
"2047","7882.519"
"2048","7939.972"
"2049","8006.583"
"2050","8025.94"
"2051","8002.707"
"2052","7951.208"
"2053","7899.234"
"2054","7879.878"
"2055","7901.745"
"2056","7941.876"
"2057","7976.343"
"2058","7986.03"
"2059","7954.981"
"2060","7898.011"
"2061","7853.842"
"2062","7843.807"
"2063","7848.259"
"2064","7843.225"
"2065","7815.122"
"2066","7755.651"
"2067","7680.494"
"2068","7636.508"
"2069","7657.342"
"2070","7715.691"
"2071","7770.657"
"2072","7803.376"
"2073","7811.404"
"2074","7796.217"
"2075","7766.686"
"2076","7731.939"
"2077","7696.286"
"2078","7662.254"
"2079","7637.001"
"2080","7632.998"
"2081","7654.384"
"2082","7676.604"
"2083","7672.349"
"2084","7650.63"
"2085","7642.741"
"2086","7653.319"
"2087","7641.199"
"2088","7575.857"
"2089","7503.625"
"2090","7491.569"
"2091","7538.098"
"2092","7580.694"
"2093","7578.252"
"2094","7546.822"
"2095","7509.514"
"2096","7478.668"
"2097","7461.631"
"2098","7458.928"
"2099","7462.915"
"2100","7466.739"
"2101","7467.873"
"2102","7464.708"
"2103","7455.936"
"2104","7440.437"
"2105","7417.476"
"2106","7386.928"
"2107","7350.305"
"2108","7316.042"
"2109","7293.536"
"2110","7278.462"
"2111","7256.289"
"2112","7223.819"
"2113","7200.217"
"2114","7200.34"
"2115","7201.369"
"2116","7169.98"
"2117","7118.028"
"2118","7097.708"
"2119","7134.875"
"2120","7191.633"
"2121","7227.115"
"2122","7239.591"
"2123","7242.54"
"2124","7239.788"
"2125","7225.303"
"2126","7198.98"
"2127","7177.217"
"2128","7174.461"
"2129","7171.266"
"2130","7134.41"
"2131","7067.894"
"2132","7016.98"
"2133","7009.28"
"2134","7016.818"
"2135","7007.175"
"2136","6989.168"
"2137","6989.866"
"2138","7002.526"
"2139","6981.448"
"2140","6905.828"
"2141","6832.446"
"2142","6822.843"
"2143","6865.917"
"2144","6916.788"
"2145","6948.473"
"2146","6954.661"
"2147","6934.818"
"2148","6901.473"
"2149","6868.615"
"2150","6843.866"
"2151","6831.653"
"2152","6827.511"
"2153","6817.417"
"2154","6789.366"
"2155","6737.929"
"2156","6663.18"
"2157","6595.292"
"2158","6574.85"
"2159","6594.884"
"2160","6602.107"
"2161","6578.309"
"2162","6589.705"
"2163","6687.653"
"2164","6768.897"
"2165","6686.334"
"2166","6499.797"
"2167","6442.71"
"2168","6591.106"
"2169","6707.25"
"2170","6592.358"
"2171","6403.356"
"2172","6382.673"
"2173","6513.181"
"2174","6598.285"
"2175","6551.609"
"2176","6464.545"
"2177","6419.681"
"2178","6409.75"
"2179","6409.813"
"2180","6422.932"
"2181","6466.434"
"2182","6520.014"
"2183","6517.665"
"2184","6432.056"
"2185","6349.304"
"2186","6353.467"
"2187","6385.05"
"2188","6332.04"
"2189","6205.023"
"2190","6125.232"
"2191","6151.664"
"2192","6212.924"
"2193","6238.228"
"2194","6229.995"
"2195","6210.085"
"2196","6183.656"
"2197","6145.209"
"2198","6093.78"
"2199","6034.865"
"2200","5977.464"
"2201","5939.585"
"2202","5936.09"
"2203","5946.927"
"2204","5938.752"
"2205","5916.115"
"2206","5918.412"
"2207","5955.361"
"2208","5976.608"
"2209","5941.237"
"2210","5879.676"
"2211","5837.387"
"2212","5814.057"
"2213","5783.002"
"2214","5744.959"
"2215","5734.583"
"2216","5767.371"
"2217","5804.328"
"2218","5803.692"
"2219","5758.035"
"2220","5674.674"
"2221","5596.829"
"2222","5593.315"
"2223","5662.978"
"2224","5698.496"
"2225","5628.652"
"2226","5524.433"
"2227","5474.142"
"2228","5489.575"
"2229","5548.356"
"2230","5601.878"
"2231","5579.711"
"2232","5479.343"
"2233","5416.283"
"2234","5471.344"
"2235","5558.513"
"2236","5566.411"
"2237","5480.289"
"2238","5332.491"
"2239","5184.432"
"2240","5123.827"
"2241","5175.271"
"2242","5246.306"
"2243","5254.775"
"2244","5204.663"
"2245","5122.691"
"2246","5056.283"
"2247","5059.002"
"2248","5102.585"
"2249","5082.853"
"2250","4964.444"
"2251","4840.753"
"2252","4791.47"
"2253","4798"
"2254","4821.05"
"2255","4832.153"
"2256","4808.873"
"2257","4750.398"
"2258","4674.812"
"2259","4604.059"
"2260","4565.25"
"2261","4570.199"
"2262","4580.32"
"2263","4553.196"
"2264","4487.361"
"2265","4397.646"
"2266","4298.33"
"2267","4203.564"
"2268","4139.774"
"2269","4150.26"
"2270","4233.553"
"2271","4268.191"
"2272","4154.604"
"2273","4007.2"
"2274","3989.108"
"2275","4045.574"
"2276","3995.603"
"2277","3830.36"
"2278","3731.54"
"2279","3766.013"
"2280","3751.516"
"2281","3558.632"
"2282","3371.504"
"2283","3403.571"
"2284","3529.653"
"2285","3488.015"
"2286","3285.798"
"2287","3146.633"
"2288","3157.141"
"2289","3197.857"
"2290","3167.707"
"2291","3055.438"
"2292","2877.579"
"2293","2716.208"
"2294","2660.091"
"2295","2667.314"
"2296","2627.229"
"2297","2521.153"
"2298","2420.171"
"2299","2357.405"
"2300","2295.521"
