,"Scan 00944"
"400","15879.03"
"401","15863.47"
"402","15854.51"
"403","15854.88"
"404","15867.3"
"405","15893.49"
"406","15926.79"
"407","15956.33"
"408","15971.28"
"409","15961.94"
"410","15932.51"
"411","15896.77"
"412","15868.63"
"413","15861.3"
"414","15876.1"
"415","15903.26"
"416","15932.64"
"417","15954.39"
"418","15965.62"
"419","15972.04"
"420","15979.83"
"421","15995.04"
"422","16017.2"
"423","16035.36"
"424","16037.7"
"425","16012.53"
"426","15957.7"
"427","15890.93"
"428","15832.3"
"429","15801.73"
"430","15810.49"
"431","15846.71"
"432","15894.76"
"433","15939.11"
"434","15967.9"
"435","15981.67"
"436","15983.61"
"437","15976.92"
"438","15964.41"
"439","15947.35"
"440","15926.62"
"441","15903.07"
"442","15877.87"
"443","15853.99"
"444","15834.94"
"445","15824.25"
"446","15824.29"
"447","15829.81"
"448","15832.46"
"449","15823.93"
"450","15797.47"
"451","15758.69"
"452","15719.31"
"453","15690.98"
"454","15683.75"
"455","15692.07"
"456","15701.43"
"457","15697.34"
"458","15666.89"
"459","15615.54"
"460","15560.9"
"461","15520.64"
"462","15510.95"
"463","15527.63"
"464","15551.31"
"465","15562.38"
"466","15542.55"
"467","15494.34"
"468","15437.57"
"469","15392.46"
"470","15378.18"
"471","15395.17"
"472","15426.77"
"473","15455.76"
"474","15465.7"
"475","15454.99"
"476","15436.77"
"477","15424.75"
"478","15432.01"
"479","15457.73"
"480","15486.41"
"481","15501.92"
"482","15488.68"
"483","15444.87"
"484","15383.98"
"485","15320.21"
"486","15267.49"
"487","15232.8"
"488","15215.08"
"489","15212.82"
"490","15224.42"
"491","15244.09"
"492","15261.08"
"493","15264.43"
"494","15243.47"
"495","15196.58"
"496","15132.97"
"497","15062.47"
"498","14994.71"
"499","14934.82"
"500","14882.54"
"501","14837.27"
"502","14798.41"
"503","14764.15"
"504","14731.33"
"505","14696.71"
"506","14657.07"
"507","14609.5"
"508","14551.39"
"509","14480.16"
"510","14393.57"
"511","14297.74"
"512","14208.11"
"513","14140.52"
"514","14110.02"
"515","14114.21"
"516","14132.41"
"517","14143.22"
"518","14126.24"
"519","14081.51"
"520","14029.04"
"521","13989.55"
"522","13982.55"
"523","14006.02"
"524","14038.5"
"525","14057.98"
"526","14043.76"
"527","13995.52"
"528","13929.58"
"529","13862.69"
"530","13810.58"
"531","13776.2"
"532","13753.1"
"533","13734.6"
"534","13714.69"
"535","13694.25"
"536","13678.67"
"537","13673.39"
"538","13682.74"
"539","13700.42"
"540","13714.18"
"541","13711.71"
"542","13682.96"
"543","13635.43"
"544","13585.12"
"545","13548.01"
"546","13537.41"
"547","13549.21"
"548","13572.22"
"549","13595.28"
"550","13608.89"
"551","13612.29"
"552","13607.63"
"553","13597.11"
"554","13582.58"
"555","13564.56"
"556","13543.21"
"557","13518.69"
"558","13492.25"
"559","13469"
"560","13454.87"
"561","13455.76"
"562","13472.98"
"563","13495.36"
"564","13509.62"
"565","13502.61"
"566","13469.86"
"567","13425.49"
"568","13386.01"
"569","13367.71"
"570","13376.8"
"571","13402.71"
"572","13433.28"
"573","13456.53"
"574","13464.7"
"575","13455.53"
"576","13427.13"
"577","13377.95"
"578","13314.58"
"579","13251.64"
"580","13204.08"
"581","13185.8"
"582","13196.46"
"583","13224.91"
"584","13259.77"
"585","13290.64"
"586","13315.95"
"587","13339.17"
"588","13363.81"
"589","13392.17"
"590","13418.54"
"591","13433.96"
"592","13429.46"
"593","13399.54"
"594","13354.53"
"595","13309.37"
"596","13278.92"
"597","13272.82"
"598","13283.98"
"599","13302.03"
"600","13316.63"
"601","13320.54"
"602","13313.25"
"603","13295.16"
"604","13266.74"
"605","13230.59"
"606","13192.71"
"607","13159.35"
"608","13136.62"
"609","13127.96"
"610","13133.92"
"611","13154.94"
"612","13190.96"
"613","13235.22"
"614","13276.05"
"615","13301.74"
"616","13302.37"
"617","13283.01"
"618","13256.05"
"619","13233.88"
"620","13225.84"
"621","13225.79"
"622","13222.65"
"623","13205.36"
"624","13167.84"
"625","13119.7"
"626","13073.67"
"627","13042.4"
"628","13032.31"
"629","13037.33"
"630","13049.95"
"631","13062.75"
"632","13072.6"
"633","13081.79"
"634","13093"
"635","13108.68"
"636","13127.76"
"637","13146.24"
"638","13160.07"
"639","13165.7"
"640","13163.9"
"641","13157.68"
"642","13150.04"
"643","13143.37"
"644","13137.03"
"645","13129.4"
"646","13118.89"
"647","13105.17"
"648","13091.5"
"649","13081.78"
"650","13079.83"
"651","13085.39"
"652","13091.29"
"653","13089.68"
"654","13073.21"
"655","13044.8"
"656","13017.86"
"657","13006.19"
"658","13022.11"
"659","13062.24"
"660","13113.79"
"661","13163.88"
"662","13200.81"
"663","13219.32"
"664","13216.35"
"665","13188.85"
"666","13138.56"
"667","13081.33"
"668","13035.58"
"669","13019.53"
"670","13038.8"
"671","13078.41"
"672","13121.51"
"673","13151.75"
"674","13162.43"
"675","13155.8"
"676","13134.46"
"677","13101.53"
"678","13064.86"
"679","13034.74"
"680","13021.46"
"681","13031.92"
"682","13058.29"
"683","13088.75"
"684","13111.54"
"685","13119.49"
"686","13115.81"
"687","13105.04"
"688","13091.76"
"689","13080.9"
"690","13077.86"
"691","13088.02"
"692","13115.83"
"693","13154.64"
"694","13190.75"
"695","13210.35"
"696","13203.07"
"697","13176.35"
"698","13143.48"
"699","13117.68"
"700","13107.34"
"701","13108.63"
"702","13115.82"
"703","13123.29"
"704","13128.67"
"705","13133.72"
"706","13140.5"
"707","13150.8"
"708","13163.4"
"709","13175.12"
"710","13182.72"
"711","13183.63"
"712","13178.53"
"713","13169.16"
"714","13157.23"
"715","13144.67"
"716","13133.93"
"717","13127.5"
"718","13127.84"
"719","13135.96"
"720","13151.21"
"721","13172.86"
"722","13199.8"
"723","13227.27"
"724","13248.44"
"725","13256.48"
"726","13247.34"
"727","13228.38"
"728","13209.88"
"729","13202.02"
"730","13208.82"
"731","13222.84"
"732","13235.49"
"733","13238.65"
"734","13233.05"
"735","13227.05"
"736","13229.27"
"737","13246.38"
"738","13272.41"
"739","13296.4"
"740","13307.38"
"741","13299.68"
"742","13282.01"
"743","13265.48"
"744","13260.9"
"745","13270.21"
"746","13284.65"
"747","13294.8"
"748","13292.55"
"749","13281.93"
"750","13273.59"
"751","13278.24"
"752","13303.04"
"753","13342.15"
"754","13386.75"
"755","13428.1"
"756","13460.44"
"757","13482.58"
"758","13493.73"
"759","13493.43"
"760","13485.5"
"761","13476.66"
"762","13473.67"
"763","13481.41"
"764","13496.39"
"765","13512.82"
"766","13524.91"
"767","13529.63"
"768","13528.82"
"769","13524.81"
"770","13519.99"
"771","13517.48"
"772","13520.97"
"773","13534.15"
"774","13559.32"
"775","13591.89"
"776","13625.16"
"777","13652.5"
"778","13671.19"
"779","13685.93"
"780","13702.22"
"781","13725.22"
"782","13755.33"
"783","13789.22"
"784","13823.52"
"785","13854.59"
"786","13877.81"
"787","13888.23"
"788","13880.96"
"789","13856.8"
"790","13826.69"
"791","13802.63"
"792","13795.95"
"793","13808.74"
"794","13836.55"
"795","13874.73"
"796","13917.35"
"797","13952.77"
"798","13967.84"
"799","13949.65"
"800","13900.23"
"801","13844.97"
"802","13811.27"
"803","13823.48"
"804","13873.11"
"805","13931.63"
"806","13970.26"
"807","13970.19"
"808","13947.09"
"809","13924.07"
"810","13923.72"
"811","13951.21"
"812","13989.79"
"813","14021.39"
"814","14030.39"
"815","14020.71"
"816","14005.42"
"817","13997.62"
"818","14004.35"
"819","14017.34"
"820","14025.91"
"821","14020.01"
"822","14001.94"
"823","13985.34"
"824","13984.29"
"825","14008.78"
"826","14047.6"
"827","14082.61"
"828","14095.83"
"829","14080.6"
"830","14049.76"
"831","14018.05"
"832","13999.27"
"833","13996.6"
"834","14006.67"
"835","14026.03"
"836","14051.08"
"837","14077.79"
"838","14102.06"
"839","14119.83"
"840","14128.6"
"841","14127.54"
"842","14115.91"
"843","14093.75"
"844","14065.88"
"845","14038.92"
"846","14019.45"
"847","14013.73"
"848","14027.42"
"849","14066.06"
"850","14133.74"
"851","14217.36"
"852","14292.87"
"853","14336.06"
"854","14332.91"
"855","14301.61"
"856","14266.66"
"857","14251.74"
"858","14260.75"
"859","14277.35"
"860","14284.3"
"861","14268.92"
"862","14242.65"
"863","14224.9"
"864","14234.88"
"865","14278.3"
"866","14339.64"
"867","14401.45"
"868","14447.52"
"869","14472.14"
"870","14475.04"
"871","14456.02"
"872","14420.69"
"873","14388.62"
"874","14381.43"
"875","14418.86"
"876","14492.68"
"877","14573.32"
"878","14630.69"
"879","14644.63"
"880","14630.68"
"881","14612.42"
"882","14612.66"
"883","14634.92"
"884","14661.91"
"885","14675.32"
"886","14661.45"
"887","14630.74"
"888","14601.49"
"889","14591.81"
"890","14610.33"
"891","14651.73"
"892","14709.59"
"893","14776.76"
"894","14840.7"
"895","14886.43"
"896","14899.09"
"897","14876.46"
"898","14840.99"
"899","14817.95"
"900","14829.79"
"901","14870"
"902","14915.07"
"903","14941.3"
"904","14935.35"
"905","14909.9"
"906","14881.69"
"907","14866.46"
"908","14866.6"
"909","14874.59"
"910","14882.71"
"911","14886.21"
"912","14889.79"
"913","14900.01"
"914","14923.05"
"915","14957.46"
"916","14995.1"
"917","15027.56"
"918","15047.03"
"919","15047.99"
"920","15025.42"
"921","14975.03"
"922","14909.44"
"923","14858.8"
"924","14854.11"
"925","14915.52"
"926","15014.32"
"927","15108.11"
"928","15155.44"
"929","15145.39"
"930","15102.8"
"931","15054.58"
"932","15023.21"
"933","15008.87"
"934","15004.68"
"935","15003.82"
"936","15002.42"
"937","15000.4"
"938","14997.91"
"939","14995.23"
"940","14993.03"
"941","14992.16"
"942","14993.45"
"943","14995.83"
"944","14995.72"
"945","14989.35"
"946","14974.2"
"947","14954.89"
"948","14938.62"
"949","14932.43"
"950","14936.85"
"951","14943.32"
"952","14942.59"
"953","14927.84"
"954","14906.32"
"955","14890.42"
"956","14892.3"
"957","14913.65"
"958","14941.77"
"959","14962.86"
"960","14965.45"
"961","14951.26"
"962","14926.65"
"963","14898.04"
"964","14873.67"
"965","14864.19"
"966","14880.41"
"967","14928.4"
"968","14988.8"
"969","15033.77"
"970","15036.16"
"971","14993.18"
"972","14932.26"
"973","14882.69"
"974","14867.34"
"975","14877.69"
"976","14895.76"
"977","14903.87"
"978","14894.2"
"979","14869.93"
"980","14834.84"
"981","14794.2"
"982","14759.63"
"983","14744.46"
"984","14761.26"
"985","14805.09"
"986","14853.89"
"987","14884.8"
"988","14883.21"
"989","14864.04"
"990","14848.86"
"991","14858.11"
"992","14892.55"
"993","14936.45"
"994","14973.55"
"995","14993.22"
"996","15001.5"
"997","15007.47"
"998","15019.52"
"999","15036.52"
"1000","15050.79"
"1001","15054.52"
"1002","15044.04"
"1003","15025.41"
"1004","15006.11"
"1005","14993.63"
"1006","14994.07"
"1007","15004.42"
"1008","15017.87"
"1009","15027.68"
"1010","15031.03"
"1011","15030.7"
"1012","15029.93"
"1013","15031.71"
"1014","15037.71"
"1015","15049.19"
"1016","15067.23"
"1017","15088.5"
"1018","15104.4"
"1019","15106.05"
"1020","15088.85"
"1021","15066.3"
"1022","15056.7"
"1023","15077.34"
"1024","15124.92"
"1025","15177.09"
"1026","15210.77"
"1027","15211.53"
"1028","15192.29"
"1029","15171.32"
"1030","15165.85"
"1031","15179.04"
"1032","15204.24"
"1033","15234.59"
"1034","15263.33"
"1035","15284.04"
"1036","15290.3"
"1037","15277.47"
"1038","15255.97"
"1039","15243.82"
"1040","15258.92"
"1041","15304.17"
"1042","15358.61"
"1043","15399.06"
"1044","15406.95"
"1045","15389.13"
"1046","15361.22"
"1047","15338.61"
"1048","15329.28"
"1049","15333.12"
"1050","15349.61"
"1051","15377.22"
"1052","15410.96"
"1053","15445.02"
"1054","15473.58"
"1055","15490.67"
"1056","15490.17"
"1057","15465.99"
"1058","15421.21"
"1059","15378.94"
"1060","15364.94"
"1061","15400.23"
"1062","15470"
"1063","15543.12"
"1064","15588.86"
"1065","15596.97"
"1066","15584.76"
"1067","15571.49"
"1068","15572.01"
"1069","15582.49"
"1070","15594.18"
"1071","15598.74"
"1072","15594.71"
"1073","15586.17"
"1074","15577.39"
"1075","15571.17"
"1076","15566.95"
"1077","15563.72"
"1078","15560.64"
"1079","15558.2"
"1080","15557.56"
"1081","15559.85"
"1082","15565.88"
"1083","15576.06"
"1084","15590.76"
"1085","15609.45"
"1086","15628.14"
"1087","15642.01"
"1088","15646.41"
"1089","15638.89"
"1090","15618.56"
"1091","15584.6"
"1092","15541.79"
"1093","15505.66"
"1094","15492.98"
"1095","15515.41"
"1096","15555.06"
"1097","15583.37"
"1098","15572.95"
"1099","15522.56"
"1100","15456.75"
"1101","15401.2"
"1102","15373.84"
"1103","15372.02"
"1104","15389.69"
"1105","15420.2"
"1106","15452.21"
"1107","15472.08"
"1108","15466.55"
"1109","15436.18"
"1110","15398.96"
"1111","15374.01"
"1112","15373.9"
"1113","15388.88"
"1114","15404.5"
"1115","15407.48"
"1116","15396.71"
"1117","15378.21"
"1118","15358.13"
"1119","15341.95"
"1120","15334.17"
"1121","15339.25"
"1122","15358.81"
"1123","15383.36"
"1124","15400.67"
"1125","15399.74"
"1126","15384.63"
"1127","15369.19"
"1128","15367.27"
"1129","15381.19"
"1130","15394.88"
"1131","15390.63"
"1132","15356.47"
"1133","15304.5"
"1134","15253.04"
"1135","15219.43"
"1136","15208.76"
"1137","15217.94"
"1138","15243.69"
"1139","15279.05"
"1140","15311.22"
"1141","15326.87"
"1142","15317.64"
"1143","15294.85"
"1144","15274.72"
"1145","15271.97"
"1146","15284.69"
"1147","15300.54"
"1148","15307.22"
"1149","15300.06"
"1150","15285.39"
"1151","15270.37"
"1152","15262.44"
"1153","15270.02"
"1154","15301.7"
"1155","15363.24"
"1156","15434.61"
"1157","15481.99"
"1158","15472.49"
"1159","15408.32"
"1160","15333.73"
"1161","15295.46"
"1162","15320.01"
"1163","15378.13"
"1164","15431.1"
"1165","15446.05"
"1166","15429.97"
"1167","15406.44"
"1168","15398.11"
"1169","15407.99"
"1170","15420.95"
"1171","15421.27"
"1172","15403.43"
"1173","15382.5"
"1174","15376.02"
"1175","15396.11"
"1176","15429.44"
"1177","15455.29"
"1178","15454.9"
"1179","15433.27"
"1180","15410.85"
"1181","15408.03"
"1182","15428.66"
"1183","15453.96"
"1184","15463.52"
"1185","15446.43"
"1186","15420.04"
"1187","15406.89"
"1188","15425.41"
"1189","15465.82"
"1190","15506.57"
"1191","15527.06"
"1192","15524.81"
"1193","15513.07"
"1194","15505.6"
"1195","15512.07"
"1196","15535.05"
"1197","15576.36"
"1198","15633.51"
"1199","15687.86"
"1200","15716.95"
"1201","15702.09"
"1202","15656.42"
"1203","15609.1"
"1204","15588.37"
"1205","15598.1"
"1206","15617.91"
"1207","15626.42"
"1208","15613.02"
"1209","15588.18"
"1210","15564.82"
"1211","15553.53"
"1212","15555.39"
"1213","15569.09"
"1214","15592.76"
"1215","15619.4"
"1216","15639.44"
"1217","15643.69"
"1218","15633.08"
"1219","15618.57"
"1220","15611.44"
"1221","15615.2"
"1222","15618.76"
"1223","15609.45"
"1224","15580.24"
"1225","15545"
"1226","15522.44"
"1227","15528.09"
"1228","15553.55"
"1229","15579.46"
"1230","15587.71"
"1231","15582.42"
"1232","15586.63"
"1233","15623.59"
"1234","15694.21"
"1235","15764.98"
"1236","15799.45"
"1237","15777.02"
"1238","15722.38"
"1239","15668.27"
"1240","15642.66"
"1241","15647.27"
"1242","15674.79"
"1243","15717.62"
"1244","15765.26"
"1245","15805.35"
"1246","15825.85"
"1247","15824.33"
"1248","15808.9"
"1249","15788.23"
"1250","15771.71"
"1251","15770.12"
"1252","15794.43"
"1253","15847.58"
"1254","15904.88"
"1255","15935.65"
"1256","15916.14"
"1257","15867.11"
"1258","15826.87"
"1259","15830.41"
"1260","15870.27"
"1261","15910.11"
"1262","15914.05"
"1263","15877.62"
"1264","15832.08"
"1265","15810.49"
"1266","15828.25"
"1267","15867.18"
"1268","15905.32"
"1269","15925.84"
"1270","15928.62"
"1271","15916.9"
"1272","15893.78"
"1273","15861.29"
"1274","15821.11"
"1275","15775.83"
"1276","15737.48"
"1277","15723.64"
"1278","15750.74"
"1279","15809.85"
"1280","15868.1"
"1281","15892.04"
"1282","15870.75"
"1283","15826.92"
"1284","15786.04"
"1285","15764.77"
"1286","15758.61"
"1287","15759.97"
"1288","15763"
"1289","15768.79"
"1290","15780.12"
"1291","15798.61"
"1292","15818.24"
"1293","15829.96"
"1294","15826.29"
"1295","15817.44"
"1296","15824.72"
"1297","15868.36"
"1298","15941.88"
"1299","16013.44"
"1300","16050.54"
"1301","16040.34"
"1302","15997.99"
"1303","15940.88"
"1304","15886.11"
"1305","15850.35"
"1306","15850.18"
"1307","15892.32"
"1308","15950.72"
"1309","15992.58"
"1310","15992.03"
"1311","15958.99"
"1312","15914.8"
"1313","15878.84"
"1314","15854.4"
"1315","15837.07"
"1316","15822.72"
"1317","15811.39"
"1318","15806"
"1319","15809.38"
"1320","15820.28"
"1321","15833.41"
"1322","15843.38"
"1323","15847.85"
"1324","15848.82"
"1325","15848.59"
"1326","15849.48"
"1327","15853.78"
"1328","15863.79"
"1329","15878.99"
"1330","15890.88"
"1331","15889.54"
"1332","15868.48"
"1333","15835.05"
"1334","15800.2"
"1335","15773.07"
"1336","15752.31"
"1337","15732.75"
"1338","15710.84"
"1339","15696.3"
"1340","15705.58"
"1341","15752.59"
"1342","15818.91"
"1343","15864.12"
"1344","15849.59"
"1345","15779.55"
"1346","15697.06"
"1347","15645.71"
"1348","15640.2"
"1349","15660.7"
"1350","15685.53"
"1351","15703.49"
"1352","15719.7"
"1353","15740.71"
"1354","15767.01"
"1355","15786.76"
"1356","15786.59"
"1357","15757.79"
"1358","15704.12"
"1359","15631.41"
"1360","15548.79"
"1361","15477.01"
"1362","15439.34"
"1363","15452.52"
"1364","15503.09"
"1365","15568.88"
"1366","15628.95"
"1367","15669.64"
"1368","15680.02"
"1369","15651.97"
"1370","15599.47"
"1371","15546.85"
"1372","15516.45"
"1373","15509.76"
"1374","15516.15"
"1375","15525.14"
"1376","15530.59"
"1377","15529.48"
"1378","15519.06"
"1379","15500.85"
"1380","15480.04"
"1381","15461.98"
"1382","15452.42"
"1383","15457.52"
"1384","15483.14"
"1385","15522.69"
"1386","15554.25"
"1387","15555.27"
"1388","15519.9"
"1389","15466.61"
"1390","15415.79"
"1391","15382.86"
"1392","15374.7"
"1393","15397.32"
"1394","15446.49"
"1395","15497.59"
"1396","15523.55"
"1397","15509.79"
"1398","15470.75"
"1399","15424.97"
"1400","15387.03"
"1401","15360.8"
"1402","15348.42"
"1403","15349.46"
"1404","15355.72"
"1405","15357.5"
"1406","15347.8"
"1407","15329.11"
"1408","15306.03"
"1409","15284"
"1410","15271.94"
"1411","15279.59"
"1412","15311.66"
"1413","15350.35"
"1414","15371.59"
"1415","15358.69"
"1416","15331.38"
"1417","15320.67"
"1418","15349.56"
"1419","15397.63"
"1420","15429.76"
"1421","15417.83"
"1422","15375.24"
"1423","15330.64"
"1424","15310.05"
"1425","15322.31"
"1426","15369.51"
"1427","15450.4"
"1428","15540.92"
"1429","15607.45"
"1430","15622.87"
"1431","15607.85"
"1432","15604.16"
"1433","15646.88"
"1434","15718.82"
"1435","15778.68"
"1436","15791.16"
"1437","15769.96"
"1438","15752.23"
"1439","15770.15"
"1440","15814.08"
"1441","15853.86"
"1442","15862.27"
"1443","15838.41"
"1444","15794.43"
"1445","15743.13"
"1446","15701.7"
"1447","15689.62"
"1448","15722.52"
"1449","15783.83"
"1450","15840.77"
"1451","15863.42"
"1452","15846.95"
"1453","15798.99"
"1454","15728.36"
"1455","15652.66"
"1456","15593.79"
"1457","15569.94"
"1458","15569.66"
"1459","15567.34"
"1460","15541.26"
"1461","15499.85"
"1462","15465.37"
"1463","15456.11"
"1464","15460.75"
"1465","15454.96"
"1466","15418.22"
"1467","15356.48"
"1468","15286.73"
"1469","15224.25"
"1470","15173.04"
"1471","15132.69"
"1472","15102.33"
"1473","15078.37"
"1474","15056.21"
"1475","15032.71"
"1476","15012.52"
"1477","15002.92"
"1478","15008.27"
"1479","15018.57"
"1480","15019.43"
"1481","14999.1"
"1482","14957.56"
"1483","14898.03"
"1484","14827.76"
"1485","14769.88"
"1486","14751.49"
"1487","14785.5"
"1488","14835.21"
"1489","14853.07"
"1490","14812.34"
"1491","14750.33"
"1492","14716.62"
"1493","14738.47"
"1494","14783.16"
"1495","14808.05"
"1496","14788.77"
"1497","14743.53"
"1498","14696.51"
"1499","14665.21"
"1500","14653.58"
"1501","14663.82"
"1502","14688.89"
"1503","14705.71"
"1504","14690.09"
"1505","14641.72"
"1506","14595.53"
"1507","14588.43"
"1508","14625.81"
"1509","14673.63"
"1510","14696.26"
"1511","14682.33"
"1512","14646.04"
"1513","14602.66"
"1514","14564.15"
"1515","14539.6"
"1516","14537.16"
"1517","14553.47"
"1518","14576.7"
"1519","14595.22"
"1520","14601.95"
"1521","14592.51"
"1522","14564.27"
"1523","14528.41"
"1524","14502.91"
"1525","14500.69"
"1526","14502.62"
"1527","14476.99"
"1528","14403.47"
"1529","14317.42"
"1530","14271.28"
"1531","14299.52"
"1532","14368.68"
"1533","14429.22"
"1534","14446.87"
"1535","14431.93"
"1536","14402.7"
"1537","14372.62"
"1538","14344.31"
"1539","14318.93"
"1540","14299.75"
"1541","14293.68"
"1542","14307.73"
"1543","14337.67"
"1544","14364.49"
"1545","14368.95"
"1546","14351.99"
"1547","14334.96"
"1548","14338.57"
"1549","14359.42"
"1550","14375.56"
"1551","14367.06"
"1552","14340.17"
"1553","14316.28"
"1554","14314.05"
"1555","14331.22"
"1556","14356.57"
"1557","14378.56"
"1558","14384.4"
"1559","14360.88"
"1560","14303.35"
"1561","14237.06"
"1562","14193.8"
"1563","14190.45"
"1564","14207.06"
"1565","14218.15"
"1566","14209.65"
"1567","14187.65"
"1568","14160.17"
"1569","14132.51"
"1570","14106.41"
"1571","14083.55"
"1572","14068.14"
"1573","14066.68"
"1574","14084.88"
"1575","14118.2"
"1576","14155.57"
"1577","14185.39"
"1578","14193.2"
"1579","14163.25"
"1580","14089.49"
"1581","14012.48"
"1582","13986.84"
"1583","14042.8"
"1584","14133.32"
"1585","14196.25"
"1586","14197.56"
"1587","14162.53"
"1588","14123.69"
"1589","14100.13"
"1590","14091.82"
"1591","14096.99"
"1592","14107.12"
"1593","14107.25"
"1594","14083.97"
"1595","14045.69"
"1596","14014.9"
"1597","14011.5"
"1598","14035.5"
"1599","14078.48"
"1600","14130.1"
"1601","14172.03"
"1602","14183.77"
"1603","14157.04"
"1604","14116.19"
"1605","14090.77"
"1606","14089.95"
"1607","14088.36"
"1608","14058.59"
"1609","14010.19"
"1610","13993.2"
"1611","14053.89"
"1612","14161.19"
"1613","14229.46"
"1614","14187.01"
"1615","14072.8"
"1616","13974.72"
"1617","13961.05"
"1618","14015.25"
"1619","14098.14"
"1620","14174.84"
"1621","14221.21"
"1622","14215.13"
"1623","14155.51"
"1624","14073.56"
"1625","14002.63"
"1626","13962.19"
"1627","13958.49"
"1628","13995.34"
"1629","14057.35"
"1630","14117.9"
"1631","14154.1"
"1632","14164.63"
"1633","14155.57"
"1634","14133.33"
"1635","14105.33"
"1636","14079.2"
"1637","14063.73"
"1638","14069.72"
"1639","14107.46"
"1640","14167.46"
"1641","14219.2"
"1642","14233.95"
"1643","14215.28"
"1644","14187.03"
"1645","14170.06"
"1646","14166.18"
"1647","14170.32"
"1648","14180.01"
"1649","14200.75"
"1650","14239.49"
"1651","14294.04"
"1652","14346.39"
"1653","14377.61"
"1654","14384.21"
"1655","14377.96"
"1656","14370.15"
"1657","14361.09"
"1658","14344.88"
"1659","14316.2"
"1660","14272.88"
"1661","14213.67"
"1662","14145.73"
"1663","14097.36"
"1664","14099.47"
"1665","14147.92"
"1666","14190.23"
"1667","14174.19"
"1668","14104.95"
"1669","14031.64"
"1670","13997.81"
"1671","14001.74"
"1672","14023.03"
"1673","14041.26"
"1674","14036.21"
"1675","13987.93"
"1676","13901.3"
"1677","13823.85"
"1678","13804.78"
"1679","13840.91"
"1680","13880.66"
"1681","13877.51"
"1682","13841.37"
"1683","13809.65"
"1684","13807.89"
"1685","13814.83"
"1686","13798.06"
"1687","13746.64"
"1688","13690.56"
"1689","13663.09"
"1690","13665.89"
"1691","13669.31"
"1692","13646.33"
"1693","13604.28"
"1694","13568.05"
"1695","13554.29"
"1696","13546.85"
"1697","13521.71"
"1698","13472.17"
"1699","13424.12"
"1700","13406.36"
"1701","13431.98"
"1702","13499.21"
"1703","13600.58"
"1704","13689.04"
"1705","13698.73"
"1706","13595.07"
"1707","13453.13"
"1708","13371.22"
"1709","13391"
"1710","13461.15"
"1711","13523.53"
"1712","13550.8"
"1713","13540.53"
"1714","13494.25"
"1715","13433.7"
"1716","13388.46"
"1717","13376.75"
"1718","13385.61"
"1719","13396.95"
"1720","13401.33"
"1721","13400.36"
"1722","13396.3"
"1723","13390.84"
"1724","13385.26"
"1725","13380.28"
"1726","13373.98"
"1727","13363.77"
"1728","13352.26"
"1729","13352.07"
"1730","13375.82"
"1731","13413.84"
"1732","13436.47"
"1733","13419.09"
"1734","13375.69"
"1735","13336.03"
"1736","13322.07"
"1737","13334.01"
"1738","13368.12"
"1739","13413.1"
"1740","13448.37"
"1741","13454.66"
"1742","13431.47"
"1743","13388.69"
"1744","13340.02"
"1745","13312.82"
"1746","13337.23"
"1747","13412.02"
"1748","13486.65"
"1749","13510.04"
"1750","13483.4"
"1751","13444.67"
"1752","13424.38"
"1753","13414.06"
"1754","13393.76"
"1755","13357.66"
"1756","13326.9"
"1757","13324.24"
"1758","13347.67"
"1759","13374.55"
"1760","13385.24"
"1761","13380.74"
"1762","13369.2"
"1763","13354.17"
"1764","13329.13"
"1765","13286.99"
"1766","13236.31"
"1767","13200.09"
"1768","13197.08"
"1769","13216.04"
"1770","13234.28"
"1771","13237.79"
"1772","13232.96"
"1773","13229.05"
"1774","13233.72"
"1775","13253.15"
"1776","13290"
"1777","13324.96"
"1778","13330.17"
"1779","13294.81"
"1780","13248.04"
"1781","13223.73"
"1782","13233.17"
"1783","13266.29"
"1784","13310.21"
"1785","13340.02"
"1786","13326.4"
"1787","13264.86"
"1788","13205.39"
"1789","13201.93"
"1790","13246.79"
"1791","13278.48"
"1792","13248.9"
"1793","13192.46"
"1794","13171"
"1795","13210.55"
"1796","13267.93"
"1797","13294.75"
"1798","13283.51"
"1799","13257.72"
"1800","13237.5"
"1801","13224.4"
"1802","13214.79"
"1803","13207.35"
"1804","13204.49"
"1805","13208.04"
"1806","13210.43"
"1807","13198.23"
"1808","13168.48"
"1809","13154.84"
"1810","13197.64"
"1811","13288.89"
"1812","13360.11"
"1813","13349.04"
"1814","13272.84"
"1815","13185.98"
"1816","13128.18"
"1817","13100.92"
"1818","13099.64"
"1819","13117.63"
"1820","13146.13"
"1821","13176.73"
"1822","13203.09"
"1823","13219.61"
"1824","13222.74"
"1825","13212.53"
"1826","13190.11"
"1827","13164.2"
"1828","13148.51"
"1829","13149.96"
"1830","13152.01"
"1831","13133.73"
"1832","13094.39"
"1833","13056.99"
"1834","13042.91"
"1835","13053.42"
"1836","13081.41"
"1837","13115.64"
"1838","13136.33"
"1839","13124.75"
"1840","13093.27"
"1841","13077.36"
"1842","13100.22"
"1843","13135.48"
"1844","13145.6"
"1845","13123.65"
"1846","13101.39"
"1847","13108.19"
"1848","13138.4"
"1849","13171.29"
"1850","13191.4"
"1851","13194.73"
"1852","13179.58"
"1853","13155.76"
"1854","13141.41"
"1855","13149.61"
"1856","13174.36"
"1857","13205.13"
"1858","13226.93"
"1859","13219.55"
"1860","13169.22"
"1861","13103.57"
"1862","13065.66"
"1863","13074.08"
"1864","13103.06"
"1865","13124.19"
"1866","13130.72"
"1867","13128.87"
"1868","13124.16"
"1869","13119.72"
"1870","13118.27"
"1871","13122.3"
"1872","13134.14"
"1873","13154.48"
"1874","13176.68"
"1875","13192.25"
"1876","13197.35"
"1877","13194.24"
"1878","13186.14"
"1879","13179.64"
"1880","13182.69"
"1881","13198.74"
"1882","13222.63"
"1883","13247.43"
"1884","13257.53"
"1885","13232.22"
"1886","13166.57"
"1887","13097.94"
"1888","13068.59"
"1889","13085.02"
"1890","13124.64"
"1891","13162.77"
"1892","13170.15"
"1893","13118.39"
"1894","13032.37"
"1895","12994.82"
"1896","13066.6"
"1897","13180.42"
"1898","13229.34"
"1899","13182.98"
"1900","13119.43"
"1901","13112.07"
"1902","13143.52"
"1903","13158.39"
"1904","13134.89"
"1905","13112.37"
"1906","13130.11"
"1907","13167.1"
"1908","13169.99"
"1909","13121.53"
"1910","13086.97"
"1911","13135.08"
"1912","13238.52"
"1913","13306.31"
"1914","13284.2"
"1915","13223.72"
"1916","13191.15"
"1917","13195.25"
"1918","13199.31"
"1919","13176.86"
"1920","13140.05"
"1921","13108.52"
"1922","13088.85"
"1923","13075.61"
"1924","13064.44"
"1925","13056.99"
"1926","13056.14"
"1927","13059.26"
"1928","13057.88"
"1929","13048.14"
"1930","13047.95"
"1931","13080.23"
"1932","13133.27"
"1933","13155.22"
"1934","13109.13"
"1935","13043.94"
"1936","13033.67"
"1937","13091.13"
"1938","13152.44"
"1939","13160.4"
"1940","13120.8"
"1941","13060.34"
"1942","12998.53"
"1943","12945.41"
"1944","12911.71"
"1945","12915.83"
"1946","12978"
"1947","13082.48"
"1948","13164.39"
"1949","13168.51"
"1950","13116.47"
"1951","13056.98"
"1952","13019.08"
"1953","13004.8"
"1954","13010.72"
"1955","13013.53"
"1956","12983.62"
"1957","12926.02"
"1958","12892.38"
"1959","12924.97"
"1960","12995.68"
"1961","13052.86"
"1962","13070.32"
"1963","13054.74"
"1964","13016.64"
"1965","12974.79"
"1966","12950.36"
"1967","12951.62"
"1968","12971.34"
"1969","12999.38"
"1970","13016.34"
"1971","13001.35"
"1972","12970.17"
"1973","12978.86"
"1974","13057.77"
"1975","13119.94"
"1976","13053.13"
"1977","12875.61"
"1978","12734.02"
"1979","12734.03"
"1980","12811.21"
"1981","12866.39"
"1982","12874.65"
"1983","12874.78"
"1984","12897.14"
"1985","12939.73"
"1986","12993.08"
"1987","13030.77"
"1988","13014.04"
"1989","12930.55"
"1990","12835.86"
"1991","12791.82"
"1992","12812.14"
"1993","12881.32"
"1994","12968.49"
"1995","13012.19"
"1996","12961.02"
"1997","12877.52"
"1998","12878.51"
"1999","12981.74"
"2000","13042.09"
"2001","12934.18"
"2002","12749.22"
"2003","12657.56"
"2004","12702.09"
"2005","12762.26"
"2006","12738.35"
"2007","12676.06"
"2008","12659.49"
"2009","12699.36"
"2010","12734.36"
"2011","12719.58"
"2012","12675.45"
"2013","12635.24"
"2014","12620.39"
"2015","12643.67"
"2016","12695.95"
"2017","12716.36"
"2018","12649.07"
"2019","12554.79"
"2020","12555.41"
"2021","12675.24"
"2022","12771.59"
"2023","12717.66"
"2024","12583.14"
"2025","12508.25"
"2026","12532.43"
"2027","12574.24"
"2028","12569.75"
"2029","12554.22"
"2030","12583.99"
"2031","12652.1"
"2032","12699.13"
"2033","12690.45"
"2034","12660.48"
"2035","12649.53"
"2036","12647.38"
"2037","12615.95"
"2038","12546.82"
"2039","12482.46"
"2040","12463.4"
"2041","12489.39"
"2042","12545.27"
"2043","12606.42"
"2044","12637.79"
"2045","12617.21"
"2046","12569.64"
"2047","12527.77"
"2048","12489.48"
"2049","12428.14"
"2050","12345.1"
"2051","12301.73"
"2052","12352.74"
"2053","12449.7"
"2054","12500.85"
"2055","12475.05"
"2056","12419.45"
"2057","12374.48"
"2058","12332.24"
"2059","12274.92"
"2060","12218.89"
"2061","12207"
"2062","12255.65"
"2063","12319.53"
"2064","12350.08"
"2065","12338.83"
"2066","12295.63"
"2067","12235.01"
"2068","12177.45"
"2069","12141.26"
"2070","12134.32"
"2071","12160.77"
"2072","12207.75"
"2073","12249.78"
"2074","12268.41"
"2075","12260.75"
"2076","12227.87"
"2077","12184.09"
"2078","12148.96"
"2079","12134.52"
"2080","12144.19"
"2081","12175.58"
"2082","12208.72"
"2083","12222.01"
"2084","12216.84"
"2085","12208.73"
"2086","12199.78"
"2087","12168.81"
"2088","12101.57"
"2089","12030.15"
"2090","11998.83"
"2091","12003.26"
"2092","11995.99"
"2093","11947.96"
"2094","11878.44"
"2095","11814.8"
"2096","11790.83"
"2097","11841.59"
"2098","11946.56"
"2099","12018.43"
"2100","11996.61"
"2101","11923.16"
"2102","11857.9"
"2103","11821.87"
"2104","11812.9"
"2105","11823.94"
"2106","11840.76"
"2107","11849.81"
"2108","11843.32"
"2109","11815.44"
"2110","11765.75"
"2111","11697.9"
"2112","11618.83"
"2113","11541.57"
"2114","11480.84"
"2115","11456.53"
"2116","11488.48"
"2117","11561.62"
"2118","11629.66"
"2119","11661.41"
"2120","11663.1"
"2121","11645.44"
"2122","11614.45"
"2123","11574.24"
"2124","11527.12"
"2125","11473.62"
"2126","11417.59"
"2127","11371.66"
"2128","11347.53"
"2129","11339.27"
"2130","11333.16"
"2131","11316.93"
"2132","11280.02"
"2133","11224.95"
"2134","11190.54"
"2135","11212.5"
"2136","11252.27"
"2137","11238.45"
"2138","11164.84"
"2139","11100.33"
"2140","11090.72"
"2141","11103.45"
"2142","11095.87"
"2143","11056.84"
"2144","10990.91"
"2145","10927.53"
"2146","10924.34"
"2147","11000.26"
"2148","11061.76"
"2149","11013.66"
"2150","10896.19"
"2151","10808.59"
"2152","10783.73"
"2153","10782.56"
"2154","10773.71"
"2155","10755.05"
"2156","10730.09"
"2157","10709.11"
"2158","10704.42"
"2159","10710.29"
"2160","10703.44"
"2161","10671.29"
"2162","10627.42"
"2163","10584.63"
"2164","10530.1"
"2165","10444.91"
"2166","10364.62"
"2167","10370.2"
"2168","10473.08"
"2169","10548.04"
"2170","10494.7"
"2171","10405.07"
"2172","10415.37"
"2173","10494.69"
"2174","10497"
"2175","10372.99"
"2176","10228.05"
"2177","10149.53"
"2178","10108.27"
"2179","10054.9"
"2180","10002.61"
"2181","9997.425"
"2182","10033.17"
"2183","10040.05"
"2184","9974.052"
"2185","9872.551"
"2186","9783.553"
"2187","9733.016"
"2188","9736.046"
"2189","9770.387"
"2190","9780.206"
"2191","9741.027"
"2192","9692.452"
"2193","9671.847"
"2194","9671.689"
"2195","9673.032"
"2196","9673.232"
"2197","9679.728"
"2198","9681.289"
"2199","9640.937"
"2200","9543.993"
"2201","9448.764"
"2202","9415.619"
"2203","9420.68"
"2204","9404.864"
"2205","9337.23"
"2206","9213.223"
"2207","9057.157"
"2208","8947.287"
"2209","8944.245"
"2210","9004.542"
"2211","9058.604"
"2212","9060.703"
"2213","8980.997"
"2214","8851.952"
"2215","8781.835"
"2216","8830.171"
"2217","8919.218"
"2218","8961.218"
"2219","8937.133"
"2220","8854.317"
"2221","8748.792"
"2222","8677.311"
"2223","8657.828"
"2224","8649.128"
"2225","8617.706"
"2226","8570.116"
"2227","8519.3"
"2228","8467.71"
"2229","8413.575"
"2230","8359.57"
"2231","8312.211"
"2232","8274.494"
"2233","8243.137"
"2234","8210.738"
"2235","8157.5"
"2236","8066.085"
"2237","7960.729"
"2238","7883.669"
"2239","7841.352"
"2240","7806.666"
"2241","7751.321"
"2242","7647.389"
"2243","7488.56"
"2244","7349.294"
"2245","7310.715"
"2246","7353.149"
"2247","7409.675"
"2248","7444.322"
"2249","7450.338"
"2250","7419.774"
"2251","7340.586"
"2252","7211.531"
"2253","7071.675"
"2254","6963.226"
"2255","6882.586"
"2256","6806.134"
"2257","6726.295"
"2258","6649.416"
"2259","6570.362"
"2260","6464.52"
"2261","6327.4"
"2262","6224.265"
"2263","6214.814"
"2264","6231.542"
"2265","6164.338"
"2266","6024.267"
"2267","5912.326"
"2268","5851.822"
"2269","5755.223"
"2270","5580.633"
"2271","5426.756"
"2272","5386.464"
"2273","5404.517"
"2274","5385.313"
"2275","5312.23"
"2276","5216.484"
"2277","5126.027"
"2278","5064.131"
"2279","5008.555"
"2280","4846.806"
"2281","4529.045"
"2282","4283.731"
"2283","4348.357"
"2284","4531.953"
"2285","4471.577"
"2286","4159.876"
"2287","3876.68"
"2288","3765.686"
"2289","3762.59"
"2290","3784.536"
"2291","3742.828"
"2292","3577.076"
"2293","3371.362"
"2294","3240.955"
"2295","3174.274"
"2296","3091.692"
"2297","2972.109"
"2298","2851.884"
"2299","2749.925"
"2300","2651.603"
