,"Scan 00961"
"400","11364.69"
"401","11346.07"
"402","11322.08"
"403","11297.1"
"404","11275.49"
"405","11261.17"
"406","11254.39"
"407","11253.59"
"408","11257.19"
"409","11263.57"
"410","11270.6"
"411","11275.78"
"412","11276.61"
"413","11270.8"
"414","11260.01"
"415","11249.54"
"416","11244.8"
"417","11250.98"
"418","11267.42"
"419","11286.23"
"420","11299.12"
"421","11297.94"
"422","11280.37"
"423","11253.37"
"424","11224.73"
"425","11202.12"
"426","11189.72"
"427","11184.41"
"428","11182.16"
"429","11178.97"
"430","11172.92"
"431","11167.59"
"432","11167.48"
"433","11177.04"
"434","11198.34"
"435","11225.32"
"436","11250.19"
"437","11265.23"
"438","11264.9"
"439","11253.07"
"440","11236.16"
"441","11220.55"
"442","11211.55"
"443","11208.95"
"444","11210.62"
"445","11214.48"
"446","11218.13"
"447","11217.13"
"448","11206.17"
"449","11180.02"
"450","11134.99"
"451","11080.21"
"452","11031.06"
"453","11002.86"
"454","11008.47"
"455","11036.83"
"456","11063.18"
"457","11062.78"
"458","11013.67"
"459","10925.9"
"460","10830.68"
"461","10759.37"
"462","10740.98"
"463","10773.23"
"464","10830.5"
"465","10886.76"
"466","10917.33"
"467","10917.52"
"468","10899.34"
"469","10875.24"
"470","10857.09"
"471","10846.88"
"472","10837.58"
"473","10821.83"
"474","10792.8"
"475","10753.63"
"476","10717.38"
"477","10697.46"
"478","10706.59"
"479","10742.43"
"480","10786.59"
"481","10820.05"
"482","10824.41"
"483","10797"
"484","10752.63"
"485","10706.96"
"486","10675.2"
"487","10661.94"
"488","10659.44"
"489","10659.29"
"490","10653.28"
"491","10637.39"
"492","10612.64"
"493","10580.33"
"494","10541.75"
"495","10497.91"
"496","10449.47"
"497","10397.11"
"498","10341.49"
"499","10284.31"
"500","10228.49"
"501","10176.99"
"502","10132.74"
"503","10097.35"
"504","10070.94"
"505","10053.49"
"506","10044.93"
"507","10041.72"
"508","10036.41"
"509","10021.38"
"510","9989.28"
"511","9939.674"
"512","9879.768"
"513","9817.118"
"514","9759.101"
"515","9709.495"
"516","9668.319"
"517","9635.408"
"518","9610.559"
"519","9592.585"
"520","9579.349"
"521","9568.676"
"522","9558.486"
"523","9548.146"
"524","9538.323"
"525","9529.732"
"526","9523.01"
"527","9517.613"
"528","9512.022"
"529","9504.703"
"530","9494.202"
"531","9480.12"
"532","9462.841"
"533","9442.757"
"534","9420.202"
"535","9394.758"
"536","9365.521"
"537","9331.588"
"538","9292.18"
"539","9247.703"
"540","9199.247"
"541","9147.897"
"542","9095.476"
"543","9049.819"
"544","9021.663"
"545","9021.706"
"546","9057.494"
"547","9115.775"
"548","9174.854"
"549","9213.117"
"550","9213.817"
"551","9186.24"
"552","9148.407"
"553","9118.266"
"554","9109.077"
"555","9113.904"
"556","9120.302"
"557","9115.891"
"558","9092.935"
"559","9059.751"
"560","9028.116"
"561","9009.744"
"562","9010.519"
"563","9020.428"
"564","9026.786"
"565","9017.021"
"566","8987.505"
"567","8953.793"
"568","8933.864"
"569","8945.41"
"570","8990.576"
"571","9045.476"
"572","9083.839"
"573","9080.064"
"574","9030.417"
"575","8959.538"
"576","8893.861"
"577","8858.878"
"578","8860.827"
"579","8886.726"
"580","8922.809"
"581","8955.823"
"582","8979.141"
"583","8991.174"
"584","8990.467"
"585","8976.353"
"586","8955.882"
"587","8940.449"
"588","8941.461"
"589","8967.293"
"590","9006.254"
"591","9038.427"
"592","9043.953"
"593","9009.027"
"594","8947.771"
"595","8882.375"
"596","8834.936"
"597","8820.447"
"598","8831.281"
"599","8855.307"
"600","8880.458"
"601","8897.105"
"602","8900.973"
"603","8888.511"
"604","8856.295"
"605","8807.221"
"606","8753.9"
"607","8709.722"
"608","8687.634"
"609","8690.379"
"610","8709.826"
"611","8737.34"
"612","8764.5"
"613","8785.455"
"614","8796.238"
"615","8792.939"
"616","8772.953"
"617","8744.335"
"618","8720.376"
"619","8714.358"
"620","8735.298"
"621","8770.56"
"622","8800.629"
"623","8806.063"
"624","8775.851"
"625","8725.81"
"626","8677.065"
"627","8650.572"
"628","8653.574"
"629","8665.762"
"630","8663.577"
"631","8624.164"
"632","8548.531"
"633","8468.434"
"634","8417.563"
"635","8427.318"
"636","8492.615"
"637","8578.295"
"638","8648.406"
"639","8671.196"
"640","8650.696"
"641","8609.415"
"642","8569.94"
"643","8550.691"
"644","8549.642"
"645","8558.438"
"646","8568.769"
"647","8575.04"
"648","8579.443"
"649","8585.548"
"650","8596.872"
"651","8614.003"
"652","8632.587"
"653","8647.807"
"654","8655.069"
"655","8654.826"
"656","8652.648"
"657","8654.309"
"658","8664.912"
"659","8682.57"
"660","8701.19"
"661","8714.635"
"662","8717.618"
"663","8709.474"
"664","8691.106"
"665","8663.427"
"666","8629.662"
"667","8599.916"
"668","8585.545"
"669","8597.707"
"670","8636.112"
"671","8681.677"
"672","8713.623"
"673","8712.289"
"674","8679.775"
"675","8638.428"
"676","8611.312"
"677","8618.337"
"678","8652.138"
"679","8691.188"
"680","8713.9"
"681","8704.523"
"682","8672.661"
"683","8634.812"
"684","8607.403"
"685","8600.453"
"686","8609.7"
"687","8628.949"
"688","8652.036"
"689","8673.114"
"690","8686.727"
"691","8687.449"
"692","8670.524"
"693","8638.791"
"694","8599.952"
"695","8561.774"
"696","8531.419"
"697","8512.948"
"698","8509.412"
"699","8523.837"
"700","8554.666"
"701","8588.738"
"702","8611.113"
"703","8607.232"
"704","8575.985"
"705","8533.465"
"706","8496.863"
"707","8482.107"
"708","8490.491"
"709","8513.672"
"710","8543.155"
"711","8571.048"
"712","8592.465"
"713","8603.489"
"714","8600.229"
"715","8583.037"
"716","8562.31"
"717","8549.873"
"718","8557.146"
"719","8584.08"
"720","8617.445"
"721","8643.302"
"722","8649.207"
"723","8637.041"
"724","8616.75"
"725","8598.354"
"726","8589.68"
"727","8589.623"
"728","8594.786"
"729","8601.802"
"730","8609.053"
"731","8618.139"
"732","8630.998"
"733","8649.26"
"734","8668.88"
"735","8680.892"
"736","8676.184"
"737","8648.339"
"738","8608.414"
"739","8574.424"
"740","8564.359"
"741","8586.786"
"742","8624.797"
"743","8657.229"
"744","8663.473"
"745","8639.755"
"746","8602.673"
"747","8570.021"
"748","8558.075"
"749","8569.112"
"750","8597.716"
"751","8638.401"
"752","8684.551"
"753","8725.366"
"754","8749.114"
"755","8744.271"
"756","8710.784"
"757","8666.187"
"758","8629.482"
"759","8618.193"
"760","8631.672"
"761","8656.958"
"762","8680.887"
"763","8693.452"
"764","8698.721"
"765","8704.677"
"766","8719.227"
"767","8744.094"
"768","8770.03"
"769","8786.67"
"770","8784.426"
"771","8764.991"
"772","8738.599"
"773","8715.686"
"774","8705.337"
"775","8710.094"
"776","8730.492"
"777","8767.036"
"778","8816.828"
"779","8870.611"
"780","8918.438"
"781","8950.907"
"782","8966.723"
"783","8970.847"
"784","8968.399"
"785","8964.029"
"786","8960.118"
"787","8958.369"
"788","8960.454"
"789","8965.416"
"790","8967.589"
"791","8960.825"
"792","8939.754"
"793","8909.448"
"794","8882.505"
"795","8871.671"
"796","8885.105"
"797","8911.276"
"798","8933.367"
"799","8934.795"
"800","8912.462"
"801","8884.376"
"802","8870.367"
"803","8887.828"
"804","8927.932"
"805","8965.846"
"806","8976.538"
"807","8945.348"
"808","8893.486"
"809","8849.898"
"810","8842.899"
"811","8878.86"
"812","8936.67"
"813","8993.493"
"814","9028.85"
"815","9040.533"
"816","9034.952"
"817","9018.553"
"818","8997.535"
"819","8977.477"
"820","8963.85"
"821","8961.821"
"822","8970.435"
"823","8983.095"
"824","8993.001"
"825","8995.063"
"826","8993.175"
"827","8994.143"
"828","9004.699"
"829","9025.447"
"830","9046.45"
"831","9056.734"
"832","9046.896"
"833","9024.764"
"834","9008.846"
"835","9017.799"
"836","9061.678"
"837","9122.826"
"838","9178.022"
"839","9204.655"
"840","9196.23"
"841","9163.847"
"842","9119.486"
"843","9074.297"
"844","9034.411"
"845","9004.088"
"846","8987.565"
"847","8986.955"
"848","9000.428"
"849","9025.722"
"850","9060.487"
"851","9101.355"
"852","9144.302"
"853","9185.294"
"854","9219.845"
"855","9242.048"
"856","9245.707"
"857","9225.021"
"858","9183.431"
"859","9133.832"
"860","9089.547"
"861","9062.542"
"862","9057.634"
"863","9077.282"
"864","9123.824"
"865","9191.866"
"866","9263.8"
"867","9320.937"
"868","9346.661"
"869","9342.487"
"870","9319.303"
"871","9288.07"
"872","9258.826"
"873","9239.384"
"874","9237.229"
"875","9258.949"
"876","9297.88"
"877","9337.246"
"878","9360.017"
"879","9356.102"
"880","9340.337"
"881","9333.154"
"882","9354.127"
"883","9400.261"
"884","9444.274"
"885","9457.684"
"886","9420.028"
"887","9352.786"
"888","9291.084"
"889","9269.629"
"890","9300.568"
"891","9362.973"
"892","9433.262"
"893","9489.949"
"894","9526.976"
"895","9545.194"
"896","9545.518"
"897","9531.634"
"898","9512.639"
"899","9498.249"
"900","9497.148"
"901","9507.372"
"902","9520.715"
"903","9528.896"
"904","9527.179"
"905","9519.73"
"906","9512.106"
"907","9509.645"
"908","9514.838"
"909","9528.078"
"910","9549.708"
"911","9578.238"
"912","9606.414"
"913","9625.843"
"914","9628.741"
"915","9618.832"
"916","9610.056"
"917","9616.717"
"918","9646.451"
"919","9681.313"
"920","9697.207"
"921","9671.12"
"922","9606.462"
"923","9534.087"
"924","9486.12"
"925","9487.048"
"926","9526.96"
"927","9586.283"
"928","9645.671"
"929","9693.142"
"930","9725.335"
"931","9739.388"
"932","9733.536"
"933","9711.629"
"934","9679.3"
"935","9642.191"
"936","9606.474"
"937","9578.98"
"938","9566.596"
"939","9574.338"
"940","9596.922"
"941","9625.521"
"942","9651.383"
"943","9669.326"
"944","9678.995"
"945","9680.379"
"946","9674.14"
"947","9664.798"
"948","9658.273"
"949","9660.322"
"950","9669.354"
"951","9673.567"
"952","9660.394"
"953","9621.629"
"954","9574.592"
"955","9545.867"
"956","9561.492"
"957","9621.964"
"958","9692.53"
"959","9735.843"
"960","9722.605"
"961","9669.422"
"962","9609.151"
"963","9574.175"
"964","9576.184"
"965","9599.405"
"966","9626.166"
"967","9641.839"
"968","9648.144"
"969","9652.249"
"970","9661.16"
"971","9675.932"
"972","9690.256"
"973","9697.363"
"974","9691.846"
"975","9674.928"
"976","9649.84"
"977","9619.848"
"978","9589.066"
"979","9562.568"
"980","9545.48"
"981","9541.482"
"982","9548.12"
"983","9561.309"
"984","9576.977"
"985","9591.501"
"986","9601.697"
"987","9604.396"
"988","9598.084"
"989","9587.21"
"990","9577.56"
"991","9574.833"
"992","9583.038"
"993","9604.775"
"994","9642.599"
"995","9694.906"
"996","9747.812"
"997","9785.169"
"998","9792.196"
"999","9771.747"
"1000","9738.912"
"1001","9709.016"
"1002","9692.555"
"1003","9688.627"
"1004","9694.687"
"1005","9708.185"
"1006","9726.162"
"1007","9742.945"
"1008","9751.73"
"1009","9745.843"
"1010","9725.37"
"1011","9700.107"
"1012","9680.595"
"1013","9675.927"
"1014","9687.249"
"1015","9713.022"
"1016","9751.543"
"1017","9795.858"
"1018","9832.864"
"1019","9849.094"
"1020","9836.534"
"1021","9810.229"
"1022","9791.312"
"1023","9799.973"
"1024","9837.147"
"1025","9885.928"
"1026","9928.723"
"1027","9952.821"
"1028","9960.885"
"1029","9958.592"
"1030","9951.652"
"1031","9946.06"
"1032","9948.017"
"1033","9963.699"
"1034","9991.454"
"1035","10011.85"
"1036","10003"
"1037","9947.712"
"1038","9869.154"
"1039","9810.934"
"1040","9816.323"
"1041","9893.969"
"1042","9997.182"
"1043","10074.28"
"1044","10084.03"
"1045","10043.46"
"1046","9989.694"
"1047","9958.986"
"1048","9962.594"
"1049","9984.37"
"1050","10006.76"
"1051","10016.32"
"1052","10014.17"
"1053","10004.66"
"1054","9991.979"
"1055","9978.318"
"1056","9964.434"
"1057","9951.059"
"1058","9941.393"
"1059","9944.035"
"1060","9968.299"
"1061","10020.85"
"1062","10088.38"
"1063","10148.5"
"1064","10179.2"
"1065","10175.9"
"1066","10157.56"
"1067","10144.82"
"1068","10152.37"
"1069","10169.97"
"1070","10180.77"
"1071","10169.14"
"1072","10139.26"
"1073","10111.36"
"1074","10106.05"
"1075","10131.55"
"1076","10167.04"
"1077","10187.56"
"1078","10172.13"
"1079","10130.13"
"1080","10084.98"
"1081","10059.77"
"1082","10063.52"
"1083","10086.96"
"1084","10119.56"
"1085","10151.68"
"1086","10176.96"
"1087","10189.85"
"1088","10185.43"
"1089","10167.06"
"1090","10144.02"
"1091","10125.65"
"1092","10117.39"
"1093","10117.1"
"1094","10121.77"
"1095","10128.42"
"1096","10134.33"
"1097","10136.86"
"1098","10133.44"
"1099","10122.78"
"1100","10104.91"
"1101","10079.92"
"1102","10049.99"
"1103","10022.96"
"1104","10007.61"
"1105","10011.32"
"1106","10030.34"
"1107","10055.52"
"1108","10077.76"
"1109","10091.58"
"1110","10095.99"
"1111","10090.34"
"1112","10075.88"
"1113","10060.52"
"1114","10053.59"
"1115","10062.87"
"1116","10080.31"
"1117","10088.58"
"1118","10070.51"
"1119","10025.84"
"1120","9979.244"
"1121","9957.443"
"1122","9977.782"
"1123","10020.64"
"1124","10057.28"
"1125","10061.33"
"1126","10034.91"
"1127","9998.687"
"1128","9973.513"
"1129","9968.29"
"1130","9972.908"
"1131","9975.546"
"1132","9967.162"
"1133","9950.28"
"1134","9930.433"
"1135","9913.045"
"1136","9902.244"
"1137","9901.285"
"1138","9913.353"
"1139","9937.421"
"1140","9965.834"
"1141","9990.343"
"1142","10003.47"
"1143","10000.82"
"1144","9978.76"
"1145","9934.962"
"1146","9881.534"
"1147","9839.567"
"1148","9829.937"
"1149","9855.495"
"1150","9893.259"
"1151","9918.224"
"1152","9914.347"
"1153","9896.616"
"1154","9886.726"
"1155","9903.84"
"1156","9944.017"
"1157","9991.016"
"1158","10028.72"
"1159","10049.22"
"1160","10054.5"
"1161","10047.08"
"1162","10030.85"
"1163","10013.28"
"1164","10002.5"
"1165","10005.06"
"1166","10016.99"
"1167","10029.93"
"1168","10035.81"
"1169","10032.32"
"1170","10022.46"
"1171","10009.46"
"1172","9996.862"
"1173","9988.821"
"1174","9989.584"
"1175","10001.89"
"1176","10021.46"
"1177","10041.93"
"1178","10057.43"
"1179","10067.43"
"1180","10074.97"
"1181","10083.07"
"1182","10092.88"
"1183","10102.96"
"1184","10111.69"
"1185","10117.51"
"1186","10119.09"
"1187","10115.11"
"1188","10105.22"
"1189","10095.61"
"1190","10095.2"
"1191","10112.34"
"1192","10145.1"
"1193","10182.56"
"1194","10213.6"
"1195","10231.42"
"1196","10237.05"
"1197","10232.27"
"1198","10219.32"
"1199","10202.09"
"1200","10184.9"
"1201","10172.02"
"1202","10167.53"
"1203","10175.38"
"1204","10199.13"
"1205","10232.36"
"1206","10258.79"
"1207","10261.76"
"1208","10235.65"
"1209","10196.47"
"1210","10162.76"
"1211","10149.14"
"1212","10154.44"
"1213","10173.43"
"1214","10200.13"
"1215","10221.64"
"1216","10221.48"
"1217","10184.25"
"1218","10119.24"
"1219","10060.17"
"1220","10041.65"
"1221","10077.4"
"1222","10142.16"
"1223","10206.36"
"1224","10246.01"
"1225","10257.8"
"1226","10243.15"
"1227","10205.02"
"1228","10157.85"
"1229","10121.33"
"1230","10114.22"
"1231","10138.89"
"1232","10183.78"
"1233","10236.88"
"1234","10286.59"
"1235","10321.92"
"1236","10331.94"
"1237","10312.83"
"1238","10281.07"
"1239","10256.79"
"1240","10256.93"
"1241","10280.92"
"1242","10322.18"
"1243","10373.61"
"1244","10422.38"
"1245","10452.08"
"1246","10446.87"
"1247","10408.42"
"1248","10357.62"
"1249","10316.32"
"1250","10298.33"
"1251","10302.14"
"1252","10324.48"
"1253","10360.23"
"1254","10397.89"
"1255","10424.59"
"1256","10429.98"
"1257","10420.13"
"1258","10407.54"
"1259","10403.76"
"1260","10408.11"
"1261","10411.54"
"1262","10405.14"
"1263","10388.12"
"1264","10368.96"
"1265","10356.62"
"1266","10356.26"
"1267","10365.83"
"1268","10382.47"
"1269","10403.33"
"1270","10425.53"
"1271","10446.22"
"1272","10462.28"
"1273","10469.16"
"1274","10461.83"
"1275","10436.54"
"1276","10403.13"
"1277","10379.4"
"1278","10382.28"
"1279","10407.85"
"1280","10432.57"
"1281","10432.45"
"1282","10401.89"
"1283","10362.88"
"1284","10339.64"
"1285","10346.63"
"1286","10374.85"
"1287","10411.91"
"1288","10445.29"
"1289","10462.35"
"1290","10450.36"
"1291","10400.55"
"1292","10329.89"
"1293","10265.6"
"1294","10233.27"
"1295","10239.24"
"1296","10277.8"
"1297","10342.63"
"1298","10418.59"
"1299","10482.17"
"1300","10509.91"
"1301","10498.17"
"1302","10471.66"
"1303","10457.22"
"1304","10468.36"
"1305","10489.77"
"1306","10502.44"
"1307","10493.89"
"1308","10473.58"
"1309","10455.5"
"1310","10450.23"
"1311","10450.97"
"1312","10445.36"
"1313","10422.95"
"1314","10388.78"
"1315","10355.29"
"1316","10334.12"
"1317","10325.77"
"1318","10322.96"
"1319","10318.48"
"1320","10310.11"
"1321","10300.62"
"1322","10293.04"
"1323","10291.85"
"1324","10303.55"
"1325","10334.74"
"1326","10382.19"
"1327","10423.1"
"1328","10432.37"
"1329","10398.63"
"1330","10349.64"
"1331","10320.03"
"1332","10333.81"
"1333","10371.41"
"1334","10402.23"
"1335","10400.67"
"1336","10370.93"
"1337","10327.97"
"1338","10286.05"
"1339","10253.48"
"1340","10235.55"
"1341","10236.71"
"1342","10251.16"
"1343","10266.09"
"1344","10269.39"
"1345","10265.07"
"1346","10271.68"
"1347","10307.49"
"1348","10363.86"
"1349","10399.99"
"1350","10373.82"
"1351","10282.08"
"1352","10182.17"
"1353","10136.57"
"1354","10171.84"
"1355","10241.1"
"1356","10288.45"
"1357","10279.27"
"1358","10236.06"
"1359","10190.78"
"1360","10166.79"
"1361","10157.02"
"1362","10147.72"
"1363","10127.95"
"1364","10099.93"
"1365","10069.62"
"1366","10043.51"
"1367","10031.25"
"1368","10043.66"
"1369","10088.31"
"1370","10147.56"
"1371","10192"
"1372","10195.27"
"1373","10163"
"1374","10119.45"
"1375","10087.83"
"1376","10074.05"
"1377","10071.68"
"1378","10074.23"
"1379","10079.03"
"1380","10086.73"
"1381","10097.85"
"1382","10107.44"
"1383","10104.88"
"1384","10079.8"
"1385","10039.38"
"1386","10012.54"
"1387","10028.94"
"1388","10087.33"
"1389","10141.36"
"1390","10141.51"
"1391","10074.9"
"1392","9991.495"
"1393","9947.203"
"1394","9966.741"
"1395","10012.32"
"1396","10038.75"
"1397","10020.89"
"1398","9980.279"
"1399","9945.08"
"1400","9933.782"
"1401","9938.881"
"1402","9948.548"
"1403","9954.353"
"1404","9958.346"
"1405","9964.597"
"1406","9975.908"
"1407","9990.637"
"1408","10006.16"
"1409","10019.42"
"1410","10025.7"
"1411","10019.84"
"1412","10000.04"
"1413","9979.382"
"1414","9975.087"
"1415","9999.252"
"1416","10038.63"
"1417","10072.15"
"1418","10083.93"
"1419","10086.42"
"1420","10101.62"
"1421","10145.33"
"1422","10196.6"
"1423","10221.01"
"1424","10192.28"
"1425","10136.81"
"1426","10101.71"
"1427","10125.44"
"1428","10186.39"
"1429","10237.74"
"1430","10240.72"
"1431","10215.57"
"1432","10208.66"
"1433","10258.79"
"1434","10345.84"
"1435","10422.45"
"1436","10447.4"
"1437","10429.63"
"1438","10402.03"
"1439","10394.19"
"1440","10406.88"
"1441","10426.79"
"1442","10441.15"
"1443","10442.98"
"1444","10428.14"
"1445","10394.33"
"1446","10354.57"
"1447","10329.58"
"1448","10337.06"
"1449","10368.38"
"1450","10401.72"
"1451","10417.08"
"1452","10410.7"
"1453","10386.88"
"1454","10350.43"
"1455","10309.69"
"1456","10274.72"
"1457","10254.13"
"1458","10244.8"
"1459","10238.03"
"1460","10225.41"
"1461","10201.32"
"1462","10161.37"
"1463","10103.29"
"1464","10039.87"
"1465","9990.554"
"1466","9970.477"
"1467","9965.166"
"1468","9947.811"
"1469","9897.626"
"1470","9832.499"
"1471","9785.472"
"1472","9782.631"
"1473","9808.866"
"1474","9834.053"
"1475","9832.826"
"1476","9805.748"
"1477","9762.069"
"1478","9711.537"
"1479","9666.292"
"1480","9639.215"
"1481","9638.391"
"1482","9650.735"
"1483","9657.297"
"1484","9644.993"
"1485","9623.938"
"1486","9609.98"
"1487","9613.379"
"1488","9624.813"
"1489","9630.679"
"1490","9622.879"
"1491","9610.279"
"1492","9604.996"
"1493","9612.968"
"1494","9623.53"
"1495","9623.278"
"1496","9603.697"
"1497","9567.643"
"1498","9519.636"
"1499","9468.904"
"1500","9434.139"
"1501","9434.971"
"1502","9474.063"
"1503","9524.789"
"1504","9557.92"
"1505","9561.087"
"1506","9546.773"
"1507","9529.251"
"1508","9514.676"
"1509","9499.077"
"1510","9478.088"
"1511","9453.808"
"1512","9435.172"
"1513","9430.813"
"1514","9437.447"
"1515","9441.259"
"1516","9429.199"
"1517","9404.165"
"1518","9380.744"
"1519","9372.548"
"1520","9379.884"
"1521","9395.034"
"1522","9410.634"
"1523","9423.098"
"1524","9430.694"
"1525","9431.366"
"1526","9420.985"
"1527","9394.611"
"1528","9350.87"
"1529","9305.851"
"1530","9280.999"
"1531","9290.332"
"1532","9319.695"
"1533","9348.278"
"1534","9361.734"
"1535","9364.53"
"1536","9364.511"
"1537","9366.22"
"1538","9366.826"
"1539","9362.555"
"1540","9353.961"
"1541","9349.033"
"1542","9356.245"
"1543","9373.431"
"1544","9384.365"
"1545","9372.439"
"1546","9335.339"
"1547","9285.229"
"1548","9234.886"
"1549","9196.153"
"1550","9180.151"
"1551","9196.422"
"1552","9238.499"
"1553","9290.61"
"1554","9337.693"
"1555","9370.585"
"1556","9382.647"
"1557","9369.579"
"1558","9338.619"
"1559","9300.588"
"1560","9266.231"
"1561","9246"
"1562","9250.256"
"1563","9279.242"
"1564","9308.159"
"1565","9308.566"
"1566","9269.016"
"1567","9208.05"
"1568","9147.011"
"1569","9097.293"
"1570","9057.707"
"1571","9026.646"
"1572","9010.197"
"1573","9021.403"
"1574","9071.204"
"1575","9143.205"
"1576","9203.443"
"1577","9222.356"
"1578","9204.949"
"1579","9171.64"
"1580","9141.185"
"1581","9123.973"
"1582","9127.886"
"1583","9156.264"
"1584","9198.078"
"1585","9239.457"
"1586","9268.93"
"1587","9280.084"
"1588","9267.386"
"1589","9236.841"
"1590","9210.861"
"1591","9211.845"
"1592","9234.583"
"1593","9247.26"
"1594","9220.458"
"1595","9165.74"
"1596","9121.191"
"1597","9119.081"
"1598","9147.877"
"1599","9177.471"
"1600","9184.005"
"1601","9170.853"
"1602","9148.696"
"1603","9126.459"
"1604","9108.344"
"1605","9097.818"
"1606","9101.203"
"1607","9129.659"
"1608","9194.021"
"1609","9283.046"
"1610","9361.291"
"1611","9394.548"
"1612","9381.636"
"1613","9344.658"
"1614","9305.046"
"1615","9275.65"
"1616","9265.532"
"1617","9277.904"
"1618","9291.12"
"1619","9276.949"
"1620","9226.864"
"1621","9182.142"
"1622","9191.116"
"1623","9258.649"
"1624","9322.721"
"1625","9318.787"
"1626","9250.748"
"1627","9187.641"
"1628","9193.64"
"1629","9256.425"
"1630","9319.114"
"1631","9335.027"
"1632","9317.188"
"1633","9299.102"
"1634","9303.412"
"1635","9318.889"
"1636","9327.815"
"1637","9321.458"
"1638","9307.193"
"1639","9294.031"
"1640","9289.563"
"1641","9299.872"
"1642","9329.622"
"1643","9368.403"
"1644","9396.302"
"1645","9398.294"
"1646","9388.541"
"1647","9391.674"
"1648","9422.425"
"1649","9464.669"
"1650","9496.407"
"1651","9506.178"
"1652","9500.767"
"1653","9488.589"
"1654","9473.755"
"1655","9456.13"
"1656","9436.086"
"1657","9420.781"
"1658","9421.177"
"1659","9441.374"
"1660","9451.81"
"1661","9412.729"
"1662","9311.258"
"1663","9202.812"
"1664","9152.393"
"1665","9172.575"
"1666","9203.507"
"1667","9184.511"
"1668","9122.429"
"1669","9075.84"
"1670","9092.822"
"1671","9141.66"
"1672","9157.74"
"1673","9101.876"
"1674","9020.161"
"1675","8976.016"
"1676","8992.105"
"1677","9020.943"
"1678","9010.635"
"1679","8961.484"
"1680","8921.98"
"1681","8934.46"
"1682","8975.847"
"1683","8991.146"
"1684","8944.532"
"1685","8875.215"
"1686","8840.273"
"1687","8860.978"
"1688","8890.19"
"1689","8875.045"
"1690","8808.951"
"1691","8731.162"
"1692","8679.789"
"1693","8665.724"
"1694","8686.012"
"1695","8733.368"
"1696","8784.085"
"1697","8810.535"
"1698","8801.925"
"1699","8779.082"
"1700","8765.813"
"1701","8774.377"
"1702","8806.102"
"1703","8858.843"
"1704","8906.689"
"1705","8912.49"
"1706","8856.916"
"1707","8783.151"
"1708","8747.577"
"1709","8769.86"
"1710","8809.419"
"1711","8822.439"
"1712","8804.392"
"1713","8782.512"
"1714","8779.6"
"1715","8784.834"
"1716","8774.435"
"1717","8735.588"
"1718","8685.657"
"1719","8646.947"
"1720","8633.793"
"1721","8650.31"
"1722","8698.196"
"1723","8760.069"
"1724","8806.828"
"1725","8816.734"
"1726","8801.406"
"1727","8781.558"
"1728","8767.269"
"1729","8748.179"
"1730","8712.644"
"1731","8669.353"
"1732","8645.202"
"1733","8662.188"
"1734","8705.027"
"1735","8743.197"
"1736","8756.29"
"1737","8751.961"
"1738","8742.476"
"1739","8733.529"
"1740","8722.768"
"1741","8708.117"
"1742","8694.938"
"1743","8692.736"
"1744","8705.473"
"1745","8716.216"
"1746","8703.422"
"1747","8664.442"
"1748","8626.417"
"1749","8616.928"
"1750","8634.264"
"1751","8656.087"
"1752","8664.227"
"1753","8662.51"
"1754","8661.22"
"1755","8662.974"
"1756","8655.752"
"1757","8627.139"
"1758","8586.393"
"1759","8560.812"
"1760","8572.175"
"1761","8607.93"
"1762","8643.568"
"1763","8663.029"
"1764","8668.776"
"1765","8665.523"
"1766","8654.044"
"1767","8631.485"
"1768","8596.666"
"1769","8559.67"
"1770","8534.881"
"1771","8529.916"
"1772","8536.559"
"1773","8544.517"
"1774","8547.95"
"1775","8545.304"
"1776","8536.516"
"1777","8529.885"
"1778","8536.969"
"1779","8560.02"
"1780","8579.486"
"1781","8573.962"
"1782","8549.068"
"1783","8535.985"
"1784","8560.357"
"1785","8607.863"
"1786","8649.208"
"1787","8666.544"
"1788","8667.264"
"1789","8661.258"
"1790","8642.958"
"1791","8593.292"
"1792","8502.939"
"1793","8417.656"
"1794","8401.381"
"1795","8471.395"
"1796","8554.874"
"1797","8574.2"
"1798","8534.206"
"1799","8502.186"
"1800","8525.595"
"1801","8555.769"
"1802","8518.059"
"1803","8402.996"
"1804","8305.389"
"1805","8319.463"
"1806","8428.115"
"1807","8545.51"
"1808","8605.871"
"1809","8617.089"
"1810","8602.847"
"1811","8580.103"
"1812","8557.379"
"1813","8540.23"
"1814","8515.099"
"1815","8459.47"
"1816","8374.052"
"1817","8318.486"
"1818","8357.69"
"1819","8474.875"
"1820","8577.567"
"1821","8588.541"
"1822","8527.696"
"1823","8446.896"
"1824","8383.378"
"1825","8348.466"
"1826","8349.103"
"1827","8371.627"
"1828","8389.103"
"1829","8385.913"
"1830","8386.075"
"1831","8420.849"
"1832","8481.12"
"1833","8510.426"
"1834","8463.162"
"1835","8386.131"
"1836","8364.174"
"1837","8433.051"
"1838","8524.638"
"1839","8562.078"
"1840","8533.567"
"1841","8475.459"
"1842","8421.715"
"1843","8392.342"
"1844","8403.359"
"1845","8446.283"
"1846","8481.725"
"1847","8475.438"
"1848","8444.317"
"1849","8427.248"
"1850","8441.273"
"1851","8456.753"
"1852","8441.075"
"1853","8403.406"
"1854","8383.082"
"1855","8404.651"
"1856","8436.589"
"1857","8435.848"
"1858","8396.457"
"1859","8355.208"
"1860","8344.891"
"1861","8358.87"
"1862","8375.654"
"1863","8380.101"
"1864","8368.602"
"1865","8339.449"
"1866","8298.179"
"1867","8254.659"
"1868","8218.215"
"1869","8196.423"
"1870","8195.937"
"1871","8211.311"
"1872","8226.244"
"1873","8228.819"
"1874","8228.216"
"1875","8239.174"
"1876","8266.021"
"1877","8299.466"
"1878","8329.438"
"1879","8347.026"
"1880","8343.885"
"1881","8322.504"
"1882","8305.699"
"1883","8315.79"
"1884","8346.122"
"1885","8372.902"
"1886","8377.422"
"1887","8355.237"
"1888","8305.387"
"1889","8245.667"
"1890","8209.147"
"1891","8216.506"
"1892","8240.2"
"1893","8242.621"
"1894","8220.446"
"1895","8207.599"
"1896","8231.752"
"1897","8278.519"
"1898","8320.249"
"1899","8341.226"
"1900","8342.67"
"1901","8327.327"
"1902","8299.646"
"1903","8264.874"
"1904","8234.969"
"1905","8233.963"
"1906","8281.743"
"1907","8347.964"
"1908","8375.349"
"1909","8338.052"
"1910","8282.149"
"1911","8259.23"
"1912","8266.491"
"1913","8265.145"
"1914","8235.779"
"1915","8214.828"
"1916","8244.779"
"1917","8310.526"
"1918","8351.375"
"1919","8327.695"
"1920","8274.893"
"1921","8242.346"
"1922","8243.312"
"1923","8257.769"
"1924","8267.026"
"1925","8262.65"
"1926","8239.332"
"1927","8207.415"
"1928","8193.616"
"1929","8216.2"
"1930","8251.859"
"1931","8266.302"
"1932","8247.072"
"1933","8207.04"
"1934","8161.641"
"1935","8131.834"
"1936","8139.607"
"1937","8180.345"
"1938","8216.084"
"1939","8215.444"
"1940","8194.221"
"1941","8183.515"
"1942","8193.586"
"1943","8207.092"
"1944","8209.459"
"1945","8212.633"
"1946","8237.071"
"1947","8268.254"
"1948","8243.998"
"1949","8121.206"
"1950","7987.056"
"1951","7973.027"
"1952","8101.461"
"1953","8244.949"
"1954","8287.858"
"1955","8245.876"
"1956","8180.992"
"1957","8142.905"
"1958","8164.596"
"1959","8261.468"
"1960","8358.128"
"1961","8350.304"
"1962","8227.169"
"1963","8098.428"
"1964","8059.268"
"1965","8086.985"
"1966","8121.74"
"1967","8134.859"
"1968","8135.312"
"1969","8130.349"
"1970","8108.469"
"1971","8053.885"
"1972","7986.31"
"1973","7964.566"
"1974","8024.604"
"1975","8097.287"
"1976","8089.948"
"1977","8005.794"
"1978","7942.411"
"1979","7966.861"
"1980","8019.875"
"1981","8018.02"
"1982","7962.29"
"1983","7926.094"
"1984","7956.441"
"1985","8011.567"
"1986","8036.268"
"1987","8026.504"
"1988","8015.531"
"1989","8023.098"
"1990","8032.379"
"1991","8023.07"
"1992","7999.224"
"1993","7979.602"
"1994","7974.518"
"1995","7976.452"
"1996","7975.658"
"1997","7962.335"
"1998","7926.817"
"1999","7872.35"
"2000","7823.305"
"2001","7802.126"
"2002","7806.897"
"2003","7826.138"
"2004","7837.081"
"2005","7802.573"
"2006","7706.408"
"2007","7632.735"
"2008","7688.674"
"2009","7848.53"
"2010","7956.186"
"2011","7907.774"
"2012","7792.892"
"2013","7734.302"
"2014","7751.503"
"2015","7788.126"
"2016","7802.022"
"2017","7789.519"
"2018","7754.345"
"2019","7716.591"
"2020","7704.834"
"2021","7723.005"
"2022","7733.014"
"2023","7702.743"
"2024","7661.519"
"2025","7660.203"
"2026","7700.844"
"2027","7726.983"
"2028","7699.815"
"2029","7665.342"
"2030","7686.019"
"2031","7742.762"
"2032","7748.922"
"2033","7661.496"
"2034","7556.814"
"2035","7520.893"
"2036","7546.053"
"2037","7572.793"
"2038","7572.863"
"2039","7572.196"
"2040","7592.754"
"2041","7602.883"
"2042","7553.984"
"2043","7462.342"
"2044","7416.111"
"2045","7469.295"
"2046","7543.096"
"2047","7537.915"
"2048","7465.649"
"2049","7416.9"
"2050","7439.598"
"2051","7487.891"
"2052","7509.014"
"2053","7486.825"
"2054","7421.805"
"2055","7343.175"
"2056","7317.005"
"2057","7381.686"
"2058","7454.119"
"2059","7428.461"
"2060","7321.303"
"2061","7244.392"
"2062","7258.125"
"2063","7300.532"
"2064","7302.983"
"2065","7274.563"
"2066","7258.923"
"2067","7272.748"
"2068","7297.339"
"2069","7315.977"
"2070","7329.31"
"2071","7341.884"
"2072","7352.764"
"2073","7356.92"
"2074","7348.996"
"2075","7323.188"
"2076","7275.79"
"2077","7217.486"
"2078","7164.679"
"2079","7127.642"
"2080","7109.578"
"2081","7111.339"
"2082","7127.238"
"2083","7149.315"
"2084","7159.736"
"2085","7134.805"
"2086","7076.098"
"2087","7028.201"
"2088","7028.303"
"2089","7054.377"
"2090","7066.999"
"2091","7052.394"
"2092","7019.568"
"2093","6977.22"
"2094","6931.354"
"2095","6890.732"
"2096","6887.034"
"2097","6960.254"
"2098","7082.763"
"2099","7145.615"
"2100","7080.567"
"2101","6971.495"
"2102","6923.16"
"2103","6925.193"
"2104","6899.551"
"2105","6830.222"
"2106","6799.197"
"2107","6866.349"
"2108","6956.965"
"2109","6967.559"
"2110","6913.318"
"2111","6897.743"
"2112","6949.731"
"2113","6949.984"
"2114","6800.591"
"2115","6614.719"
"2116","6568.412"
"2117","6662.17"
"2118","6739.593"
"2119","6708.074"
"2120","6634.343"
"2121","6596.487"
"2122","6600.815"
"2123","6624.626"
"2124","6635.98"
"2125","6593.674"
"2126","6493.574"
"2127","6428.725"
"2128","6487.352"
"2129","6606.481"
"2130","6659.313"
"2131","6616.734"
"2132","6558.165"
"2133","6537.392"
"2134","6520.412"
"2135","6468.194"
"2136","6421.843"
"2137","6457.13"
"2138","6557.302"
"2139","6599.067"
"2140","6509.901"
"2141","6380.017"
"2142","6315.286"
"2143","6314.709"
"2144","6327.5"
"2145","6325.429"
"2146","6306.32"
"2147","6274.342"
"2148","6247.369"
"2149","6241.694"
"2150","6243.562"
"2151","6227.039"
"2152","6205.361"
"2153","6233.993"
"2154","6329.775"
"2155","6404.339"
"2156","6371.481"
"2157","6274.911"
"2158","6209.133"
"2159","6199.545"
"2160","6203.932"
"2161","6188.924"
"2162","6147.953"
"2163","6083.666"
"2164","6030.653"
"2165","6031.495"
"2166","6066.87"
"2167","6065.53"
"2168","6003.762"
"2169","5952.581"
"2170","5973.808"
"2171","6033.949"
"2172","6073.829"
"2173","6067.707"
"2174","6013.466"
"2175","5928.616"
"2176","5860.431"
"2177","5844.873"
"2178","5866.295"
"2179","5897.447"
"2180","5914.164"
"2181","5894.58"
"2182","5839.166"
"2183","5775.463"
"2184","5727.369"
"2185","5704.139"
"2186","5709.883"
"2187","5730.703"
"2188","5746.038"
"2189","5749.868"
"2190","5749.35"
"2191","5753.345"
"2192","5773.053"
"2193","5806.306"
"2194","5788.68"
"2195","5651.445"
"2196","5484.324"
"2197","5475.416"
"2198","5638.527"
"2199","5746.407"
"2200","5653.905"
"2201","5517.341"
"2202","5516.904"
"2203","5596.15"
"2204","5602.428"
"2205","5513.892"
"2206","5429.538"
"2207","5400.206"
"2208","5374.389"
"2209","5308.321"
"2210","5243.072"
"2211","5236.528"
"2212","5281.035"
"2213","5330.312"
"2214","5349.517"
"2215","5318.515"
"2216","5242.287"
"2217","5187.854"
"2218","5214.381"
"2219","5278.4"
"2220","5304.622"
"2221","5287.217"
"2222","5271.675"
"2223","5272.355"
"2224","5254.901"
"2225","5195.718"
"2226","5118.011"
"2227","5051.521"
"2228","5006.675"
"2229","4985.876"
"2230","4995.166"
"2231","5043.254"
"2232","5098.141"
"2233","5057.851"
"2234","4869.09"
"2235","4678.104"
"2236","4650.732"
"2237","4751.553"
"2238","4852.666"
"2239","4883.621"
"2240","4828.538"
"2241","4709.366"
"2242","4613.182"
"2243","4602.645"
"2244","4622.354"
"2245","4599.812"
"2246","4548.656"
"2247","4522.505"
"2248","4540.966"
"2249","4591.223"
"2250","4629.415"
"2251","4558.488"
"2252","4337.019"
"2253","4143.738"
"2254","4170.799"
"2255","4333.754"
"2256","4429.595"
"2257","4400.573"
"2258","4315.847"
"2259","4225.914"
"2260","4143.674"
"2261","4078.217"
"2262","4037.28"
"2263","4023.548"
"2264","4008.609"
"2265","3954.378"
"2266","3863.809"
"2267","3770.695"
"2268","3699.977"
"2269","3663.164"
"2270","3658.991"
"2271","3655.426"
"2272","3615.778"
"2273","3505.729"
"2274","3302.815"
"2275","3104.271"
"2276","3073.836"
"2277","3198.557"
"2278","3270.789"
"2279","3186.396"
"2280","3068.48"
"2281","3025.991"
"2282","3010.908"
"2283","2947.18"
"2284","2827.799"
"2285","2678.469"
"2286","2550.513"
"2287","2514.577"
"2288","2569.787"
"2289","2611.729"
"2290","2569.789"
"2291","2482.433"
"2292","2397.529"
"2293","2322.892"
"2294","2253.218"
"2295","2174.264"
"2296","2068.477"
"2297","1955.519"
"2298","1890.778"
"2299","1887.221"
"2300","1883.669"
