,"Scan 00971"
"400","7613.427"
"401","7591.959"
"402","7539.962"
"403","7485.695"
"404","7457.225"
"405","7478.18"
"406","7535.679"
"407","7598.406"
"408","7635.134"
"409","7617.667"
"410","7554.531"
"411","7479.73"
"412","7427.543"
"413","7430.33"
"414","7485.866"
"415","7559.718"
"416","7616.459"
"417","7621.716"
"418","7569.218"
"419","7487.247"
"420","7406.02"
"421","7355.277"
"422","7347.131"
"423","7365.422"
"424","7391.546"
"425","7407.083"
"426","7403.198"
"427","7390.95"
"428","7383.814"
"429","7395.154"
"430","7430.732"
"431","7475.938"
"432","7512.859"
"433","7523.712"
"434","7497.765"
"435","7448.368"
"436","7393.973"
"437","7352.91"
"438","7339.064"
"439","7347.334"
"440","7367.465"
"441","7389.273"
"442","7404.126"
"443","7411.582"
"444","7413.97"
"445","7413.607"
"446","7412.273"
"447","7408.217"
"448","7398.225"
"449","7379.111"
"450","7348.446"
"451","7309.926"
"452","7270.244"
"453","7236.074"
"454","7213.196"
"455","7198.858"
"456","7185.416"
"457","7165.215"
"458","7131.677"
"459","7090.636"
"460","7056.118"
"461","7042.199"
"462","7061.452"
"463","7105.905"
"464","7152.257"
"465","7176.986"
"466","7158.257"
"467","7100.508"
"468","7030.055"
"469","6973.718"
"470","6956.942"
"471","6980.987"
"472","7024.988"
"473","7067.389"
"474","7087.502"
"475","7081.503"
"476","7062.277"
"477","7043.354"
"478","7037.737"
"479","7046.927"
"480","7060.249"
"481","7066.496"
"482","7054.913"
"483","7025.602"
"484","6990.796"
"485","6963.292"
"486","6955.435"
"487","6967.627"
"488","6986.413"
"489","6997.636"
"490","6987.525"
"491","6952.286"
"492","6900.008"
"493","6839.432"
"494","6779.123"
"495","6723.567"
"496","6672.344"
"497","6624.735"
"498","6580.028"
"499","6537.433"
"500","6496.072"
"501","6455.067"
"502","6413.531"
"503","6370.195"
"504","6323.342"
"505","6271.232"
"506","6212.299"
"507","6149.912"
"508","6093.131"
"509","6051.282"
"510","6033.255"
"511","6037.08"
"512","6048.782"
"513","6053.834"
"514","6038.285"
"515","6000.721"
"516","5952.835"
"517","5906.884"
"518","5874.626"
"519","5858.313"
"520","5850.894"
"521","5844.967"
"522","5833.481"
"523","5815.407"
"524","5795.129"
"525","5777.213"
"526","5765.844"
"527","5759.396"
"528","5751.477"
"529","5735.587"
"530","5705.899"
"531","5665.541"
"532","5624.214"
"533","5591.718"
"534","5577.07"
"535","5580.509"
"536","5596.575"
"537","5619.743"
"538","5644.424"
"539","5664.163"
"540","5672.027"
"541","5661.118"
"542","5626.101"
"543","5574.183"
"544","5518.624"
"545","5472.665"
"546","5447.723"
"547","5443.463"
"548","5454.755"
"549","5476.478"
"550","5503.186"
"551","5527.554"
"552","5541.642"
"553","5537.549"
"554","5510.71"
"555","5471.04"
"556","5432.379"
"557","5408.496"
"558","5408.057"
"559","5422.059"
"560","5437.696"
"561","5442.237"
"562","5428.15"
"563","5402.125"
"564","5373.24"
"565","5350.51"
"566","5339.932"
"567","5341.045"
"568","5352.557"
"569","5373.136"
"570","5398.26"
"571","5418.041"
"572","5422.124"
"573","5400.464"
"574","5353.479"
"575","5295.179"
"576","5240.418"
"577","5203.522"
"578","5187.971"
"579","5186.414"
"580","5191.064"
"581","5194.546"
"582","5195.107"
"583","5195.256"
"584","5197.599"
"585","5204.419"
"586","5214.937"
"587","5226.633"
"588","5236.987"
"589","5243.745"
"590","5246.375"
"591","5245.065"
"592","5240.002"
"593","5231.886"
"594","5223.809"
"595","5219.554"
"596","5222.885"
"597","5235.383"
"598","5251.648"
"599","5264.898"
"600","5268.403"
"601","5259.118"
"602","5242.154"
"603","5223.688"
"604","5209.812"
"605","5202.421"
"606","5197.003"
"607","5188.516"
"608","5172.158"
"609","5149.008"
"610","5126.412"
"611","5111.993"
"612","5112.727"
"613","5126.853"
"614","5146.213"
"615","5162.534"
"616","5168.519"
"617","5164.776"
"618","5155.799"
"619","5146.095"
"620","5139.08"
"621","5132.628"
"622","5122.86"
"623","5105.909"
"624","5080.152"
"625","5051.117"
"626","5025.749"
"627","5010.937"
"628","5009.642"
"629","5016.946"
"630","5026.993"
"631","5034.117"
"632","5039.152"
"633","5051.298"
"634","5080.282"
"635","5134.608"
"636","5202.841"
"637","5257.105"
"638","5269.125"
"639","5215.63"
"640","5116.465"
"641","5013.716"
"642","4949.51"
"643","4955.354"
"644","5010.457"
"645","5077.896"
"646","5120.877"
"647","5116.479"
"648","5081.345"
"649","5039.109"
"650","5013.156"
"651","5013.871"
"652","5029.704"
"653","5047.026"
"654","5052.655"
"655","5043.045"
"656","5024.418"
"657","5003.412"
"658","4986.549"
"659","4979.324"
"660","4986.611"
"661","5013.254"
"662","5060.911"
"663","5113.7"
"664","5149.778"
"665","5147.366"
"666","5095.987"
"667","5018.582"
"668","4944.194"
"669","4901.541"
"670","4901.905"
"671","4927.979"
"672","4959.842"
"673","4978.324"
"674","4978.424"
"675","4968.333"
"676","4956.73"
"677","4951.848"
"678","4958.218"
"679","4978.446"
"680","5015.114"
"681","5068.19"
"682","5126.25"
"683","5174.775"
"684","5199.327"
"685","5194.17"
"686","5172.999"
"687","5152.113"
"688","5147.339"
"689","5160.288"
"690","5175.602"
"691","5176.961"
"692","5149.634"
"693","5096.827"
"694","5033.242"
"695","4973.736"
"696","4931.701"
"697","4912.962"
"698","4920.869"
"699","4958.74"
"700","5022.835"
"701","5091.527"
"702","5140.448"
"703","5145.894"
"704","5107.401"
"705","5054.253"
"706","5017.623"
"707","5025.696"
"708","5071.631"
"709","5125.559"
"710","5157.262"
"711","5144.184"
"712","5102.846"
"713","5062.236"
"714","5051.234"
"715","5083.905"
"716","5139.374"
"717","5191.758"
"718","5215.842"
"719","5204.83"
"720","5173.119"
"721","5136.247"
"722","5108.764"
"723","5095.808"
"724","5097.211"
"725","5112.753"
"726","5140.82"
"727","5174.111"
"728","5203.878"
"729","5221.435"
"730","5222.879"
"731","5213.076"
"732","5197.821"
"733","5182.873"
"734","5173.524"
"735","5174.656"
"736","5191.128"
"737","5225.341"
"738","5263.74"
"739","5286.423"
"740","5273.519"
"741","5217.75"
"742","5145.901"
"743","5090.419"
"744","5082.917"
"745","5128.677"
"746","5201.17"
"747","5271.999"
"748","5315.326"
"749","5329.109"
"750","5324.36"
"751","5312.206"
"752","5301.246"
"753","5290.843"
"754","5278.258"
"755","5260.834"
"756","5240.506"
"757","5226.257"
"758","5227.66"
"759","5253.168"
"760","5297.448"
"761","5345.845"
"762","5383.539"
"763","5398.821"
"764","5393.795"
"765","5374.408"
"766","5346.602"
"767","5316.433"
"768","5290.172"
"769","5274.104"
"770","5274.062"
"771","5289.468"
"772","5314.871"
"773","5344.71"
"774","5374.054"
"775","5401.019"
"776","5424.659"
"777","5444.047"
"778","5460.29"
"779","5478.295"
"780","5503.389"
"781","5540.179"
"782","5582.652"
"783","5616.585"
"784","5627.555"
"785","5605.738"
"786","5563.505"
"787","5519.908"
"788","5493.874"
"789","5494.301"
"790","5512.126"
"791","5536.428"
"792","5556.896"
"793","5571.375"
"794","5583.586"
"795","5597.361"
"796","5615.573"
"797","5636.924"
"798","5658.997"
"799","5679.395"
"800","5696.81"
"801","5711.626"
"802","5724.38"
"803","5735.35"
"804","5742.048"
"805","5740.302"
"806","5725.917"
"807","5697.903"
"808","5666.354"
"809","5643.748"
"810","5642.259"
"811","5663.348"
"812","5695.055"
"813","5724.586"
"814","5740.683"
"815","5744.101"
"816","5741.242"
"817","5738.534"
"818","5740.345"
"819","5745.828"
"820","5753.325"
"821","5761.267"
"822","5769.865"
"823","5780.975"
"824","5796.514"
"825","5817.354"
"826","5838.926"
"827","5854.892"
"828","5858.975"
"829","5849.647"
"830","5833.561"
"831","5818.17"
"832","5810.341"
"833","5810.533"
"834","5815.226"
"835","5820.842"
"836","5825.49"
"837","5832.7"
"838","5847.09"
"839","5872.937"
"840","5905.218"
"841","5928.775"
"842","5927.944"
"843","5891.497"
"844","5834.945"
"845","5783.778"
"846","5763.35"
"847","5784.518"
"848","5831.19"
"849","5884.338"
"850","5926.12"
"851","5952.07"
"852","5966.267"
"853","5972.924"
"854","5976.053"
"855","5979.025"
"856","5985.089"
"857","5997.295"
"858","6014.046"
"859","6028.985"
"860","6035.544"
"861","6029.478"
"862","6018.829"
"863","6015.701"
"864","6032.011"
"865","6068.201"
"866","6106.56"
"867","6127.774"
"868","6115.346"
"869","6077.39"
"870","6034.756"
"871","6008.375"
"872","6012.248"
"873","6043.737"
"874","6097.762"
"875","6168.803"
"876","6244.858"
"877","6308.979"
"878","6344.093"
"879","6339.864"
"880","6310.123"
"881","6274.142"
"882","6250.7"
"883","6245.907"
"884","6252.224"
"885","6261.438"
"886","6266.481"
"887","6266.254"
"888","6261.606"
"889","6253.443"
"890","6245.87"
"891","6247.669"
"892","6268"
"893","6313.524"
"894","6372.42"
"895","6424.585"
"896","6449.987"
"897","6441.409"
"898","6416.599"
"899","6396.176"
"900","6398.692"
"901","6421.513"
"902","6449.563"
"903","6467.625"
"904","6467.245"
"905","6456.954"
"906","6447.921"
"907","6450.434"
"908","6462.537"
"909","6473.261"
"910","6471.422"
"911","6451.353"
"912","6424.797"
"913","6406.925"
"914","6412.297"
"915","6443.979"
"916","6494.812"
"917","6557.283"
"918","6621.865"
"919","6671.313"
"920","6686.52"
"921","6649.488"
"922","6569.387"
"923","6483.591"
"924","6430.784"
"925","6440.249"
"926","6498.917"
"927","6581.823"
"928","6664.218"
"929","6728.21"
"930","6763.958"
"931","6762.069"
"932","6718.259"
"933","6654.147"
"934","6599.56"
"935","6583.708"
"936","6611.948"
"937","6659.069"
"938","6697.86"
"939","6706.099"
"940","6689.2"
"941","6662.067"
"942","6639.434"
"943","6628.049"
"944","6623.832"
"945","6621.927"
"946","6618.254"
"947","6613.199"
"948","6608.76"
"949","6606.894"
"950","6607.53"
"951","6607.792"
"952","6604.589"
"953","6596.055"
"954","6587.494"
"955","6586.811"
"956","6601.699"
"957","6630.115"
"958","6656.568"
"959","6664.584"
"960","6641.699"
"961","6598.353"
"962","6553.089"
"963","6524.188"
"964","6518.399"
"965","6527.162"
"966","6540.855"
"967","6551.202"
"968","6557.127"
"969","6559.954"
"970","6561.017"
"971","6561.868"
"972","6564.332"
"973","6570.252"
"974","6580.469"
"975","6590.958"
"976","6596.218"
"977","6590.898"
"978","6574.035"
"979","6549.574"
"980","6521.729"
"981","6495.557"
"982","6479.735"
"983","6483.9"
"984","6516.931"
"985","6570.55"
"986","6619.606"
"987","6638.217"
"988","6611.617"
"989","6565.045"
"990","6532.757"
"991","6547.057"
"992","6606.643"
"993","6682.015"
"994","6742.793"
"995","6768.405"
"996","6767.277"
"997","6753.168"
"998","6739.266"
"999","6731.327"
"1000","6729.958"
"1001","6735.658"
"1002","6747.912"
"1003","6763.812"
"1004","6780.103"
"1005","6793.527"
"1006","6800.992"
"1007","6800.523"
"1008","6790.605"
"1009","6769.798"
"1010","6740.696"
"1011","6711.66"
"1012","6691.502"
"1013","6687.102"
"1014","6694.789"
"1015","6707.33"
"1016","6717.711"
"1017","6726.048"
"1018","6740.833"
"1019","6771.045"
"1020","6821.696"
"1021","6881.064"
"1022","6932.997"
"1023","6961.938"
"1024","6964.459"
"1025","6948.378"
"1026","6921.934"
"1027","6893.465"
"1028","6871.601"
"1029","6865.029"
"1030","6881.535"
"1031","6917"
"1032","6958.952"
"1033","6994.758"
"1034","7016.57"
"1035","7027.403"
"1036","7031.774"
"1037","7033.846"
"1038","7034.697"
"1039","7033.843"
"1040","7030.809"
"1041","7026.124"
"1042","7021.945"
"1043","7020.567"
"1044","7023.305"
"1045","7025.981"
"1046","7022.533"
"1047","7007.204"
"1048","6982.964"
"1049","6962.352"
"1050","6958.396"
"1051","6979.486"
"1052","7017.606"
"1053","7061.115"
"1054","7098.781"
"1055","7125.006"
"1056","7138.284"
"1057","7137.214"
"1058","7124.011"
"1059","7108.793"
"1060","7102.728"
"1061","7114.557"
"1062","7134.708"
"1063","7145.293"
"1064","7128.815"
"1065","7086.897"
"1066","7046.882"
"1067","7037.938"
"1068","7078.933"
"1069","7145.215"
"1070","7200.641"
"1071","7211.272"
"1072","7179.076"
"1073","7135.049"
"1074","7110.998"
"1075","7124.292"
"1076","7158.63"
"1077","7192.896"
"1078","7208.739"
"1079","7208.87"
"1080","7205.703"
"1081","7211.458"
"1082","7228.297"
"1083","7245.349"
"1084","7250.863"
"1085","7237.508"
"1086","7214.918"
"1087","7196.802"
"1088","7195.567"
"1089","7206.391"
"1090","7212.246"
"1091","7195.953"
"1092","7154.086"
"1093","7109.746"
"1094","7089.067"
"1095","7111.669"
"1096","7159.316"
"1097","7200.15"
"1098","7203.583"
"1099","7168.309"
"1100","7121.885"
"1101","7093.092"
"1102","7098.817"
"1103","7124.26"
"1104","7149.384"
"1105","7156.32"
"1106","7144.787"
"1107","7122.996"
"1108","7099.236"
"1109","7082.361"
"1110","7081.926"
"1111","7107.54"
"1112","7161.728"
"1113","7222.965"
"1114","7264.626"
"1115","7263.015"
"1116","7224.839"
"1117","7174.668"
"1118","7137.081"
"1119","7123.916"
"1120","7128.187"
"1121","7141.384"
"1122","7155.148"
"1123","7161.732"
"1124","7153.53"
"1125","7124.524"
"1126","7087.498"
"1127","7067.513"
"1128","7089.495"
"1129","7154.275"
"1130","7224.284"
"1131","7258.493"
"1132","7228.93"
"1133","7161.983"
"1134","7098.18"
"1135","7074.809"
"1136","7089.532"
"1137","7113.648"
"1138","7118.281"
"1139","7094.884"
"1140","7066.993"
"1141","7060.994"
"1142","7092.84"
"1143","7136.951"
"1144","7157.405"
"1145","7122.78"
"1146","7051.752"
"1147","6994.155"
"1148","6999.521"
"1149","7077.799"
"1150","7182.162"
"1151","7261.368"
"1152","7279.399"
"1153","7252.992"
"1154","7210.285"
"1155","7177.458"
"1156","7162.645"
"1157","7164.379"
"1158","7181.014"
"1159","7207.911"
"1160","7236.842"
"1161","7259.37"
"1162","7271.197"
"1163","7279.384"
"1164","7292.941"
"1165","7318.824"
"1166","7350.063"
"1167","7373.909"
"1168","7378.069"
"1169","7360.19"
"1170","7327.084"
"1171","7285.919"
"1172","7244.606"
"1173","7212.535"
"1174","7199.283"
"1175","7211.148"
"1176","7239.082"
"1177","7269.553"
"1178","7289.949"
"1179","7298.621"
"1180","7301.082"
"1181","7302.893"
"1182","7306.201"
"1183","7308.473"
"1184","7306.834"
"1185","7300.109"
"1186","7292.145"
"1187","7287.719"
"1188","7290.617"
"1189","7297.881"
"1190","7303.736"
"1191","7302.986"
"1192","7301.187"
"1193","7313.238"
"1194","7354.213"
"1195","7425.674"
"1196","7505.377"
"1197","7568.631"
"1198","7596.696"
"1199","7593.235"
"1200","7567.184"
"1201","7527.895"
"1202","7488.163"
"1203","7462.524"
"1204","7464.873"
"1205","7493.899"
"1206","7533.145"
"1207","7565.543"
"1208","7581.717"
"1209","7587.351"
"1210","7589.881"
"1211","7595.173"
"1212","7602.714"
"1213","7610.372"
"1214","7615.703"
"1215","7613.494"
"1216","7597.104"
"1217","7560.59"
"1218","7513.968"
"1219","7483.056"
"1220","7494.162"
"1221","7552.672"
"1222","7624.873"
"1223","7672.74"
"1224","7670.321"
"1225","7636.258"
"1226","7599.489"
"1227","7585.492"
"1228","7593.483"
"1229","7610.691"
"1230","7624.807"
"1231","7632.824"
"1232","7639.629"
"1233","7650.309"
"1234","7666.777"
"1235","7686.084"
"1236","7704.859"
"1237","7719.305"
"1238","7724.423"
"1239","7714.987"
"1240","7688.982"
"1241","7662.066"
"1242","7655.982"
"1243","7689.753"
"1244","7751.903"
"1245","7811.797"
"1246","7839.313"
"1247","7826.971"
"1248","7792.163"
"1249","7753.53"
"1250","7725"
"1251","7711.451"
"1252","7716.741"
"1253","7740.931"
"1254","7770.951"
"1255","7790.886"
"1256","7788.656"
"1257","7776.788"
"1258","7777.498"
"1259","7810.712"
"1260","7867.065"
"1261","7917.253"
"1262","7932.394"
"1263","7907.942"
"1264","7867.047"
"1265","7834.307"
"1266","7826.109"
"1267","7843.234"
"1268","7884.711"
"1269","7945.163"
"1270","8004.846"
"1271","8041.088"
"1272","8035.707"
"1273","7996.136"
"1274","7938.859"
"1275","7880.161"
"1276","7833.872"
"1277","7812.399"
"1278","7827.17"
"1279","7869.46"
"1280","7911.521"
"1281","7925.214"
"1282","7902.942"
"1283","7867.849"
"1284","7845.581"
"1285","7851.879"
"1286","7878.698"
"1287","7914.493"
"1288","7947.662"
"1289","7966.396"
"1290","7958.827"
"1291","7917.044"
"1292","7858.911"
"1293","7812.619"
"1294","7804.339"
"1295","7837.149"
"1296","7899.686"
"1297","7979.991"
"1298","8058.545"
"1299","8108.652"
"1300","8103.89"
"1301","8046.315"
"1302","7978.691"
"1303","7946.813"
"1304","7972.222"
"1305","8024.125"
"1306","8064.886"
"1307","8068.273"
"1308","8045.859"
"1309","8017.039"
"1310","7997.705"
"1311","7985.701"
"1312","7973.114"
"1313","7953.615"
"1314","7933.597"
"1315","7925.553"
"1316","7940.789"
"1317","7974.58"
"1318","8011.011"
"1319","8034.427"
"1320","8040.68"
"1321","8037.07"
"1322","8031.374"
"1323","8030.294"
"1324","8039.016"
"1325","8062.561"
"1326","8098.165"
"1327","8127.569"
"1328","8130.684"
"1329","8097.958"
"1330","8049.762"
"1331","8011.758"
"1332","8003.011"
"1333","8015.612"
"1334","8034.78"
"1335","8047.411"
"1336","8050.272"
"1337","8043.707"
"1338","8029.088"
"1339","8016.462"
"1340","8020.231"
"1341","8053.175"
"1342","8107.25"
"1343","8160.261"
"1344","8190.576"
"1345","8193.096"
"1346","8177.676"
"1347","8154.509"
"1348","8126.91"
"1349","8089.976"
"1350","8038.485"
"1351","7977.175"
"1352","7926.354"
"1353","7907.598"
"1354","7927.324"
"1355","7960.939"
"1356","7980.058"
"1357","7968.316"
"1358","7941.629"
"1359","7921.281"
"1360","7920.834"
"1361","7926.631"
"1362","7919.012"
"1363","7885.136"
"1364","7843.524"
"1365","7821.729"
"1366","7841.065"
"1367","7885.536"
"1368","7925.311"
"1369","7933.757"
"1370","7909.339"
"1371","7862.259"
"1372","7803.114"
"1373","7745.73"
"1374","7705.817"
"1375","7697.582"
"1376","7714.618"
"1377","7735.81"
"1378","7740.885"
"1379","7730.541"
"1380","7723.621"
"1381","7738.779"
"1382","7775.027"
"1383","7810.997"
"1384","7824.852"
"1385","7812.042"
"1386","7789.342"
"1387","7774.644"
"1388","7774.363"
"1389","7778.194"
"1390","7774.624"
"1391","7762.939"
"1392","7760.941"
"1393","7788.131"
"1394","7846.503"
"1395","7902.994"
"1396","7920.413"
"1397","7884.026"
"1398","7831.308"
"1399","7807.134"
"1400","7834.839"
"1401","7879.839"
"1402","7897.915"
"1403","7864.353"
"1404","7814.63"
"1405","7795.82"
"1406","7838.577"
"1407","7915.818"
"1408","7987.768"
"1409","8022.308"
"1410","8017.868"
"1411","7980.446"
"1412","7920.152"
"1413","7865.32"
"1414","7849.374"
"1415","7894.016"
"1416","7963.027"
"1417","8002.332"
"1418","7970.439"
"1419","7894.425"
"1420","7824.544"
"1421","7803.197"
"1422","7826.033"
"1423","7871.546"
"1424","7919.836"
"1425","7961.538"
"1426","7991.439"
"1427","8004.585"
"1428","7997.813"
"1429","7968.7"
"1430","7918.25"
"1431","7872.333"
"1432","7867.832"
"1433","7933.81"
"1434","8039.072"
"1435","8124.58"
"1436","8139.666"
"1437","8101.758"
"1438","8060.825"
"1439","8061.11"
"1440","8097.927"
"1441","8142.598"
"1442","8169.032"
"1443","8174.33"
"1444","8167.146"
"1445","8156.167"
"1446","8149.602"
"1447","8155.415"
"1448","8179.371"
"1449","8208.61"
"1450","8220.904"
"1451","8196.843"
"1452","8141.229"
"1453","8070.925"
"1454","8002.506"
"1455","7949.365"
"1456","7923.354"
"1457","7933.377"
"1458","7965.051"
"1459","7992.894"
"1460","7995.019"
"1461","7977.58"
"1462","7959.611"
"1463","7956.295"
"1464","7954.377"
"1465","7928.101"
"1466","7858.058"
"1467","7768.545"
"1468","7702.095"
"1469","7692.792"
"1470","7720.506"
"1471","7743.866"
"1472","7727.666"
"1473","7673.425"
"1474","7596.031"
"1475","7510.897"
"1476","7436.079"
"1477","7390.534"
"1478","7386.788"
"1479","7405.812"
"1480","7418.903"
"1481","7403.37"
"1482","7363.164"
"1483","7309.595"
"1484","7255.672"
"1485","7221.037"
"1486","7226.986"
"1487","7283.062"
"1488","7357.655"
"1489","7410.139"
"1490","7412.557"
"1491","7375.974"
"1492","7318.931"
"1493","7258.9"
"1494","7210.419"
"1495","7187.511"
"1496","7193.771"
"1497","7208.479"
"1498","7207.542"
"1499","7180.346"
"1500","7143.374"
"1501","7116.241"
"1502","7107.823"
"1503","7108.465"
"1504","7106.838"
"1505","7100.419"
"1506","7099.671"
"1507","7115.703"
"1508","7145.162"
"1509","7166.606"
"1510","7158.438"
"1511","7124.882"
"1512","7097.418"
"1513","7106.975"
"1514","7149.404"
"1515","7189.548"
"1516","7193.66"
"1517","7162.985"
"1518","7124.441"
"1519","7103.523"
"1520","7104.109"
"1521","7117.05"
"1522","7132.638"
"1523","7138.079"
"1524","7119.071"
"1525","7066.751"
"1526","7006.746"
"1527","6978.141"
"1528","7008.178"
"1529","7065.818"
"1530","7102.177"
"1531","7085.025"
"1532","7045.233"
"1533","7028.579"
"1534","7058.746"
"1535","7095.214"
"1536","7085.988"
"1537","7011.778"
"1538","6926.296"
"1539","6892.719"
"1540","6936.642"
"1541","7019.094"
"1542","7095.079"
"1543","7134.666"
"1544","7127.865"
"1545","7067.141"
"1546","6970.894"
"1547","6883.852"
"1548","6849.142"
"1549","6867.39"
"1550","6906.376"
"1551","6935.346"
"1552","6947.351"
"1553","6949.275"
"1554","6948.208"
"1555","6951.445"
"1556","6966.373"
"1557","6996.025"
"1558","7021.873"
"1559","7018.685"
"1560","6972.594"
"1561","6909.547"
"1562","6864.184"
"1563","6856.56"
"1564","6870.63"
"1565","6884.958"
"1566","6888.294"
"1567","6887.365"
"1568","6890.595"
"1569","6901.225"
"1570","6915.938"
"1571","6930.949"
"1572","6941.706"
"1573","6942.956"
"1574","6930.403"
"1575","6911.211"
"1576","6899.896"
"1577","6908.115"
"1578","6925.549"
"1579","6932.085"
"1580","6912.729"
"1581","6877.366"
"1582","6843.363"
"1583","6826.015"
"1584","6834.036"
"1585","6874.753"
"1586","6940.611"
"1587","6992.735"
"1588","6989.087"
"1589","6928.07"
"1590","6865.552"
"1591","6859.216"
"1592","6910.189"
"1593","6965.109"
"1594","6972.749"
"1595","6933.304"
"1596","6880.25"
"1597","6844.153"
"1598","6831.218"
"1599","6837.327"
"1600","6858.145"
"1601","6888.593"
"1602","6923.381"
"1603","6956.561"
"1604","6980.434"
"1605","6987.084"
"1606","6974.798"
"1607","6952.42"
"1608","6929.884"
"1609","6918.835"
"1610","6932.776"
"1611","6982.945"
"1612","7049.384"
"1613","7090.109"
"1614","7071.236"
"1615","7021.378"
"1616","6996.817"
"1617","7035.914"
"1618","7099.966"
"1619","7129.783"
"1620","7092.99"
"1621","7025.033"
"1622","6971.573"
"1623","6956.281"
"1624","6968.967"
"1625","6996.732"
"1626","7030.572"
"1627","7065.187"
"1628","7095.558"
"1629","7118.132"
"1630","7130.191"
"1631","7130.89"
"1632","7129.58"
"1633","7139.129"
"1634","7165.484"
"1635","7193.06"
"1636","7202.23"
"1637","7187.14"
"1638","7166.637"
"1639","7161.669"
"1640","7180.077"
"1641","7215.767"
"1642","7261.374"
"1643","7303.087"
"1644","7323.022"
"1645","7309.175"
"1646","7283.966"
"1647","7282.15"
"1648","7319.697"
"1649","7354.034"
"1650","7331.755"
"1651","7246.864"
"1652","7175.32"
"1653","7197.43"
"1654","7305.192"
"1655","7403.197"
"1656","7403.128"
"1657","7322.973"
"1658","7240.458"
"1659","7215.425"
"1660","7217.022"
"1661","7186.885"
"1662","7097.591"
"1663","7000.341"
"1664","6957.738"
"1665","6988.892"
"1666","7052.82"
"1667","7105.642"
"1668","7126.622"
"1669","7112.733"
"1670","7063.815"
"1671","6995.944"
"1672","6931.893"
"1673","6889.663"
"1674","6871.157"
"1675","6874.833"
"1676","6891.423"
"1677","6898.385"
"1678","6873.201"
"1679","6820.929"
"1680","6772.074"
"1681","6753.303"
"1682","6751.821"
"1683","6735.584"
"1684","6684.161"
"1685","6622.609"
"1686","6586.826"
"1687","6591.437"
"1688","6610.434"
"1689","6614.072"
"1690","6592.487"
"1691","6555.512"
"1692","6513.426"
"1693","6473.016"
"1694","6439.29"
"1695","6415.141"
"1696","6395.198"
"1697","6372.11"
"1698","6344.017"
"1699","6319.377"
"1700","6307.539"
"1701","6312.286"
"1702","6332.127"
"1703","6363.458"
"1704","6387.769"
"1705","6379.5"
"1706","6325.946"
"1707","6259.47"
"1708","6222.001"
"1709","6233.144"
"1710","6275.832"
"1711","6329.442"
"1712","6371.329"
"1713","6377.211"
"1714","6330.091"
"1715","6259.026"
"1716","6210.821"
"1717","6210.897"
"1718","6225.89"
"1719","6213.369"
"1720","6167.422"
"1721","6128.919"
"1722","6137.75"
"1723","6189.063"
"1724","6250.551"
"1725","6292.677"
"1726","6300.093"
"1727","6261.496"
"1728","6185.482"
"1729","6118.895"
"1730","6110.267"
"1731","6156.103"
"1732","6206.249"
"1733","6216.606"
"1734","6194.911"
"1735","6170.076"
"1736","6160.811"
"1737","6157.471"
"1738","6145.923"
"1739","6124.362"
"1740","6106.089"
"1741","6103.742"
"1742","6114.51"
"1743","6126.978"
"1744","6132.206"
"1745","6130.929"
"1746","6126.099"
"1747","6117.927"
"1748","6102.311"
"1749","6076.083"
"1750","6053.378"
"1751","6060.524"
"1752","6112.281"
"1753","6167.265"
"1754","6167.733"
"1755","6094.667"
"1756","6003.182"
"1757","5954.026"
"1758","5959.997"
"1759","5994"
"1760","6029.9"
"1761","6054.046"
"1762","6057.152"
"1763","6037.347"
"1764","6008.941"
"1765","5987.863"
"1766","5979.106"
"1767","5977.565"
"1768","5978.491"
"1769","5981.774"
"1770","5989.073"
"1771","6000.455"
"1772","6012.264"
"1773","6020.593"
"1774","6027.68"
"1775","6041.681"
"1776","6067.494"
"1777","6087.675"
"1778","6076.071"
"1779","6024.251"
"1780","5965.307"
"1781","5937.198"
"1782","5954.141"
"1783","6007.897"
"1784","6085.684"
"1785","6152.652"
"1786","6165.737"
"1787","6108.561"
"1788","6023.365"
"1789","5958.051"
"1790","5920.208"
"1791","5882.244"
"1792","5825.019"
"1793","5781.504"
"1794","5801.894"
"1795","5898.037"
"1796","6007.729"
"1797","6064.275"
"1798","6060.75"
"1799","6035.509"
"1800","6019.211"
"1801","6002.752"
"1802","5966.241"
"1803","5912.224"
"1804","5879.143"
"1805","5903.033"
"1806","5957.397"
"1807","5977.105"
"1808","5925.223"
"1809","5864.932"
"1810","5879.056"
"1811","5971.538"
"1812","6047.547"
"1813","6020.983"
"1814","5924.153"
"1815","5844.942"
"1816","5839.501"
"1817","5882.446"
"1818","5936.285"
"1819","5976.957"
"1820","5992.838"
"1821","5976"
"1822","5935.766"
"1823","5887.16"
"1824","5843.532"
"1825","5815.235"
"1826","5810.731"
"1827","5819.792"
"1828","5820.149"
"1829","5796.245"
"1830","5756.274"
"1831","5713.543"
"1832","5681.037"
"1833","5671.371"
"1834","5694.357"
"1835","5740.813"
"1836","5793.664"
"1837","5833.299"
"1838","5834.892"
"1839","5776.842"
"1840","5693.19"
"1841","5659.224"
"1842","5722.572"
"1843","5819.911"
"1844","5862.774"
"1845","5828.776"
"1846","5778.934"
"1847","5770.533"
"1848","5795.67"
"1849","5818.347"
"1850","5817.25"
"1851","5802.579"
"1852","5787.824"
"1853","5776.041"
"1854","5762.754"
"1855","5746.813"
"1856","5739.701"
"1857","5755.285"
"1858","5792.467"
"1859","5832.895"
"1860","5858.134"
"1861","5855.41"
"1862","5814.259"
"1863","5743.75"
"1864","5688.167"
"1865","5690.445"
"1866","5739.479"
"1867","5791.917"
"1868","5813.895"
"1869","5799.794"
"1870","5750.065"
"1871","5686.782"
"1872","5651.424"
"1873","5672.642"
"1874","5719.271"
"1875","5744.346"
"1876","5729.175"
"1877","5692.087"
"1878","5653.254"
"1879","5628.083"
"1880","5629.944"
"1881","5660.87"
"1882","5701.643"
"1883","5732.032"
"1884","5746.199"
"1885","5746.808"
"1886","5737.201"
"1887","5722.211"
"1888","5706.776"
"1889","5693.344"
"1890","5682.327"
"1891","5673.035"
"1892","5660.868"
"1893","5640.959"
"1894","5626.141"
"1895","5648.457"
"1896","5727.448"
"1897","5813.217"
"1898","5834.677"
"1899","5777.554"
"1900","5708.022"
"1901","5686.726"
"1902","5692.711"
"1903","5670.892"
"1904","5605.085"
"1905","5549.712"
"1906","5559.224"
"1907","5618.837"
"1908","5676.589"
"1909","5697.1"
"1910","5683.549"
"1911","5645.354"
"1912","5602.967"
"1913","5584.153"
"1914","5599.788"
"1915","5613.28"
"1916","5583.482"
"1917","5527.585"
"1918","5508.952"
"1919","5561.648"
"1920","5617.115"
"1921","5590.272"
"1922","5498.015"
"1923","5451.159"
"1924","5523.457"
"1925","5628.527"
"1926","5644.852"
"1927","5561.01"
"1928","5480.693"
"1929","5482.695"
"1930","5508.973"
"1931","5466.161"
"1932","5356.102"
"1933","5290.988"
"1934","5356.963"
"1935","5478.738"
"1936","5533.244"
"1937","5488.038"
"1938","5424.309"
"1939","5415.588"
"1940","5454.498"
"1941","5506.777"
"1942","5545.232"
"1943","5552.083"
"1944","5516.53"
"1945","5463.707"
"1946","5430.905"
"1947","5433.523"
"1948","5457.063"
"1949","5487.381"
"1950","5524.914"
"1951","5574.806"
"1952","5620.39"
"1953","5615.122"
"1954","5526.726"
"1955","5417.365"
"1956","5380.922"
"1957","5429.41"
"1958","5464.583"
"1959","5405.208"
"1960","5307.999"
"1961","5274.848"
"1962","5321.699"
"1963","5353.617"
"1964","5295.689"
"1965","5215.654"
"1966","5224.587"
"1967","5338.891"
"1968","5460.718"
"1969","5503.708"
"1970","5469.326"
"1971","5385.626"
"1972","5299.249"
"1973","5277.291"
"1974","5357.2"
"1975","5446.863"
"1976","5425.832"
"1977","5307.349"
"1978","5236.263"
"1979","5308.715"
"1980","5422.249"
"1981","5436.719"
"1982","5350.369"
"1983","5280.166"
"1984","5302.781"
"1985","5358.545"
"1986","5366.887"
"1987","5321.823"
"1988","5271.773"
"1989","5252.375"
"1990","5263.418"
"1991","5296.903"
"1992","5321.605"
"1993","5292.46"
"1994","5204.903"
"1995","5138.085"
"1996","5168.123"
"1997","5260.447"
"1998","5327.021"
"1999","5318.539"
"2000","5249.86"
"2001","5148.426"
"2002","5082.002"
"2003","5131.138"
"2004","5273.664"
"2005","5355.914"
"2006","5265.846"
"2007","5122.809"
"2008","5105.148"
"2009","5224.325"
"2010","5327.918"
"2011","5303.474"
"2012","5195.826"
"2013","5080.328"
"2014","4999.441"
"2015","4971.437"
"2016","4996.043"
"2017","5030.012"
"2018","5029.929"
"2019","5009.416"
"2020","5012.251"
"2021","5053.648"
"2022","5099.724"
"2023","5115.66"
"2024","5090.534"
"2025","5022.87"
"2026","4929.392"
"2027","4848.58"
"2028","4817.2"
"2029","4859.458"
"2030","4992.051"
"2031","5157.123"
"2032","5235.056"
"2033","5168.186"
"2034","5065.569"
"2035","5049.038"
"2036","5102.223"
"2037","5132.359"
"2038","5096.085"
"2039","5035.611"
"2040","4995.716"
"2041","4987.187"
"2042","5008.118"
"2043","5040.813"
"2044","5050.096"
"2045","5013.935"
"2046","4959.56"
"2047","4923.479"
"2048","4921.363"
"2049","4954.042"
"2050","5003.924"
"2051","5015.327"
"2052","4941.733"
"2053","4837.632"
"2054","4799.82"
"2055","4858.679"
"2056","4958.853"
"2057","5041.426"
"2058","5056.711"
"2059","4963.474"
"2060","4816.387"
"2061","4744.589"
"2062","4804.704"
"2063","4884.328"
"2064","4868.594"
"2065","4801.094"
"2066","4794.925"
"2067","4867.336"
"2068","4910.219"
"2069","4843.164"
"2070","4729.362"
"2071","4662.55"
"2072","4663.52"
"2073","4698.684"
"2074","4737.109"
"2075","4756.361"
"2076","4741.683"
"2077","4722.777"
"2078","4745.883"
"2079","4806.105"
"2080","4839.688"
"2081","4804.993"
"2082","4745.021"
"2083","4715.612"
"2084","4718.759"
"2085","4723.09"
"2086","4709.68"
"2087","4681.631"
"2088","4645.747"
"2089","4616.685"
"2090","4610.865"
"2091","4630.297"
"2092","4664.207"
"2093","4703.557"
"2094","4744.677"
"2095","4782.448"
"2096","4795.473"
"2097","4756.373"
"2098","4683.239"
"2099","4648.836"
"2100","4690.758"
"2101","4718.515"
"2102","4631.343"
"2103","4502.369"
"2104","4506.257"
"2105","4673.067"
"2106","4805.611"
"2107","4749.226"
"2108","4623.429"
"2109","4610.192"
"2110","4706.591"
"2111","4771.675"
"2112","4727.367"
"2113","4623.761"
"2114","4520.673"
"2115","4450.213"
"2116","4433.722"
"2117","4464.456"
"2118","4510.558"
"2119","4546.566"
"2120","4563.875"
"2121","4557.578"
"2122","4531.773"
"2123","4494.473"
"2124","4460.626"
"2125","4452.207"
"2126","4473.18"
"2127","4479.987"
"2128","4433.774"
"2129","4386.535"
"2130","4427.077"
"2131","4541.483"
"2132","4601.943"
"2133","4535.188"
"2134","4437.525"
"2135","4415.549"
"2136","4424.237"
"2137","4351.336"
"2138","4207.56"
"2139","4145.356"
"2140","4253.495"
"2141","4415.425"
"2142","4494.629"
"2143","4487.94"
"2144","4454.182"
"2145","4421.071"
"2146","4380.45"
"2147","4336.991"
"2148","4336.417"
"2149","4417.701"
"2150","4515.141"
"2151","4519.269"
"2152","4423.85"
"2153","4334.17"
"2154","4320.442"
"2155","4347.487"
"2156","4365.206"
"2157","4337"
"2158","4234.761"
"2159","4096.639"
"2160","4025.27"
"2161","4075.673"
"2162","4187.806"
"2163","4290.885"
"2164","4345.741"
"2165","4327.274"
"2166","4259.921"
"2167","4209.667"
"2168","4205.605"
"2169","4203.163"
"2170","4162.297"
"2171","4104.549"
"2172","4067.719"
"2173","4063.783"
"2174","4086.518"
"2175","4118.521"
"2176","4125.604"
"2177","4088.372"
"2178","4047.418"
"2179","4050.633"
"2180","4083.381"
"2181","4097.896"
"2182","4087.9"
"2183","4097.828"
"2184","4146.517"
"2185","4174.428"
"2186","4123.531"
"2187","4035.608"
"2188","3989.688"
"2189","3993.575"
"2190","3990.697"
"2191","3950.454"
"2192","3897.956"
"2193","3860.037"
"2194","3841.385"
"2195","3840.445"
"2196","3856.33"
"2197","3888.129"
"2198","3915.38"
"2199","3890.927"
"2200","3799.025"
"2201","3724.609"
"2202","3751.758"
"2203","3821.868"
"2204","3819.881"
"2205","3742.289"
"2206","3688.439"
"2207","3704.302"
"2208","3724.686"
"2209","3694.406"
"2210","3657.482"
"2211","3677.651"
"2212","3742.722"
"2213","3796.072"
"2214","3805.052"
"2215","3767.147"
"2216","3699.69"
"2217","3666.034"
"2218","3715.997"
"2219","3778.902"
"2220","3750.197"
"2221","3657.588"
"2222","3625.83"
"2223","3682.574"
"2224","3705.815"
"2225","3609.338"
"2226","3459.522"
"2227","3347.718"
"2228","3327.96"
"2229","3433.356"
"2230","3604.735"
"2231","3703.97"
"2232","3677.394"
"2233","3621.279"
"2234","3613.343"
"2235","3611.141"
"2236","3555.885"
"2237","3472.497"
"2238","3422.883"
"2239","3414.064"
"2240","3401.851"
"2241","3368.892"
"2242","3350.419"
"2243","3370.627"
"2244","3391.314"
"2245","3369.348"
"2246","3340.374"
"2247","3373.757"
"2248","3448.462"
"2249","3459.366"
"2250","3371.742"
"2251","3282.975"
"2252","3269.501"
"2253","3282.287"
"2254","3255.822"
"2255","3214"
"2256","3218.556"
"2257","3275.941"
"2258","3344.03"
"2259","3368.502"
"2260","3277.997"
"2261","3051.641"
"2262","2834.488"
"2263","2777.904"
"2264","2856.96"
"2265","2977.618"
"2266","3064.687"
"2267","3058.566"
"2268","2960.117"
"2269","2853.569"
"2270","2800.393"
"2271","2786.157"
"2272","2778.55"
"2273","2716.636"
"2274","2544.771"
"2275","2364.32"
"2276","2364.493"
"2277","2521.134"
"2278","2575.149"
"2279","2427.776"
"2280","2325.027"
"2281","2442.065"
"2282","2528.855"
"2283","2300.85"
"2284","1971.271"
"2285","1951.73"
"2286","2219.047"
"2287","2399.895"
"2288","2335.822"
"2289","2192.105"
"2290","2104.373"
"2291","2065.429"
"2292","2043.627"
"2293","1999.562"
"2294","1900.577"
"2295","1802.635"
"2296","1805.193"
"2297","1876.012"
"2298","1855.489"
"2299","1684.605"
"2300","1483.303"
