,"Scan 00974"
"400","9123.165"
"401","9112.824"
"402","9089.412"
"403","9064.668"
"404","9050.251"
"405","9055.78"
"406","9074.068"
"407","9089.438"
"408","9086.269"
"409","9050.648"
"410","8989.582"
"411","8924.593"
"412","8877.337"
"413","8868.388"
"414","8899.076"
"415","8952.816"
"416","9012.444"
"417","9061.203"
"418","9092.22"
"419","9110.765"
"420","9122.82"
"421","9134.257"
"422","9146.493"
"423","9153.796"
"424","9149.82"
"425","9128.299"
"426","9088.143"
"427","9039.038"
"428","8991.961"
"429","8957.8"
"430","8943.772"
"431","8947.311"
"432","8964.233"
"433","8990.391"
"434","9021.028"
"435","9049.244"
"436","9067.706"
"437","9069.136"
"438","9048.741"
"439","9012.476"
"440","8969.182"
"441","8927.644"
"442","8895.623"
"443","8875.54"
"444","8867.994"
"445","8873.582"
"446","8892.13"
"447","8918.245"
"448","8944.422"
"449","8963.187"
"450","8968.063"
"451","8960.392"
"452","8945.348"
"453","8928.095"
"454","8913.249"
"455","8900.162"
"456","8885.168"
"457","8864.587"
"458","8835.274"
"459","8800.235"
"460","8766.537"
"461","8741.271"
"462","8730.75"
"463","8730.639"
"464","8728.658"
"465","8712.417"
"466","8670.646"
"467","8610.019"
"468","8552.128"
"469","8518.893"
"470","8530.813"
"471","8582.808"
"472","8646.413"
"473","8692.464"
"474","8693.122"
"475","8646.776"
"476","8577.81"
"477","8511.578"
"478","8472.604"
"479","8467.754"
"480","8485.205"
"481","8512.296"
"482","8536.616"
"483","8550.716"
"484","8552.672"
"485","8540.864"
"486","8513.896"
"487","8476.97"
"488","8442.96"
"489","8425.094"
"490","8436.004"
"491","8471.215"
"492","8505.87"
"493","8514.057"
"494","8470.742"
"495","8375.267"
"496","8256.378"
"497","8144.411"
"498","8068.924"
"499","8038.983"
"500","8039.015"
"501","8052.053"
"502","8061.477"
"503","8058.491"
"504","8043.578"
"505","8017.758"
"506","7982.069"
"507","7938.239"
"508","7888.793"
"509","7836.285"
"510","7783.264"
"511","7732.442"
"512","7686.722"
"513","7648.995"
"514","7621.96"
"515","7603.705"
"516","7587.495"
"517","7566.407"
"518","7533.87"
"519","7490.364"
"520","7443.275"
"521","7400.226"
"522","7368.491"
"523","7349.26"
"524","7338.235"
"525","7330.946"
"526","7322.999"
"527","7310.864"
"528","7291.726"
"529","7262.803"
"530","7221.891"
"531","7174.678"
"532","7132.652"
"533","7107.365"
"534","7109.009"
"535","7132.269"
"536","7161.772"
"537","7182.052"
"538","7179.282"
"539","7155.011"
"540","7119.498"
"541","7083.041"
"542","7054.905"
"543","7036.294"
"544","7024.507"
"545","7016.823"
"546","7010.884"
"547","7006.646"
"548","7005.007"
"549","7006.867"
"550","7012.077"
"551","7014.803"
"552","7007.31"
"553","6981.905"
"554","6934.703"
"555","6878.43"
"556","6830.299"
"557","6807.439"
"558","6820.547"
"559","6858.065"
"560","6903.643"
"561","6941.02"
"562","6959.721"
"563","6965.061"
"564","6965.013"
"565","6967.489"
"566","6976.568"
"567","6988.1"
"568","6996.894"
"569","6997.807"
"570","6987.968"
"571","6968.287"
"572","6940.034"
"573","6904.483"
"574","6863.309"
"575","6818.708"
"576","6772.9"
"577","6728.213"
"578","6689.654"
"579","6664.902"
"580","6661.719"
"581","6687.027"
"582","6735.78"
"583","6793.875"
"584","6847.037"
"585","6882.29"
"586","6898.823"
"587","6902.709"
"588","6900.073"
"589","6896.217"
"590","6891.047"
"591","6882.26"
"592","6867.547"
"593","6845.67"
"594","6820.324"
"595","6796.627"
"596","6779.675"
"597","6772.776"
"598","6773.545"
"599","6778.462"
"600","6784.028"
"601","6787.707"
"602","6789.074"
"603","6787.989"
"604","6784.319"
"605","6778.108"
"606","6769.679"
"607","6759.376"
"608","6747.567"
"609","6735.245"
"610","6724.071"
"611","6715.733"
"612","6711.824"
"613","6712.663"
"614","6717.646"
"615","6726.146"
"616","6737.553"
"617","6751.356"
"618","6767.091"
"619","6784.306"
"620","6801.85"
"621","6815.066"
"622","6818.174"
"623","6805.422"
"624","6773.844"
"625","6729.358"
"626","6679.639"
"627","6632.318"
"628","6593.143"
"629","6564.091"
"630","6546.681"
"631","6542.324"
"632","6548.481"
"633","6557.515"
"634","6561.483"
"635","6553.075"
"636","6535.212"
"637","6519.248"
"638","6516.752"
"639","6537.581"
"640","6576.86"
"641","6622.124"
"642","6660.876"
"643","6682.591"
"644","6686.318"
"645","6674.082"
"646","6647.902"
"647","6611.71"
"648","6574.951"
"649","6548.02"
"650","6541.177"
"651","6556.647"
"652","6583.105"
"653","6607.949"
"654","6618.982"
"655","6612.804"
"656","6594.91"
"657","6571.182"
"658","6547.408"
"659","6528.594"
"660","6519.268"
"661","6523.939"
"662","6545.183"
"663","6574.999"
"664","6601.782"
"665","6613.963"
"666","6604.996"
"667","6583.165"
"668","6559.473"
"669","6544.816"
"670","6544.739"
"671","6556.013"
"672","6574.606"
"673","6596.429"
"674","6616.01"
"675","6626.594"
"676","6621.396"
"677","6594.926"
"678","6553.03"
"679","6507.419"
"680","6469.831"
"681","6449.76"
"682","6447.035"
"683","6458.837"
"684","6482.354"
"685","6513.176"
"686","6543.317"
"687","6564.318"
"688","6568.049"
"689","6556.172"
"690","6542.05"
"691","6539.707"
"692","6561.729"
"693","6604.523"
"694","6654.114"
"695","6696.392"
"696","6719.36"
"697","6722.007"
"698","6706.903"
"699","6676.621"
"700","6635.641"
"701","6593.285"
"702","6559.604"
"703","6544.411"
"704","6548.942"
"705","6563.462"
"706","6577.546"
"707","6581.582"
"708","6575.538"
"709","6565.682"
"710","6558.379"
"711","6558.344"
"712","6561.866"
"713","6562.548"
"714","6554.025"
"715","6534.755"
"716","6514.609"
"717","6505.082"
"718","6517.304"
"719","6552.041"
"720","6598.147"
"721","6643.834"
"722","6678.112"
"723","6697.542"
"724","6702.947"
"725","6695.188"
"726","6675.871"
"727","6649.637"
"728","6621.902"
"729","6598.056"
"730","6582.495"
"731","6577.782"
"732","6586.29"
"733","6609.987"
"734","6643.733"
"735","6676.208"
"736","6695.911"
"737","6693.724"
"738","6675.984"
"739","6655.187"
"740","6643.811"
"741","6649.199"
"742","6664.811"
"743","6681.785"
"744","6691.426"
"745","6690.074"
"746","6680.142"
"747","6664.409"
"748","6645.799"
"749","6628.695"
"750","6618.27"
"751","6619.698"
"752","6635.658"
"753","6659.718"
"754","6683.368"
"755","6698.208"
"756","6701.493"
"757","6699.15"
"758","6697.833"
"759","6703.726"
"760","6717.28"
"761","6735.054"
"762","6753.544"
"763","6769.871"
"764","6783.921"
"765","6796.359"
"766","6807.844"
"767","6818.829"
"768","6829.401"
"769","6839.61"
"770","6849.465"
"771","6858.397"
"772","6865.392"
"773","6869.427"
"774","6869.967"
"775","6868.827"
"776","6868.541"
"777","6871.629"
"778","6879.253"
"779","6890.027"
"780","6902.291"
"781","6914.589"
"782","6928.551"
"783","6948.188"
"784","6977.573"
"785","7018.232"
"786","7059.431"
"787","7086.737"
"788","7085.876"
"789","7055.29"
"790","7016.215"
"791","6992.236"
"792","7004.843"
"793","7047.398"
"794","7093.045"
"795","7114.5"
"796","7092.857"
"797","7045.15"
"798","6998.065"
"799","6977.982"
"800","6994.055"
"801","7028.473"
"802","7061.093"
"803","7073.619"
"804","7067.593"
"805","7056.665"
"806","7054.644"
"807","7070.109"
"808","7093.572"
"809","7111.645"
"810","7111.279"
"811","7091.22"
"812","7064.994"
"813","7047.049"
"814","7050.074"
"815","7073.053"
"816","7108.516"
"817","7148.961"
"818","7186.444"
"819","7211.879"
"820","7216.009"
"821","7190.337"
"822","7141.389"
"823","7089.536"
"824","7055.659"
"825","7055.991"
"826","7082.521"
"827","7119.338"
"828","7150.623"
"829","7167.304"
"830","7171.914"
"831","7168.13"
"832","7159.848"
"833","7153.355"
"834","7156.424"
"835","7176.846"
"836","7217.016"
"837","7261.964"
"838","7293.228"
"839","7292.918"
"840","7258.396"
"841","7203.663"
"842","7143.555"
"843","7092.23"
"844","7059.784"
"845","7054.795"
"846","7085.739"
"847","7150.674"
"848","7228.299"
"849","7295.209"
"850","7329.863"
"851","7331.963"
"852","7314.757"
"853","7291.714"
"854","7272.986"
"855","7258.281"
"856","7245.259"
"857","7231.652"
"858","7217.107"
"859","7203.225"
"860","7191.688"
"861","7184.432"
"862","7184.69"
"863","7196.131"
"864","7222.332"
"865","7261.293"
"866","7302.201"
"867","7333.458"
"868","7344.883"
"869","7338.607"
"870","7323.137"
"871","7307.029"
"872","7297.354"
"873","7297.642"
"874","7310.892"
"875","7339.58"
"876","7378.402"
"877","7416.116"
"878","7441.332"
"879","7447.053"
"880","7442.072"
"881","7438.728"
"882","7448.992"
"883","7475.237"
"884","7509.509"
"885","7543.342"
"886","7569.286"
"887","7585.191"
"888","7590.637"
"889","7585.3"
"890","7573.987"
"891","7569.028"
"892","7583.352"
"893","7626.979"
"894","7688.395"
"895","7746.429"
"896","7779.964"
"897","7779.563"
"898","7758.513"
"899","7732.717"
"900","7716.853"
"901","7712.929"
"902","7715.528"
"903","7719.145"
"904","7720.627"
"905","7722.749"
"906","7729.208"
"907","7743.1"
"908","7759.2"
"909","7766.163"
"910","7752.498"
"911","7713.988"
"912","7669.368"
"913","7641.894"
"914","7653.5"
"915","7701.222"
"916","7759.941"
"917","7803.773"
"918","7812.888"
"919","7790.742"
"920","7746.374"
"921","7688.941"
"922","7630.58"
"923","7586.504"
"924","7572.079"
"925","7598.008"
"926","7654.034"
"927","7724.005"
"928","7791.907"
"929","7845.919"
"930","7879.157"
"931","7885.006"
"932","7860.26"
"933","7818.982"
"934","7780.708"
"935","7764.574"
"936","7774.271"
"937","7793.695"
"938","7805.449"
"939","7795.97"
"940","7772.939"
"941","7751.337"
"942","7745.877"
"943","7759.564"
"944","7779.502"
"945","7791.668"
"946","7784.82"
"947","7763.895"
"948","7739.644"
"949","7722.701"
"950","7717.822"
"951","7721.591"
"952","7729.99"
"953","7739.405"
"954","7748.637"
"955","7757.357"
"956","7765.245"
"957","7772.299"
"958","7778.943"
"959","7785.646"
"960","7792.557"
"961","7798.072"
"962","7799.961"
"963","7796.025"
"964","7785.393"
"965","7768.949"
"966","7747.707"
"967","7723.328"
"968","7700.989"
"969","7687.025"
"970","7687.592"
"971","7702.254"
"972","7722.405"
"973","7738.931"
"974","7744.323"
"975","7738.895"
"976","7725.321"
"977","7706.39"
"978","7687.704"
"979","7678.039"
"980","7686.341"
"981","7717.235"
"982","7756.97"
"983","7786.905"
"984","7789.196"
"985","7763.975"
"986","7729.071"
"987","7703.068"
"988","7698.553"
"989","7706.524"
"990","7713.113"
"991","7705.339"
"992","7685.496"
"993","7668.697"
"994","7670.448"
"995","7699.302"
"996","7743.234"
"997","7786.434"
"998","7814.124"
"999","7824.858"
"1000","7826.432"
"1001","7826.829"
"1002","7831.66"
"1003","7840.958"
"1004","7853.937"
"1005","7869.822"
"1006","7887.06"
"1007","7898.907"
"1008","7896.477"
"1009","7871.084"
"1010","7824.417"
"1011","7773.047"
"1012","7734.703"
"1013","7723.602"
"1014","7734.789"
"1015","7756.827"
"1016","7778.543"
"1017","7797.239"
"1018","7820.185"
"1019","7855.222"
"1020","7905.917"
"1021","7957.777"
"1022","7991.533"
"1023","7988.977"
"1024","7953.4"
"1025","7908.031"
"1026","7876.855"
"1027","7876.603"
"1028","7901.125"
"1029","7939.779"
"1030","7982.109"
"1031","8020.138"
"1032","8047.641"
"1033","8058.44"
"1034","8050.299"
"1035","8029.93"
"1036","8005.285"
"1037","7984.317"
"1038","7974.925"
"1039","7984.974"
"1040","8022.144"
"1041","8081.112"
"1042","8135.787"
"1043","8158.195"
"1044","8127.95"
"1045","8066.854"
"1046","8011.285"
"1047","7996.563"
"1048","8028.185"
"1049","8078.956"
"1050","8119.991"
"1051","8131.209"
"1052","8123.623"
"1053","8115.11"
"1054","8122.296"
"1055","8144.438"
"1056","8168.198"
"1057","8179.98"
"1058","8173.354"
"1059","8157.566"
"1060","8143.948"
"1061","8142.301"
"1062","8150.951"
"1063","8162.993"
"1064","8171.631"
"1065","8175.792"
"1066","8182.095"
"1067","8197.712"
"1068","8225.749"
"1069","8252.156"
"1070","8258.353"
"1071","8227.472"
"1072","8170.514"
"1073","8121.006"
"1074","8113.077"
"1075","8161.163"
"1076","8233.753"
"1077","8292.773"
"1078","8305.778"
"1079","8283.402"
"1080","8256.107"
"1081","8253.903"
"1082","8284.021"
"1083","8324.141"
"1084","8349.959"
"1085","8343.475"
"1086","8310.894"
"1087","8264.226"
"1088","8215.387"
"1089","8174.992"
"1090","8152.736"
"1091","8158.222"
"1092","8191.698"
"1093","8235.378"
"1094","8269.413"
"1095","8277.256"
"1096","8261.606"
"1097","8232.082"
"1098","8198.151"
"1099","8165.624"
"1100","8136.695"
"1101","8113.417"
"1102","8097.708"
"1103","8091.145"
"1104","8095.255"
"1105","8110.627"
"1106","8130.307"
"1107","8143.693"
"1108","8140.482"
"1109","8122.302"
"1110","8105.793"
"1111","8108.567"
"1112","8139.994"
"1113","8181.472"
"1114","8208.46"
"1115","8199.098"
"1116","8159.271"
"1117","8111.169"
"1118","8077"
"1119","8067.941"
"1120","8078.866"
"1121","8103.327"
"1122","8133.974"
"1123","8159.89"
"1124","8169.276"
"1125","8151.793"
"1126","8114.524"
"1127","8075.919"
"1128","8054.443"
"1129","8055.377"
"1130","8062.998"
"1131","8059.691"
"1132","8034.068"
"1133","8000.665"
"1134","7980.755"
"1135","7993.6"
"1136","8033.866"
"1137","8079.844"
"1138","8109.723"
"1139","8114.459"
"1140","8105.173"
"1141","8094.77"
"1142","8093.738"
"1143","8102.924"
"1144","8120.779"
"1145","8145.26"
"1146","8168.874"
"1147","8180.734"
"1148","8170.132"
"1149","8138.058"
"1150","8102.274"
"1151","8081.847"
"1152","8090.063"
"1153","8120.168"
"1154","8161.075"
"1155","8201.842"
"1156","8232.961"
"1157","8245.673"
"1158","8231.684"
"1159","8197.543"
"1160","8167.605"
"1161","8167.274"
"1162","8207.696"
"1163","8260.831"
"1164","8291.955"
"1165","8273.111"
"1166","8222.375"
"1167","8176.959"
"1168","8172.241"
"1169","8205.206"
"1170","8237.371"
"1171","8229.078"
"1172","8165.854"
"1173","8083.854"
"1174","8025.316"
"1175","8022.37"
"1176","8059.785"
"1177","8108.508"
"1178","8141.53"
"1179","8156.335"
"1180","8166.398"
"1181","8185.269"
"1182","8217.208"
"1183","8253.759"
"1184","8285.534"
"1185","8304.566"
"1186","8307.103"
"1187","8290.16"
"1188","8252.586"
"1189","8205.695"
"1190","8166.011"
"1191","8149.51"
"1192","8161.798"
"1193","8199.474"
"1194","8258.733"
"1195","8327.27"
"1196","8377.79"
"1197","8381.459"
"1198","8322.874"
"1199","8237.223"
"1200","8171.597"
"1201","8167.167"
"1202","8214.799"
"1203","8280.091"
"1204","8329.361"
"1205","8350.309"
"1206","8351.932"
"1207","8344.135"
"1208","8333.705"
"1209","8321.321"
"1210","8306.958"
"1211","8290.767"
"1212","8273.674"
"1213","8256.789"
"1214","8241.63"
"1215","8233.236"
"1216","8238.466"
"1217","8263.586"
"1218","8301.002"
"1219","8329.421"
"1220","8327.107"
"1221","8289.173"
"1222","8242.226"
"1223","8216.345"
"1224","8231.972"
"1225","8273.944"
"1226","8318.882"
"1227","8345.281"
"1228","8345.953"
"1229","8320.231"
"1230","8268.57"
"1231","8210.101"
"1232","8179.805"
"1233","8212.642"
"1234","8311.074"
"1235","8427.616"
"1236","8510.517"
"1237","8528.198"
"1238","8506.787"
"1239","8482.672"
"1240","8485.352"
"1241","8506.181"
"1242","8523.422"
"1243","8517.314"
"1244","8490.531"
"1245","8459.825"
"1246","8441.736"
"1247","8440.81"
"1248","8448.396"
"1249","8455.217"
"1250","8457.178"
"1251","8460.129"
"1252","8471.054"
"1253","8492.721"
"1254","8513.336"
"1255","8517.944"
"1256","8495.278"
"1257","8457.667"
"1258","8426.744"
"1259","8422.354"
"1260","8441.416"
"1261","8465.26"
"1262","8475.451"
"1263","8469.997"
"1264","8465.62"
"1265","8479.969"
"1266","8519.718"
"1267","8570.686"
"1268","8616.35"
"1269","8641.729"
"1270","8636.902"
"1271","8592.965"
"1272","8506.942"
"1273","8409.599"
"1274","8343.646"
"1275","8346.949"
"1276","8407.165"
"1277","8482.394"
"1278","8531.668"
"1279","8541.77"
"1280","8525.694"
"1281","8497.388"
"1282","8466.38"
"1283","8435.577"
"1284","8407.35"
"1285","8383.555"
"1286","8364.833"
"1287","8351.643"
"1288","8345.185"
"1289","8349.582"
"1290","8369.673"
"1291","8408.242"
"1292","8454.674"
"1293","8492.979"
"1294","8508.638"
"1295","8503.726"
"1296","8490.714"
"1297","8482.029"
"1298","8485.502"
"1299","8504.601"
"1300","8542.405"
"1301","8591.71"
"1302","8630.6"
"1303","8636.092"
"1304","8599.683"
"1305","8544.129"
"1306","8496.275"
"1307","8475.979"
"1308","8479.913"
"1309","8499.954"
"1310","8527.227"
"1311","8549.02"
"1312","8551.392"
"1313","8523.269"
"1314","8476.546"
"1315","8434.148"
"1316","8417.382"
"1317","8425.57"
"1318","8442.688"
"1319","8452.907"
"1320","8452.31"
"1321","8448.836"
"1322","8450.793"
"1323","8459.418"
"1324","8465.999"
"1325","8461.12"
"1326","8441.363"
"1327","8415.248"
"1328","8392.715"
"1329","8380.865"
"1330","8378.725"
"1331","8383.894"
"1332","8393.88"
"1333","8405.778"
"1334","8416.588"
"1335","8423.263"
"1336","8422.563"
"1337","8411.166"
"1338","8387.321"
"1339","8362.473"
"1340","8354.698"
"1341","8380.179"
"1342","8430.626"
"1343","8481.122"
"1344","8507.426"
"1345","8505.086"
"1346","8487.545"
"1347","8468.607"
"1348","8452.332"
"1349","8431.145"
"1350","8396.956"
"1351","8352.32"
"1352","8316.407"
"1353","8309.753"
"1354","8338.281"
"1355","8378.012"
"1356","8401.301"
"1357","8390.898"
"1358","8357.459"
"1359","8316.277"
"1360","8279.438"
"1361","8247.727"
"1362","8219.432"
"1363","8194.699"
"1364","8182.167"
"1365","8192.919"
"1366","8233.854"
"1367","8286.828"
"1368","8324.416"
"1369","8323.419"
"1370","8293.737"
"1371","8260.758"
"1372","8247.771"
"1373","8255.698"
"1374","8272.443"
"1375","8286.023"
"1376","8288.276"
"1377","8273.762"
"1378","8237.884"
"1379","8190.133"
"1380","8152.175"
"1381","8145.184"
"1382","8167.813"
"1383","8195.35"
"1384","8202.63"
"1385","8187.197"
"1386","8174.61"
"1387","8191.666"
"1388","8238.26"
"1389","8275.044"
"1390","8259.932"
"1391","8183.151"
"1392","8090.334"
"1393","8032.415"
"1394","8036.798"
"1395","8083.759"
"1396","8147.943"
"1397","8206.751"
"1398","8243.987"
"1399","8244.375"
"1400","8202.027"
"1401","8136.305"
"1402","8070.768"
"1403","8024.829"
"1404","8005.024"
"1405","8015.429"
"1406","8055.853"
"1407","8111.142"
"1408","8162.838"
"1409","8195.173"
"1410","8203.077"
"1411","8184.131"
"1412","8141.117"
"1413","8099.897"
"1414","8092.78"
"1415","8140.738"
"1416","8208.759"
"1417","8244.565"
"1418","8208.643"
"1419","8130.984"
"1420","8065.079"
"1421","8054.9"
"1422","8087.795"
"1423","8130.331"
"1424","8154.714"
"1425","8169.583"
"1426","8197.933"
"1427","8257.265"
"1428","8327.098"
"1429","8371.015"
"1430","8360.059"
"1431","8320.063"
"1432","8301.104"
"1433","8344.671"
"1434","8425.58"
"1435","8487.861"
"1436","8483.909"
"1437","8434.348"
"1438","8392.405"
"1439","8404.381"
"1440","8457.725"
"1441","8511.035"
"1442","8527.488"
"1443","8510.479"
"1444","8483.449"
"1445","8467.827"
"1446","8466.646"
"1447","8473.693"
"1448","8483.152"
"1449","8493.097"
"1450","8503.554"
"1451","8513.59"
"1452","8514.063"
"1453","8491.752"
"1454","8436.534"
"1455","8363.994"
"1456","8302.293"
"1457","8276.288"
"1458","8283.875"
"1459","8310.115"
"1460","8340.214"
"1461","8361.29"
"1462","8361.317"
"1463","8330.578"
"1464","8276.021"
"1465","8211.93"
"1466","8150.914"
"1467","8093.916"
"1468","8037.009"
"1469","7978.569"
"1470","7931.659"
"1471","7915.099"
"1472","7941.019"
"1473","7982.046"
"1474","7996.408"
"1475","7951.841"
"1476","7867.632"
"1477","7780.364"
"1478","7722.468"
"1479","7705.792"
"1480","7735.903"
"1481","7809.86"
"1482","7887.192"
"1483","7917.014"
"1484","7867.028"
"1485","7778.406"
"1486","7710.485"
"1487","7703.847"
"1488","7733.339"
"1489","7759.425"
"1490","7754.791"
"1491","7729.739"
"1492","7701.781"
"1493","7682.293"
"1494","7666.164"
"1495","7645.558"
"1496","7618.386"
"1497","7595.92"
"1498","7591.265"
"1499","7607.168"
"1500","7625.56"
"1501","7626.04"
"1502","7603.28"
"1503","7577.944"
"1504","7573.022"
"1505","7597.028"
"1506","7637.146"
"1507","7678.94"
"1508","7711.554"
"1509","7728.646"
"1510","7724.522"
"1511","7703.109"
"1512","7678.49"
"1513","7664.597"
"1514","7663.225"
"1515","7665.442"
"1516","7662.503"
"1517","7653.48"
"1518","7643.188"
"1519","7635.991"
"1520","7630.104"
"1521","7620.027"
"1522","7601.397"
"1523","7579.57"
"1524","7564.65"
"1525","7564.032"
"1526","7567.758"
"1527","7559.094"
"1528","7526.991"
"1529","7488.334"
"1530","7468.563"
"1531","7485.136"
"1532","7525.261"
"1533","7568.991"
"1534","7599.105"
"1535","7606.375"
"1536","7583.032"
"1537","7530.744"
"1538","7472.196"
"1539","7432.809"
"1540","7426.979"
"1541","7450.152"
"1542","7495.805"
"1543","7553.027"
"1544","7605.134"
"1545","7635.461"
"1546","7637.673"
"1547","7615.913"
"1548","7575.255"
"1549","7527.53"
"1550","7489.793"
"1551","7477.09"
"1552","7482.536"
"1553","7486.488"
"1554","7472.906"
"1555","7452.304"
"1556","7446.584"
"1557","7469.948"
"1558","7498.102"
"1559","7494.81"
"1560","7438.82"
"1561","7361.382"
"1562","7305.224"
"1563","7297.629"
"1564","7327.646"
"1565","7378.486"
"1566","7433.181"
"1567","7474.44"
"1568","7485.275"
"1569","7461.64"
"1570","7415.863"
"1571","7361.225"
"1572","7308.74"
"1573","7267.389"
"1574","7245.629"
"1575","7246.652"
"1576","7270.274"
"1577","7314.072"
"1578","7359.637"
"1579","7381.421"
"1580","7361.603"
"1581","7319.728"
"1582","7286.572"
"1583","7283.296"
"1584","7300.552"
"1585","7322.954"
"1586","7336.21"
"1587","7328.349"
"1588","7288.142"
"1589","7226.769"
"1590","7187.226"
"1591","7212.578"
"1592","7294.099"
"1593","7373.167"
"1594","7393.933"
"1595","7357.363"
"1596","7301.193"
"1597","7259.818"
"1598","7239.86"
"1599","7236.17"
"1600","7243.607"
"1601","7257.302"
"1602","7272.453"
"1603","7285.526"
"1604","7296.391"
"1605","7305.454"
"1606","7311.315"
"1607","7309.512"
"1608","7295.771"
"1609","7279.317"
"1610","7284.161"
"1611","7331.756"
"1612","7399.637"
"1613","7434.359"
"1614","7392.244"
"1615","7305.803"
"1616","7241.262"
"1617","7249.281"
"1618","7313.298"
"1619","7398.848"
"1620","7474.824"
"1621","7518.687"
"1622","7509.564"
"1623","7448.398"
"1624","7369.679"
"1625","7310.016"
"1626","7289.36"
"1627","7311.808"
"1628","7377.599"
"1629","7454.181"
"1630","7489.867"
"1631","7446.192"
"1632","7359.208"
"1633","7290.567"
"1634","7282.127"
"1635","7314.029"
"1636","7354.561"
"1637","7383.963"
"1638","7403.925"
"1639","7418.333"
"1640","7429.856"
"1641","7439.881"
"1642","7449.435"
"1643","7456.271"
"1644","7456.076"
"1645","7446.919"
"1646","7440.833"
"1647","7454.858"
"1648","7496.093"
"1649","7540.667"
"1650","7558.901"
"1651","7540.444"
"1652","7508.349"
"1653","7488.147"
"1654","7485.521"
"1655","7486.507"
"1656","7477.97"
"1657","7463.121"
"1658","7454.355"
"1659","7459.475"
"1660","7463.379"
"1661","7444.024"
"1662","7396.548"
"1663","7359.678"
"1664","7378.06"
"1665","7453.135"
"1666","7526.675"
"1667","7539.947"
"1668","7492.768"
"1669","7429.793"
"1670","7390.977"
"1671","7376.611"
"1672","7370.658"
"1673","7362.115"
"1674","7356.95"
"1675","7364.519"
"1676","7381"
"1677","7379.901"
"1678","7334.274"
"1679","7253.628"
"1680","7181.134"
"1681","7154.963"
"1682","7161.772"
"1683","7163.089"
"1684","7131.608"
"1685","7083.976"
"1686","7047.381"
"1687","7037.955"
"1688","7050.7"
"1689","7077.995"
"1690","7107.059"
"1691","7119.988"
"1692","7101.453"
"1693","7060.352"
"1694","7017.941"
"1695","6988.737"
"1696","6960.369"
"1697","6914.023"
"1698","6848.313"
"1699","6794.586"
"1700","6786.375"
"1701","6826.182"
"1702","6887.097"
"1703","6942.516"
"1704","6977.706"
"1705","6983.508"
"1706","6957.548"
"1707","6920.995"
"1708","6899.976"
"1709","6905.255"
"1710","6922.384"
"1711","6934.833"
"1712","6930.752"
"1713","6902.074"
"1714","6845.17"
"1715","6783.521"
"1716","6751.064"
"1717","6762.746"
"1718","6781.41"
"1719","6762.162"
"1720","6704.668"
"1721","6665.665"
"1722","6698.852"
"1723","6783.288"
"1724","6852.22"
"1725","6855.065"
"1726","6815.713"
"1727","6778.418"
"1728","6769.144"
"1729","6778.648"
"1730","6794.148"
"1731","6811.816"
"1732","6835.857"
"1733","6867.414"
"1734","6885.372"
"1735","6859.514"
"1736","6781.934"
"1737","6706.247"
"1738","6694.979"
"1739","6753.265"
"1740","6815.913"
"1741","6821.13"
"1742","6782.009"
"1743","6753.355"
"1744","6772.156"
"1745","6806.911"
"1746","6810.628"
"1747","6770.671"
"1748","6728.615"
"1749","6727.352"
"1750","6763.544"
"1751","6801.297"
"1752","6812.17"
"1753","6806.546"
"1754","6806.166"
"1755","6815.667"
"1756","6806.96"
"1757","6751.023"
"1758","6666.218"
"1759","6610.34"
"1760","6629.166"
"1761","6693.648"
"1762","6748.709"
"1763","6760.401"
"1764","6741.106"
"1765","6709.118"
"1766","6678.422"
"1767","6659.015"
"1768","6657.548"
"1769","6660.737"
"1770","6647.706"
"1771","6611.811"
"1772","6579.728"
"1773","6581.667"
"1774","6620.544"
"1775","6672.965"
"1776","6715.106"
"1777","6727.511"
"1778","6692.488"
"1779","6614.352"
"1780","6548.88"
"1781","6556.319"
"1782","6634.467"
"1783","6722.064"
"1784","6763.804"
"1785","6755.253"
"1786","6711.074"
"1787","6649.991"
"1788","6599.498"
"1789","6587.009"
"1790","6616.125"
"1791","6669.661"
"1792","6727.577"
"1793","6758.399"
"1794","6727.052"
"1795","6634.123"
"1796","6549.002"
"1797","6543.732"
"1798","6612.122"
"1799","6688.716"
"1800","6718.473"
"1801","6700.134"
"1802","6647.582"
"1803","6582.497"
"1804","6538.973"
"1805","6547.945"
"1806","6592.59"
"1807","6626.596"
"1808","6620.405"
"1809","6604.372"
"1810","6620.861"
"1811","6674.885"
"1812","6724.67"
"1813","6731.642"
"1814","6705.873"
"1815","6680.259"
"1816","6673.152"
"1817","6665.581"
"1818","6634.555"
"1819","6593.896"
"1820","6591.543"
"1821","6660.406"
"1822","6746.433"
"1823","6767.342"
"1824","6695.216"
"1825","6598.054"
"1826","6548.097"
"1827","6551.51"
"1828","6571.944"
"1829","6580.504"
"1830","6576.447"
"1831","6565.021"
"1832","6550.773"
"1833","6537.428"
"1834","6529.553"
"1835","6537.64"
"1836","6574.567"
"1837","6637.654"
"1838","6691.426"
"1839","6698.582"
"1840","6656.048"
"1841","6586.102"
"1842","6513.229"
"1843","6467.932"
"1844","6481.194"
"1845","6545.804"
"1846","6606.373"
"1847","6613.978"
"1848","6588.298"
"1849","6578.525"
"1850","6607.075"
"1851","6639.122"
"1852","6635.553"
"1853","6599.704"
"1854","6565.554"
"1855","6559.112"
"1856","6574.86"
"1857","6600.005"
"1858","6617.565"
"1859","6605.729"
"1860","6550.538"
"1861","6487.895"
"1862","6472.233"
"1863","6520.966"
"1864","6584.517"
"1865","6610.646"
"1866","6594.214"
"1867","6558.173"
"1868","6520.5"
"1869","6483.961"
"1870","6449.209"
"1871","6426.891"
"1872","6436.62"
"1873","6487.817"
"1874","6543.547"
"1875","6555.124"
"1876","6516.935"
"1877","6479.735"
"1878","6488.403"
"1879","6521.729"
"1880","6531.473"
"1881","6502.899"
"1882","6484.336"
"1883","6523.976"
"1884","6595.378"
"1885","6627.973"
"1886","6586.982"
"1887","6534.671"
"1888","6544.465"
"1889","6608.557"
"1890","6653.041"
"1891","6622.874"
"1892","6541.302"
"1893","6449.673"
"1894","6382.377"
"1895","6366.233"
"1896","6415.643"
"1897","6482.938"
"1898","6501.456"
"1899","6453.138"
"1900","6388.762"
"1901","6358.366"
"1902","6369.823"
"1903","6413.112"
"1904","6470.758"
"1905","6511.963"
"1906","6508.332"
"1907","6467.157"
"1908","6414.929"
"1909","6375.87"
"1910","6368.505"
"1911","6407.234"
"1912","6465.597"
"1913","6490.08"
"1914","6454.231"
"1915","6408.47"
"1916","6412.161"
"1917","6454.911"
"1918","6471.122"
"1919","6420.937"
"1920","6356.049"
"1921","6344.345"
"1922","6391.911"
"1923","6447.911"
"1924","6470.926"
"1925","6465.277"
"1926","6446.277"
"1927","6423.01"
"1928","6398.053"
"1929","6374.641"
"1930","6360.279"
"1931","6363.417"
"1932","6384.281"
"1933","6413.581"
"1934","6441.25"
"1935","6456.241"
"1936","6447.299"
"1937","6408.069"
"1938","6338.336"
"1939","6246.544"
"1940","6185.299"
"1941","6220.324"
"1942","6344.475"
"1943","6454.178"
"1944","6463.318"
"1945","6423.125"
"1946","6431.281"
"1947","6507.917"
"1948","6567.357"
"1949","6534.482"
"1950","6439.96"
"1951","6351.445"
"1952","6297.784"
"1953","6254.499"
"1954","6200.487"
"1955","6156.252"
"1956","6156.405"
"1957","6205.811"
"1958","6269.27"
"1959","6314.228"
"1960","6338.813"
"1961","6351.318"
"1962","6346.88"
"1963","6303.683"
"1964","6210.609"
"1965","6117.841"
"1966","6093.616"
"1967","6144.441"
"1968","6202.338"
"1969","6212.133"
"1970","6200.962"
"1971","6218.667"
"1972","6269.172"
"1973","6305.764"
"1974","6293.318"
"1975","6256.804"
"1976","6235.402"
"1977","6231.256"
"1978","6210.06"
"1979","6153.414"
"1980","6106.58"
"1981","6125.798"
"1982","6202.505"
"1983","6272.544"
"1984","6291.147"
"1985","6279.091"
"1986","6268.4"
"1987","6272.125"
"1988","6289.462"
"1989","6312.874"
"1990","6318.575"
"1991","6283.518"
"1992","6220.44"
"1993","6163.664"
"1994","6132.942"
"1995","6117.326"
"1996","6104.947"
"1997","6107.304"
"1998","6146.879"
"1999","6216.193"
"2000","6258.61"
"2001","6225.167"
"2002","6143.072"
"2003","6068.006"
"2004","6034.795"
"2005","6051.457"
"2006","6112.932"
"2007","6162.436"
"2008","6131.592"
"2009","6027.142"
"2010","5929.592"
"2011","5900.038"
"2012","5923.877"
"2013","5970.833"
"2014","6012.166"
"2015","6020.297"
"2016","5988.239"
"2017","5958.207"
"2018","5972.582"
"2019","6008.595"
"2020","6009.129"
"2021","5959.161"
"2022","5915.809"
"2023","5924.218"
"2024","5914.073"
"2025","5775.993"
"2026","5539.749"
"2027","5401.831"
"2028","5504.414"
"2029","5731.538"
"2030","5909.608"
"2031","5986.132"
"2032","6008.998"
"2033","6019.718"
"2034","6035"
"2035","6064.595"
"2036","6089.161"
"2037","6073.49"
"2038","6011.855"
"2039","5948.98"
"2040","5923.761"
"2041","5912.443"
"2042","5870.692"
"2043","5807.076"
"2044","5788.763"
"2045","5850.073"
"2046","5899.706"
"2047","5830.155"
"2048","5685.837"
"2049","5618.314"
"2050","5697.283"
"2051","5814.613"
"2052","5856.522"
"2053","5832.331"
"2054","5804.122"
"2055","5806.04"
"2056","5835.935"
"2057","5883.518"
"2058","5915.517"
"2059","5896.248"
"2060","5843.002"
"2061","5814.203"
"2062","5834.465"
"2063","5849.237"
"2064","5803.038"
"2065","5716.346"
"2066","5643.414"
"2067","5609.71"
"2068","5602.94"
"2069","5610.337"
"2070","5627.376"
"2071","5652.675"
"2072","5700.817"
"2073","5798.061"
"2074","5929.126"
"2075","5990.919"
"2076","5894.739"
"2077","5723.667"
"2078","5627.713"
"2079","5652.584"
"2080","5723.726"
"2081","5773.746"
"2082","5781.771"
"2083","5739.597"
"2084","5673.483"
"2085","5630.967"
"2086","5639.979"
"2087","5694.529"
"2088","5777.148"
"2089","5829.243"
"2090","5783.807"
"2091","5663.088"
"2092","5568.516"
"2093","5564.945"
"2094","5621.743"
"2095","5692.903"
"2096","5724.338"
"2097","5660.803"
"2098","5533.483"
"2099","5477.441"
"2100","5568.783"
"2101","5666.331"
"2102","5604.158"
"2103","5434.658"
"2104","5338.716"
"2105","5381.686"
"2106","5446.26"
"2107","5432.861"
"2108","5389.909"
"2109","5400.093"
"2110","5455.343"
"2111","5479.903"
"2112","5438.118"
"2113","5375.067"
"2114","5336.171"
"2115","5317.655"
"2116","5299.657"
"2117","5274.532"
"2118","5245.623"
"2119","5227.998"
"2120","5262.557"
"2121","5377.691"
"2122","5496.657"
"2123","5505.406"
"2124","5406.059"
"2125","5319.101"
"2126","5318.774"
"2127","5345.092"
"2128","5327.024"
"2129","5271.199"
"2130","5218.28"
"2131","5195.39"
"2132","5214.441"
"2133","5266.456"
"2134","5286.381"
"2135","5215.067"
"2136","5116.907"
"2137","5110.612"
"2138","5198.133"
"2139","5246.872"
"2140","5173.806"
"2141","5059.727"
"2142","5003.927"
"2143","5019.892"
"2144","5080.083"
"2145","5143.008"
"2146","5151.623"
"2147","5082.328"
"2148","5007.325"
"2149","5002.237"
"2150","5042.373"
"2151","5058.922"
"2152","5021.32"
"2153","4940.567"
"2154","4849.409"
"2155","4831.121"
"2156","4952.941"
"2157","5117.609"
"2158","5165.803"
"2159","5078.871"
"2160","4975.551"
"2161","4935.344"
"2162","4934.732"
"2163","4936.289"
"2164","4905.241"
"2165","4813.522"
"2166","4733.916"
"2167","4823.245"
"2168","5094.897"
"2169","5281.095"
"2170","5163.524"
"2171","4912.393"
"2172","4794.729"
"2173","4838.302"
"2174","4904.79"
"2175","4912.994"
"2176","4876.276"
"2177","4814.769"
"2178","4743.306"
"2179","4676.648"
"2180","4639.469"
"2181","4660.759"
"2182","4729.774"
"2183","4787.557"
"2184","4792.156"
"2185","4756.45"
"2186","4702.219"
"2187","4648.401"
"2188","4613.125"
"2189","4619.64"
"2190","4695.43"
"2191","4816.751"
"2192","4859.099"
"2193","4729.977"
"2194","4538.358"
"2195","4438.937"
"2196","4444.854"
"2197","4478.809"
"2198","4498.089"
"2199","4509.521"
"2200","4514.887"
"2201","4490.061"
"2202","4416.671"
"2203","4352.219"
"2204","4381.229"
"2205","4467.27"
"2206","4462.962"
"2207","4334.399"
"2208","4275.822"
"2209","4429.994"
"2210","4601.461"
"2211","4533.899"
"2212","4297.5"
"2213","4151.429"
"2214","4179.431"
"2215","4247.601"
"2216","4257.794"
"2217","4238.183"
"2218","4230.832"
"2219","4242.595"
"2220","4266.657"
"2221","4279.623"
"2222","4246.589"
"2223","4181.399"
"2224","4171.592"
"2225","4263.044"
"2226","4350.66"
"2227","4322.782"
"2228","4232.453"
"2229","4196.509"
"2230","4208.734"
"2231","4157.082"
"2232","4015.395"
"2233","3911.271"
"2234","3938.254"
"2235","4012.665"
"2236","4024.16"
"2237","3966.821"
"2238","3883.939"
"2239","3815.503"
"2240","3797.83"
"2241","3834.959"
"2242","3872.303"
"2243","3865.346"
"2244","3831.15"
"2245","3797.321"
"2246","3760.057"
"2247","3703.137"
"2248","3666.27"
"2249","3740.494"
"2250","3914.669"
"2251","3991.06"
"2252","3835.053"
"2253","3610.193"
"2254","3517.692"
"2255","3533.464"
"2256","3535.148"
"2257","3484.822"
"2258","3418.584"
"2259","3370.608"
"2260","3367.756"
"2261","3410.793"
"2262","3419.568"
"2263","3320.725"
"2264","3190.773"
"2265","3156.15"
"2266","3196.876"
"2267","3184.618"
"2268","3098.728"
"2269","3071.577"
"2270","3155.36"
"2271","3163.437"
"2272","2931.741"
"2273","2613.189"
"2274","2444.217"
"2275","2460.014"
"2276","2573.628"
"2277","2700.491"
"2278","2760.964"
"2279","2727.727"
"2280","2677.673"
"2281","2679.54"
"2282","2723.408"
"2283","2773.304"
"2284","2738.672"
"2285","2516.764"
"2286","2210.878"
"2287","2087.75"
"2288","2200.257"
"2289","2287.173"
"2290","2185.711"
"2291","2052.801"
"2292","2044.832"
"2293","2063.158"
"2294","1955.127"
"2295","1799.618"
"2296","1794.989"
"2297","1926.409"
"2298","1972.08"
"2299","1851.121"
"2300","1735.285"
