,"Scan 00952"
"400","12661.97"
"401","12638.14"
"402","12589.64"
"403","12544.22"
"404","12529.46"
"405","12568.47"
"406","12647.8"
"407","12735.49"
"408","12799.71"
"409","12811.3"
"410","12773.45"
"411","12711.8"
"412","12652.25"
"413","12619.62"
"414","12620.35"
"415","12643.7"
"416","12678.34"
"417","12713.16"
"418","12741.1"
"419","12760.12"
"420","12768.45"
"421","12764.43"
"422","12748.86"
"423","12726.56"
"424","12702.69"
"425","12682.37"
"426","12668.57"
"427","12659.91"
"428","12654.45"
"429","12650.27"
"430","12647"
"431","12648.46"
"432","12659.13"
"433","12683.44"
"434","12722.95"
"435","12769.24"
"436","12811.79"
"437","12840.18"
"438","12846.58"
"439","12834.44"
"440","12810.27"
"441","12780.53"
"442","12751.41"
"443","12727.85"
"444","12714.39"
"445","12715.51"
"446","12733.96"
"447","12761.01"
"448","12783.21"
"449","12787.21"
"450","12762.09"
"451","12716.58"
"452","12669.04"
"453","12637.76"
"454","12638.87"
"455","12667.85"
"456","12708.34"
"457","12743.95"
"458","12759.48"
"459","12753.01"
"460","12731.42"
"461","12701.67"
"462","12670.27"
"463","12637.43"
"464","12598.68"
"465","12549.47"
"466","12486"
"467","12417.04"
"468","12361.79"
"469","12339.66"
"470","12368.73"
"471","12442.93"
"472","12534.09"
"473","12613.4"
"474","12653.3"
"475","12650.86"
"476","12627.55"
"477","12605.77"
"478","12607.01"
"479","12633.07"
"480","12664.87"
"481","12682.42"
"482","12666.47"
"483","12615.38"
"484","12547.1"
"485","12480.56"
"486","12434.2"
"487","12415.61"
"488","12419.78"
"489","12441.02"
"490","12473.59"
"491","12508.27"
"492","12531.8"
"493","12530.7"
"494","12492"
"495","12416.36"
"496","12320.86"
"497","12223.47"
"498","12141.78"
"499","12083.61"
"500","12045.13"
"501","12021.77"
"502","12009"
"503","12000.66"
"504","11988.72"
"505","11965.07"
"506","11921.98"
"507","11861.28"
"508","11795.85"
"509","11739.12"
"510","11704.02"
"511","11691.89"
"512","11691.26"
"513","11690.05"
"514","11676.59"
"515","11648.36"
"516","11612.34"
"517","11575.96"
"518","11546.36"
"519","11525.79"
"520","11511.71"
"521","11501.37"
"522","11492.08"
"523","11481.72"
"524","11468.76"
"525","11451.63"
"526","11429.03"
"527","11402.88"
"528","11377.81"
"529","11358.5"
"530","11349.22"
"531","11348.85"
"532","11352.31"
"533","11354.44"
"534","11350.37"
"535","11338.02"
"536","11317.16"
"537","11287.59"
"538","11249.64"
"539","11208.81"
"540","11173.54"
"541","11152.25"
"542","11151.82"
"543","11167.01"
"544","11186.67"
"545","11199.68"
"546","11196.86"
"547","11181.69"
"548","11162.77"
"549","11148.71"
"550","11146.05"
"551","11150.36"
"552","11153.52"
"553","11147.46"
"554","11126.59"
"555","11096.08"
"556","11064.03"
"557","11038.52"
"558","11025.84"
"559","11026.21"
"560","11038.55"
"561","11061.77"
"562","11092.92"
"563","11123.92"
"564","11145.83"
"565","11149.81"
"566","11133.54"
"567","11108.73"
"568","11088.81"
"569","11087.07"
"570","11107.11"
"571","11136.32"
"572","11160.62"
"573","11166.22"
"574","11149.08"
"575","11117.72"
"576","11081.49"
"577","11049.49"
"578","11026.2"
"579","11011.41"
"580","11004.76"
"581","11005.77"
"582","11012.78"
"583","11023.22"
"584","11034.52"
"585","11044.46"
"586","11054.37"
"587","11067.57"
"588","11087.37"
"589","11115.96"
"590","11147.79"
"591","11174.14"
"592","11186.35"
"593","11178.45"
"594","11157.04"
"595","11132.35"
"596","11114.57"
"597","11110.13"
"598","11113.57"
"599","11117.04"
"600","11112.75"
"601","11096.99"
"602","11075.1"
"603","11053.6"
"604","11038.92"
"605","11033.96"
"606","11036.14"
"607","11042.47"
"608","11049.98"
"609","11056.31"
"610","11059.77"
"611","11058.71"
"612","11051.79"
"613","11042.01"
"614","11035.55"
"615","11038.61"
"616","11056.26"
"617","11083.92"
"618","11112.32"
"619","11132.19"
"620","11136.17"
"621","11126.52"
"622","11108.6"
"623","11087.71"
"624","11067.96"
"625","11049.54"
"626","11031.86"
"627","11014.36"
"628","10997.48"
"629","10983.79"
"630","10976.07"
"631","10977.01"
"632","10986.36"
"633","11000"
"634","11013.59"
"635","11023.04"
"636","11028.54"
"637","11033.74"
"638","11042.43"
"639","11057.83"
"640","11078.64"
"641","11101.2"
"642","11121.85"
"643","11136.87"
"644","11142.18"
"645","11133.61"
"646","11107.01"
"647","11063.16"
"648","11016.93"
"649","10985.66"
"650","10986.45"
"651","11021.67"
"652","11068.85"
"653","11103.16"
"654","11100.87"
"655","11061.86"
"656","11009.98"
"657","10970.04"
"658","10964.57"
"659","10992.02"
"660","11036.41"
"661","11081.57"
"662","11113.64"
"663","11131.07"
"664","11136.54"
"665","11132.71"
"666","11122.2"
"667","11107.45"
"668","11090.89"
"669","11074.92"
"670","11062.52"
"671","11057.59"
"672","11064.09"
"673","11085.59"
"674","11117.34"
"675","11146.88"
"676","11161.46"
"677","11150.4"
"678","11120.59"
"679","11088.07"
"680","11068.91"
"681","11074.81"
"682","11098.53"
"683","11127.66"
"684","11149.85"
"685","11157.76"
"686","11155.12"
"687","11147.19"
"688","11139.17"
"689","11134.86"
"690","11136.36"
"691","11145.71"
"692","11164.33"
"693","11187.08"
"694","11204.58"
"695","11207.4"
"696","11189.29"
"697","11160.54"
"698","11136.83"
"699","11133.81"
"700","11158.4"
"701","11195.55"
"702","11226.81"
"703","11234.18"
"704","11215.61"
"705","11189.36"
"706","11175.05"
"707","11190.17"
"708","11227.74"
"709","11264.72"
"710","11277.78"
"711","11249.88"
"712","11195.89"
"713","11140.86"
"714","11109.72"
"715","11115.6"
"716","11143.64"
"717","11175.01"
"718","11191.39"
"719","11189.71"
"720","11184.41"
"721","11190.85"
"722","11222.25"
"723","11270.76"
"724","11316.76"
"725","11340.49"
"726","11328.65"
"727","11294.17"
"728","11256.71"
"729","11235.82"
"730","11241.58"
"731","11266.83"
"732","11302.56"
"733","11339.93"
"734","11372.61"
"735","11396.47"
"736","11407.48"
"737","11402.63"
"738","11385.6"
"739","11362.74"
"740","11340.41"
"741","11323.86"
"742","11315.36"
"743","11316.69"
"744","11329.52"
"745","11351.47"
"746","11375.3"
"747","11393.49"
"748","11399.48"
"749","11395.91"
"750","11390.44"
"751","11390.75"
"752","11401.78"
"753","11418.39"
"754","11433.13"
"755","11438.72"
"756","11435.01"
"757","11432.92"
"758","11444.24"
"759","11479.33"
"760","11530.53"
"761","11578"
"762","11601.68"
"763","11587.69"
"764","11549.59"
"765","11508.58"
"766","11485.72"
"767","11490.83"
"768","11513.79"
"769","11542.48"
"770","11565.45"
"771","11581.64"
"772","11597.83"
"773","11620.98"
"774","11655.73"
"775","11695.43"
"776","11729.97"
"777","11749.32"
"778","11750.93"
"779","11746.25"
"780","11748.25"
"781","11769.04"
"782","11808.45"
"783","11856.78"
"784","11904.08"
"785","11941.1"
"786","11961.78"
"787","11961.03"
"788","11933.87"
"789","11883.69"
"790","11828.89"
"791","11789.41"
"792","11783.76"
"793","11810.8"
"794","11855.35"
"795","11901.89"
"796","11937.3"
"797","11958.62"
"798","11965.61"
"799","11958.11"
"800","11939.69"
"801","11919.81"
"802","11908.44"
"803","11914.6"
"804","11937.24"
"805","11969.18"
"806","12003.13"
"807","12032.25"
"808","12051.14"
"809","12054.73"
"810","12038.22"
"811","12006.67"
"812","11977.51"
"813","11968.93"
"814","11995.75"
"815","12046.54"
"816","12097.54"
"817","12124.93"
"818","12115.53"
"819","12083.07"
"820","12045.44"
"821","12019.93"
"822","12011.84"
"823","12015.44"
"824","12024.57"
"825","12034.08"
"826","12044.02"
"827","12056.15"
"828","12072.18"
"829","12089.57"
"830","12098.55"
"831","12088.6"
"832","12051.11"
"833","11998.37"
"834","11955.55"
"835","11948.03"
"836","11990.15"
"837","12060.68"
"838","12131.24"
"839","12174.17"
"840","12180.75"
"841","12162.96"
"842","12133.79"
"843","12105.21"
"844","12082.77"
"845","12069.7"
"846","12069.16"
"847","12082.47"
"848","12107.39"
"849","12141.35"
"850","12181.52"
"851","12222.39"
"852","12256.7"
"853","12277.2"
"854","12279.96"
"855","12271.62"
"856","12260.88"
"857","12256.16"
"858","12259.26"
"859","12265.21"
"860","12268.74"
"861","12265.91"
"862","12259.81"
"863","12255.86"
"864","12259.45"
"865","12273.15"
"866","12295.09"
"867","12323.04"
"868","12354.51"
"869","12384.97"
"870","12408.82"
"871","12420.48"
"872","12418.76"
"873","12413.01"
"874","12414.12"
"875","12432.15"
"876","12464.67"
"877","12499.72"
"878","12525.1"
"879","12532.66"
"880","12528.81"
"881","12523.2"
"882","12525.16"
"883","12534.83"
"884","12542.51"
"885","12537.98"
"886","12514.68"
"887","12485.02"
"888","12467.6"
"889","12480.77"
"890","12529.84"
"891","12601.01"
"892","12678.93"
"893","12749.01"
"894","12802.27"
"895","12832.23"
"896","12832.47"
"897","12805.36"
"898","12770.29"
"899","12748.61"
"900","12759.26"
"901","12796.37"
"902","12839.48"
"903","12867.98"
"904","12870.61"
"905","12859.63"
"906","12850.94"
"907","12859.18"
"908","12881.6"
"909","12902.64"
"910","12906.43"
"911","12884.65"
"912","12852.67"
"913","12830.59"
"914","12837.43"
"915","12872.69"
"916","12918.52"
"917","12956.45"
"918","12971.02"
"919","12958.37"
"920","12917.41"
"921","12847.75"
"922","12766.15"
"923","12707.15"
"924","12706.12"
"925","12785.9"
"926","12912.89"
"927","13037.67"
"928","13111.81"
"929","13119.79"
"930","13084.57"
"931","13031.33"
"932","12981.97"
"933","12941.74"
"934","12910.64"
"935","12888.63"
"936","12875.69"
"937","12871.74"
"938","12876.71"
"939","12889.96"
"940","12907.56"
"941","12924.49"
"942","12935.82"
"943","12940.53"
"944","12942.9"
"945","12947.62"
"946","12957.97"
"947","12969.25"
"948","12973.84"
"949","12964.29"
"950","12938.51"
"951","12901.97"
"952","12860.67"
"953","12820.96"
"954","12791.08"
"955","12779.95"
"956","12796.28"
"957","12838.36"
"958","12890.1"
"959","12934.38"
"960","12956.86"
"961","12959.2"
"962","12948.75"
"963","12932.79"
"964","12916.2"
"965","12900.69"
"966","12887.76"
"967","12878.53"
"968","12872.28"
"969","12867.64"
"970","12863.26"
"971","12858.32"
"972","12852.66"
"973","12846.17"
"974","12838.89"
"975","12831.71"
"976","12825.77"
"977","12822.09"
"978","12818.53"
"979","12809.35"
"980","12788.64"
"981","12754.29"
"982","12720.35"
"983","12705.19"
"984","12726.28"
"985","12781.25"
"986","12848.2"
"987","12904.41"
"988","12932.48"
"989","12934.34"
"990","12916.26"
"991","12884.7"
"992","12849.74"
"993","12824.42"
"994","12821.91"
"995","12848.94"
"996","12893.29"
"997","12939.25"
"998","12971.98"
"999","12987.7"
"1000","12990.33"
"1001","12983.95"
"1002","12973.13"
"1003","12963.6"
"1004","12961.28"
"1005","12972.07"
"1006","13000.13"
"1007","13037.72"
"1008","13072.23"
"1009","13091.13"
"1010","13088.95"
"1011","13070.27"
"1012","13040.44"
"1013","13005.23"
"1014","12972.56"
"1015","12951.09"
"1016","12949.22"
"1017","12966.76"
"1018","12993.44"
"1019","13018.42"
"1020","13033.41"
"1021","13040.94"
"1022","13046.39"
"1023","13054.94"
"1024","13067.37"
"1025","13080.4"
"1026","13090.57"
"1027","13096.36"
"1028","13102.23"
"1029","13113.8"
"1030","13136.14"
"1031","13166.72"
"1032","13197.72"
"1033","13221.2"
"1034","13233.68"
"1035","13241.78"
"1036","13253.54"
"1037","13275.84"
"1038","13305.59"
"1039","13334.71"
"1040","13355.11"
"1041","13363.01"
"1042","13361.49"
"1043","13354.26"
"1044","13344.67"
"1045","13334.18"
"1046","13323.56"
"1047","13313.63"
"1048","13305.83"
"1049","13302.25"
"1050","13305.06"
"1051","13315.77"
"1052","13333.78"
"1053","13358"
"1054","13386.85"
"1055","13412.48"
"1056","13422.44"
"1057","13404.21"
"1058","13359.8"
"1059","13322.91"
"1060","13331.45"
"1061","13415.23"
"1062","13543.14"
"1063","13656.32"
"1064","13696.81"
"1065","13651.38"
"1066","13566.92"
"1067","13494.64"
"1068","13473.81"
"1069","13493.28"
"1070","13528.65"
"1071","13556.47"
"1072","13569.23"
"1073","13572.33"
"1074","13571.54"
"1075","13570.89"
"1076","13570.38"
"1077","13569.43"
"1078","13567.86"
"1079","13568.31"
"1080","13574.75"
"1081","13590.98"
"1082","13613.31"
"1083","13628.41"
"1084","13622.27"
"1085","13586.99"
"1086","13538.07"
"1087","13496.62"
"1088","13482.07"
"1089","13491.24"
"1090","13505.01"
"1091","13503.96"
"1092","13479.91"
"1093","13446.34"
"1094","13419.18"
"1095","13411.7"
"1096","13421.49"
"1097","13440.53"
"1098","13460.76"
"1099","13473.04"
"1100","13467.26"
"1101","13433.25"
"1102","13370.27"
"1103","13302.71"
"1104","13259.11"
"1105","13263.96"
"1106","13308.94"
"1107","13369.83"
"1108","13422.64"
"1109","13455.11"
"1110","13469.73"
"1111","13469.93"
"1112","13459.51"
"1113","13443.42"
"1114","13426.89"
"1115","13414.45"
"1116","13403.57"
"1117","13387.56"
"1118","13359.83"
"1119","13322.37"
"1120","13289.83"
"1121","13277.89"
"1122","13295.94"
"1123","13328.53"
"1124","13354.09"
"1125","13353.01"
"1126","13328.95"
"1127","13300.79"
"1128","13287.46"
"1129","13293.93"
"1130","13302.93"
"1131","13295.19"
"1132","13258"
"1133","13206.01"
"1134","13160.96"
"1135","13143.22"
"1136","13155.96"
"1137","13190.94"
"1138","13239.71"
"1139","13293.72"
"1140","13344.28"
"1141","13382.69"
"1142","13401.02"
"1143","13394.53"
"1144","13359.24"
"1145","13293.08"
"1146","13214.86"
"1147","13156.42"
"1148","13149.23"
"1149","13197.25"
"1150","13264.91"
"1151","13313.59"
"1152","13318.48"
"1153","13302.67"
"1154","13299.6"
"1155","13337.94"
"1156","13402.71"
"1157","13455.71"
"1158","13459.6"
"1159","13413.28"
"1160","13359.1"
"1161","13341.98"
"1162","13385.51"
"1163","13454.77"
"1164","13504.81"
"1165","13498.52"
"1166","13452.02"
"1167","13403.52"
"1168","13389.57"
"1169","13410.98"
"1170","13435.59"
"1171","13430.15"
"1172","13385.52"
"1173","13341.1"
"1174","13342.09"
"1175","13417.9"
"1176","13523.88"
"1177","13593.77"
"1178","13567.83"
"1179","13464.19"
"1180","13351.78"
"1181","13299.42"
"1182","13329.17"
"1183","13399.04"
"1184","13462.42"
"1185","13486.69"
"1186","13480.85"
"1187","13461.55"
"1188","13443.86"
"1189","13431.69"
"1190","13424.37"
"1191","13421.33"
"1192","13425"
"1193","13440.36"
"1194","13472.41"
"1195","13519.62"
"1196","13568.92"
"1197","13606.09"
"1198","13620.75"
"1199","13617.07"
"1200","13602.62"
"1201","13584.98"
"1202","13571.45"
"1203","13569.21"
"1204","13584.76"
"1205","13608.52"
"1206","13614.91"
"1207","13577.83"
"1208","13495.25"
"1209","13412.31"
"1210","13379.65"
"1211","13429.83"
"1212","13522.13"
"1213","13597.24"
"1214","13603.27"
"1215","13553.47"
"1216","13494.77"
"1217","13472.83"
"1218","13497.23"
"1219","13541.91"
"1220","13579.38"
"1221","13593.17"
"1222","13587.34"
"1223","13568.23"
"1224","13543.51"
"1225","13525.73"
"1226","13528.53"
"1227","13562.46"
"1228","13614.46"
"1229","13660.62"
"1230","13678.23"
"1231","13665.77"
"1232","13639.69"
"1233","13616.94"
"1234","13607.12"
"1235","13608.6"
"1236","13618.78"
"1237","13634.33"
"1238","13649.74"
"1239","13659.14"
"1240","13658.7"
"1241","13655.89"
"1242","13662.1"
"1243","13686.94"
"1244","13720.48"
"1245","13740.52"
"1246","13725.65"
"1247","13681.97"
"1248","13645.84"
"1249","13654.94"
"1250","13720.97"
"1251","13805.77"
"1252","13865.47"
"1253","13869.31"
"1254","13831.83"
"1255","13777.36"
"1256","13728.75"
"1257","13699.16"
"1258","13697.96"
"1259","13732.82"
"1260","13790.43"
"1261","13843.17"
"1262","13863.91"
"1263","13849.42"
"1264","13823.58"
"1265","13811.66"
"1266","13825.8"
"1267","13853.16"
"1268","13878.1"
"1269","13887.66"
"1270","13877.59"
"1271","13845.38"
"1272","13791.5"
"1273","13733.23"
"1274","13693.76"
"1275","13693.69"
"1276","13726.44"
"1277","13769.44"
"1278","13800.54"
"1279","13811.08"
"1280","13805.14"
"1281","13787.31"
"1282","13762.51"
"1283","13736.13"
"1284","13713.57"
"1285","13698.46"
"1286","13690.12"
"1287","13687.18"
"1288","13688.29"
"1289","13691.96"
"1290","13696.65"
"1291","13701.35"
"1292","13708.23"
"1293","13720.72"
"1294","13741.95"
"1295","13771.16"
"1296","13805.16"
"1297","13840.82"
"1298","13875.95"
"1299","13909.35"
"1300","13939.81"
"1301","13964.86"
"1302","13980.21"
"1303","13981.45"
"1304","13968.75"
"1305","13952.12"
"1306","13942.87"
"1307","13947.68"
"1308","13957.81"
"1309","13961.35"
"1310","13948.53"
"1311","13920.48"
"1312","13881.89"
"1313","13837.74"
"1314","13795.67"
"1315","13764.63"
"1316","13752.48"
"1317","13753.51"
"1318","13752.51"
"1319","13734.72"
"1320","13700.26"
"1321","13664.08"
"1322","13641.62"
"1323","13640.48"
"1324","13657.18"
"1325","13687.4"
"1326","13721.62"
"1327","13740"
"1328","13721.5"
"1329","13660.82"
"1330","13597.4"
"1331","13578.6"
"1332","13634.78"
"1333","13726.94"
"1334","13798.39"
"1335","13803"
"1336","13756.57"
"1337","13697.32"
"1338","13659.86"
"1339","13647.58"
"1340","13648.25"
"1341","13650.26"
"1342","13651.64"
"1343","13656.99"
"1344","13670.7"
"1345","13691.03"
"1346","13710.69"
"1347","13722.32"
"1348","13723.71"
"1349","13718.76"
"1350","13711.68"
"1351","13704.49"
"1352","13695.69"
"1353","13683.56"
"1354","13668.89"
"1355","13657.78"
"1356","13656.94"
"1357","13667.54"
"1358","13675.93"
"1359","13665.94"
"1360","13627.67"
"1361","13573.22"
"1362","13519.53"
"1363","13481.36"
"1364","13463.33"
"1365","13467.15"
"1366","13492.4"
"1367","13526.01"
"1368","13550.19"
"1369","13549.1"
"1370","13522.07"
"1371","13475.53"
"1372","13417.12"
"1373","13366.37"
"1374","13349.74"
"1375","13390.59"
"1376","13469.47"
"1377","13536.41"
"1378","13543.64"
"1379","13495.82"
"1380","13442.94"
"1381","13434.56"
"1382","13473.06"
"1383","13511.79"
"1384","13502.99"
"1385","13440.32"
"1386","13368.59"
"1387","13335.13"
"1388","13353.29"
"1389","13386.78"
"1390","13395.69"
"1391","13366.34"
"1392","13330.06"
"1393","13322.47"
"1394","13357.76"
"1395","13407.28"
"1396","13437.29"
"1397","13430.14"
"1398","13405.5"
"1399","13388.4"
"1400","13391.87"
"1401","13396.88"
"1402","13379.03"
"1403","13326.86"
"1404","13268.74"
"1405","13240.75"
"1406","13264.17"
"1407","13308.3"
"1408","13330.97"
"1409","13304.69"
"1410","13260.25"
"1411","13242.91"
"1412","13284.01"
"1413","13352.69"
"1414","13400.78"
"1415","13392.28"
"1416","13351.29"
"1417","13320.47"
"1418","13332.88"
"1419","13369.38"
"1420","13393.15"
"1421","13375.25"
"1422","13333.42"
"1423","13302.51"
"1424","13311.73"
"1425","13353.77"
"1426","13406.95"
"1427","13451.51"
"1428","13481.31"
"1429","13495.89"
"1430","13497.13"
"1431","13503.66"
"1432","13541.5"
"1433","13630.33"
"1434","13740.75"
"1435","13820.71"
"1436","13825.87"
"1437","13774.7"
"1438","13715.68"
"1439","13692.24"
"1440","13704.5"
"1441","13731.38"
"1442","13753.07"
"1443","13761.66"
"1444","13755.23"
"1445","13732.89"
"1446","13702.37"
"1447","13675.78"
"1448","13664.11"
"1449","13668.84"
"1450","13686.62"
"1451","13713.18"
"1452","13736.46"
"1453","13740.54"
"1454","13712.59"
"1455","13665.12"
"1456","13623.07"
"1457","13607.82"
"1458","13611.52"
"1459","13612.44"
"1460","13591.68"
"1461","13552.62"
"1462","13508.88"
"1463","13471.7"
"1464","13434.44"
"1465","13382.65"
"1466","13306.38"
"1467","13226.61"
"1468","13177.23"
"1469","13184.01"
"1470","13220.56"
"1471","13240.06"
"1472","13204.28"
"1473","13125.84"
"1474","13035.92"
"1475","12963.03"
"1476","12921.12"
"1477","12919.26"
"1478","12959.06"
"1479","13005.66"
"1480","13012.97"
"1481","12951.15"
"1482","12862.17"
"1483","12807.9"
"1484","12829.91"
"1485","12889.67"
"1486","12928.85"
"1487","12907.17"
"1488","12847.64"
"1489","12787.15"
"1490","12753.3"
"1491","12745.17"
"1492","12756.38"
"1493","12778.66"
"1494","12798.76"
"1495","12802.61"
"1496","12783.03"
"1497","12748.89"
"1498","12711.37"
"1499","12681.77"
"1500","12671.75"
"1501","12692.74"
"1502","12737.6"
"1503","12767.03"
"1504","12739.34"
"1505","12654.68"
"1506","12574.92"
"1507","12565.23"
"1508","12630.11"
"1509","12698.16"
"1510","12695.93"
"1511","12621.58"
"1512","12548.92"
"1513","12551.11"
"1514","12621.29"
"1515","12681.8"
"1516","12658.9"
"1517","12567.92"
"1518","12489.56"
"1519","12497.58"
"1520","12575.4"
"1521","12652.02"
"1522","12664.34"
"1523","12620.41"
"1524","12563.05"
"1525","12528.29"
"1526","12507.81"
"1527","12475.96"
"1528","12415.19"
"1529","12347.74"
"1530","12308.04"
"1531","12320.45"
"1532","12371.18"
"1533","12437.4"
"1534","12496.53"
"1535","12526.7"
"1536","12506.24"
"1537","12432.71"
"1538","12346.5"
"1539","12293.58"
"1540","12294.97"
"1541","12328.9"
"1542","12369.57"
"1543","12399.93"
"1544","12414.46"
"1545","12408.93"
"1546","12390.06"
"1547","12375.71"
"1548","12382.54"
"1549","12401.29"
"1550","12402.74"
"1551","12361.64"
"1552","12298.99"
"1553","12262.66"
"1554","12292.38"
"1555","12368.05"
"1556","12443.91"
"1557","12481.42"
"1558","12478.66"
"1559","12445"
"1560","12391.38"
"1561","12334.15"
"1562","12290.82"
"1563","12270.84"
"1564","12263.76"
"1565","12256.1"
"1566","12239.42"
"1567","12214.11"
"1568","12181.47"
"1569","12143.89"
"1570","12105.14"
"1571","12069.02"
"1572","12038.65"
"1573","12016.51"
"1574","12005.1"
"1575","12007.19"
"1576","12025.74"
"1577","12062.26"
"1578","12107.46"
"1579","12147.25"
"1580","12170.26"
"1581","12178.4"
"1582","12177.55"
"1583","12174.38"
"1584","12177.99"
"1585","12197.94"
"1586","12231.53"
"1587","12250.35"
"1588","12223.47"
"1589","12156.5"
"1590","12106.94"
"1591","12132.88"
"1592","12217.97"
"1593","12274.17"
"1594","12219.84"
"1595","12083.42"
"1596","11964.62"
"1597","11948.73"
"1598","12012.1"
"1599","12084.87"
"1600","12112.07"
"1601","12103.74"
"1602","12087.31"
"1603","12080.46"
"1604","12074.64"
"1605","12057.17"
"1606","12028.94"
"1607","12014.03"
"1608","12037.73"
"1609","12097.34"
"1610","12159.49"
"1611","12191.28"
"1612","12187.56"
"1613","12162.69"
"1614","12130.43"
"1615","12097.1"
"1616","12065.7"
"1617","12040.78"
"1618","12033.49"
"1619","12056.71"
"1620","12111.49"
"1621","12168.91"
"1622","12195.79"
"1623","12181.47"
"1624","12150.05"
"1625","12127.93"
"1626","12126.75"
"1627","12144.18"
"1628","12176.11"
"1629","12206.41"
"1630","12211.89"
"1631","12176.26"
"1632","12121.81"
"1633","12084.05"
"1634","12085.57"
"1635","12108.59"
"1636","12127.62"
"1637","12128.13"
"1638","12115.3"
"1639","12096.64"
"1640","12086.24"
"1641","12105.26"
"1642","12171.23"
"1643","12257.02"
"1644","12307.39"
"1645","12280.63"
"1646","12216.17"
"1647","12182.52"
"1648","12222.34"
"1649","12297.73"
"1650","12355.42"
"1651","12369.91"
"1652","12363.71"
"1653","12363.16"
"1654","12372.2"
"1655","12372.66"
"1656","12347.94"
"1657","12306.4"
"1658","12270.44"
"1659","12256.02"
"1660","12247.04"
"1661","12217.66"
"1662","12157.75"
"1663","12097.07"
"1664","12071.11"
"1665","12089.34"
"1666","12125.33"
"1667","12151.27"
"1668","12158.37"
"1669","12152.43"
"1670","12139.83"
"1671","12128.35"
"1672","12126.38"
"1673","12136.1"
"1674","12139.1"
"1675","12112.82"
"1676","12050.77"
"1677","11974.16"
"1678","11906.48"
"1679","11861.88"
"1680","11845.91"
"1681","11860.97"
"1682","11886.17"
"1683","11889.26"
"1684","11850.9"
"1685","11801.92"
"1686","11785.07"
"1687","11814.2"
"1688","11847.96"
"1689","11840.74"
"1690","11792.35"
"1691","11747.64"
"1692","11747.77"
"1693","11784.82"
"1694","11825.92"
"1695","11841.14"
"1696","11813.17"
"1697","11728"
"1698","11602.08"
"1699","11508.91"
"1700","11524.26"
"1701","11636.62"
"1702","11751.79"
"1703","11784.87"
"1704","11750.35"
"1705","11709.68"
"1706","11707.36"
"1707","11727.67"
"1708","11741.92"
"1709","11734.71"
"1710","11712.59"
"1711","11683.86"
"1712","11652.48"
"1713","11618.91"
"1714","11583.2"
"1715","11543.26"
"1716","11496.2"
"1717","11444.69"
"1718","11406.65"
"1719","11402.1"
"1720","11431.73"
"1721","11471.41"
"1722","11497.4"
"1723","11508.34"
"1724","11516.59"
"1725","11530.87"
"1726","11543.08"
"1727","11540.53"
"1728","11521.9"
"1729","11507.64"
"1730","11519.24"
"1731","11550.09"
"1732","11568.39"
"1733","11547.46"
"1734","11501.28"
"1735","11460.41"
"1736","11448.04"
"1737","11466.74"
"1738","11515.21"
"1739","11578.79"
"1740","11626.47"
"1741","11629.56"
"1742","11591.61"
"1743","11534.16"
"1744","11479.02"
"1745","11448.22"
"1746","11463.44"
"1747","11519.34"
"1748","11567.98"
"1749","11562.02"
"1750","11512.25"
"1751","11470.43"
"1752","11476.75"
"1753","11512.16"
"1754","11540.18"
"1755","11539.85"
"1756","11519.94"
"1757","11492.52"
"1758","11467.9"
"1759","11454.94"
"1760","11458.65"
"1761","11462.41"
"1762","11442.17"
"1763","11392.77"
"1764","11350.32"
"1765","11354.13"
"1766","11396.95"
"1767","11428.51"
"1768","11408.62"
"1769","11369.85"
"1770","11372.56"
"1771","11442.8"
"1772","11526.15"
"1773","11559.27"
"1774","11535"
"1775","11500.31"
"1776","11494.59"
"1777","11494.33"
"1778","11451.5"
"1779","11354.16"
"1780","11275.06"
"1781","11294.88"
"1782","11404.94"
"1783","11512.02"
"1784","11535.28"
"1785","11490.02"
"1786","11427.55"
"1787","11385.35"
"1788","11370.18"
"1789","11383.7"
"1790","11408.6"
"1791","11410.95"
"1792","11367.92"
"1793","11319.63"
"1794","11327.01"
"1795","11406.61"
"1796","11489.27"
"1797","11501.41"
"1798","11449.5"
"1799","11400.7"
"1800","11404.83"
"1801","11426.89"
"1802","11408.78"
"1803","11338.97"
"1804","11280.43"
"1805","11295.54"
"1806","11365.71"
"1807","11422.33"
"1808","11417.11"
"1809","11375.23"
"1810","11337.53"
"1811","11332.05"
"1812","11370.87"
"1813","11457.51"
"1814","11536.66"
"1815","11525.36"
"1816","11392.71"
"1817","11240.21"
"1818","11185.26"
"1819","11245.23"
"1820","11344.82"
"1821","11415.61"
"1822","11445.08"
"1823","11439.24"
"1824","11410.92"
"1825","11384.96"
"1826","11385.46"
"1827","11412.95"
"1828","11452.82"
"1829","11486.02"
"1830","11479.31"
"1831","11398.02"
"1832","11260.76"
"1833","11148.64"
"1834","11133.01"
"1835","11194.29"
"1836","11275.29"
"1837","11331.83"
"1838","11347.55"
"1839","11312.77"
"1840","11262.67"
"1841","11265.7"
"1842","11360.34"
"1843","11466.04"
"1844","11476.07"
"1845","11382.9"
"1846","11304.28"
"1847","11343.93"
"1848","11447.49"
"1849","11492.63"
"1850","11422.8"
"1851","11322.07"
"1852","11286.62"
"1853","11329.54"
"1854","11403.98"
"1855","11468.12"
"1856","11503.58"
"1857","11497.76"
"1858","11454.57"
"1859","11396.94"
"1860","11348.17"
"1861","11327.11"
"1862","11350.7"
"1863","11410.57"
"1864","11452.69"
"1865","11425.5"
"1866","11354.71"
"1867","11312.16"
"1868","11341.15"
"1869","11402.46"
"1870","11444.2"
"1871","11450.41"
"1872","11437.4"
"1873","11419.72"
"1874","11399.14"
"1875","11374.07"
"1876","11349.82"
"1877","11340.67"
"1878","11358.89"
"1879","11398.5"
"1880","11445.97"
"1881","11484.54"
"1882","11491.47"
"1883","11447.92"
"1884","11382.72"
"1885","11352.91"
"1886","11387.26"
"1887","11438.22"
"1888","11448.78"
"1889","11415.03"
"1890","11376.26"
"1891","11358.96"
"1892","11336.76"
"1893","11272.94"
"1894","11186.78"
"1895","11158.34"
"1896","11245.84"
"1897","11378.7"
"1898","11446.51"
"1899","11415.05"
"1900","11358.01"
"1901","11347"
"1902","11381.26"
"1903","11429.48"
"1904","11465.3"
"1905","11471.58"
"1906","11435.33"
"1907","11373.48"
"1908","11318.97"
"1909","11291.67"
"1910","11281.37"
"1911","11275.31"
"1912","11280.36"
"1913","11316.42"
"1914","11384.52"
"1915","11432.64"
"1916","11404.41"
"1917","11320.95"
"1918","11264.76"
"1919","11292.17"
"1920","11365.84"
"1921","11430.29"
"1922","11460.98"
"1923","11461.88"
"1924","11438.26"
"1925","11396.22"
"1926","11342.21"
"1927","11285.84"
"1928","11239.96"
"1929","11218.42"
"1930","11238.51"
"1931","11317.06"
"1932","11425.93"
"1933","11484.85"
"1934","11434.67"
"1935","11336.62"
"1936","11287.4"
"1937","11310.64"
"1938","11338.34"
"1939","11312.58"
"1940","11261.43"
"1941","11240.76"
"1942","11263.48"
"1943","11285.57"
"1944","11272.35"
"1945","11264.08"
"1946","11325.7"
"1947","11449.03"
"1948","11526.24"
"1949","11469.68"
"1950","11350.95"
"1951","11296.51"
"1952","11336.86"
"1953","11370.79"
"1954","11311.9"
"1955","11214.24"
"1956","11180.05"
"1957","11236.24"
"1958","11308.29"
"1959","11329.5"
"1960","11317.08"
"1961","11316.11"
"1962","11339.19"
"1963","11356.96"
"1964","11344.22"
"1965","11312.2"
"1966","11283.46"
"1967","11266.68"
"1968","11253.8"
"1969","11238.91"
"1970","11231.14"
"1971","11243.42"
"1972","11270.53"
"1973","11287.23"
"1974","11273.12"
"1975","11232.72"
"1976","11177.4"
"1977","11124.59"
"1978","11097.73"
"1979","11112.88"
"1980","11158.09"
"1981","11215.17"
"1982","11269.22"
"1983","11308.14"
"1984","11323.7"
"1985","11319.41"
"1986","11301.15"
"1987","11277.05"
"1988","11256.76"
"1989","11245.83"
"1990","11239.09"
"1991","11230.05"
"1992","11216.31"
"1993","11197.97"
"1994","11182.29"
"1995","11191.19"
"1996","11240.83"
"1997","11285.43"
"1998","11250.01"
"1999","11134.61"
"2000","11062.46"
"2001","11135.36"
"2002","11251.21"
"2003","11234.37"
"2004","11066.38"
"2005","10930.22"
"2006","10974.21"
"2007","11125.64"
"2008","11251.62"
"2009","11289.66"
"2010","11246.46"
"2011","11143.94"
"2012","11044.81"
"2013","11015.17"
"2014","11046.38"
"2015","11074.89"
"2016","11062.62"
"2017","11035.59"
"2018","11026.5"
"2019","11042.58"
"2020","11077.43"
"2021","11119.77"
"2022","11150.24"
"2023","11152.83"
"2024","11136.81"
"2025","11120.27"
"2026","11101.08"
"2027","11052.81"
"2028","10964.9"
"2029","10895.89"
"2030","10916.82"
"2031","11015.68"
"2032","11111.61"
"2033","11145.31"
"2034","11119.61"
"2035","11050.29"
"2036","10981.31"
"2037","10971.83"
"2038","11031.45"
"2039","11085.19"
"2040","11066.11"
"2041","11002.28"
"2042","10953.92"
"2043","10926.71"
"2044","10865.89"
"2045","10743.01"
"2046","10632.79"
"2047","10622.28"
"2048","10661.74"
"2049","10604.85"
"2050","10374.38"
"2051","10043.53"
"2052","9692.924"
"2053","9318.442"
"2054","8877.782"
"2055","8277.646"
"2056","7359.475"
"2057","6027.051"
"2058","4453.238"
"2059","2876.754"
"2060","1499.252"
"2061","493.6565"
"2062","20"
"2063","84.39119"
"2064","776.8204"
"2065","1911.698"
"2066","3236.435"
"2067","4585.726"
"2068","5908.874"
"2069","7150.162"
"2070","8205.078"
"2071","8966.376"
"2072","9465.159"
"2073","9835.53"
"2074","10163.18"
"2075","10426.31"
"2076","10595.87"
"2077","10685.31"
"2078","10725.58"
"2079","10751.38"
"2080","10801.53"
"2081","10895.76"
"2082","10989.28"
"2083","11028.28"
"2084","11009.37"
"2085","10960.53"
"2086","10909.38"
"2087","10881.95"
"2088","10895.43"
"2089","10922.49"
"2090","10923.72"
"2091","10898.97"
"2092","10882.84"
"2093","10897.27"
"2094","10930.48"
"2095","10967.18"
"2096","11003.47"
"2097","11040.19"
"2098","11067.56"
"2099","11062.95"
"2100","11016.05"
"2101","10960.08"
"2102","10934.77"
"2103","10952.01"
"2104","11006.72"
"2105","11070.47"
"2106","11078.84"
"2107","10993.17"
"2108","10901.35"
"2109","10916.34"
"2110","11010.16"
"2111","11049.73"
"2112","10973.11"
"2113","10860.77"
"2114","10798.22"
"2115","10808.04"
"2116","10889.35"
"2117","11001.11"
"2118","11066.46"
"2119","11047.36"
"2120","10997.89"
"2121","10976"
"2122","10980.2"
"2123","10985.98"
"2124","10984.8"
"2125","10984.4"
"2126","10988.43"
"2127","10988.07"
"2128","10973.5"
"2129","10942.53"
"2130","10896.71"
"2131","10847.96"
"2132","10819.65"
"2133","10824.03"
"2134","10840.48"
"2135","10845.88"
"2136","10842.65"
"2137","10844.76"
"2138","10853.44"
"2139","10855.16"
"2140","10838.07"
"2141","10797.59"
"2142","10735.36"
"2143","10691.91"
"2144","10723.74"
"2145","10812.9"
"2146","10856.62"
"2147","10794.63"
"2148","10698.57"
"2149","10654.68"
"2150","10685.94"
"2151","10784.95"
"2152","10899.24"
"2153","10927.99"
"2154","10833.96"
"2155","10750.55"
"2156","10804.93"
"2157","10895.61"
"2158","10835.32"
"2159","10639.73"
"2160","10522.51"
"2161","10600.75"
"2162","10751.66"
"2163","10836.17"
"2164","10815.92"
"2165","10692.46"
"2166","10534.06"
"2167","10464.77"
"2168","10528.73"
"2169","10612.78"
"2170","10616.51"
"2171","10585.94"
"2172","10603.37"
"2173","10659.57"
"2174","10682.04"
"2175","10639.12"
"2176","10564.84"
"2177","10493.53"
"2178","10439.23"
"2179","10410.26"
"2180","10404.35"
"2181","10413.48"
"2182","10431.28"
"2183","10453.5"
"2184","10466.93"
"2185","10433.86"
"2186","10326.33"
"2187","10209.73"
"2188","10182.43"
"2189","10238.58"
"2190","10278.24"
"2191","10252.64"
"2192","10220.38"
"2193","10232.49"
"2194","10247.71"
"2195","10205.38"
"2196","10127"
"2197","10086.21"
"2198","10117.48"
"2199","10200.31"
"2200","10294.81"
"2201","10315.13"
"2202","10189.11"
"2203","10005.31"
"2204","9916.15"
"2205","9950.758"
"2206","10024.19"
"2207","10060.6"
"2208","10010.45"
"2209","9864.75"
"2210","9777.191"
"2211","9917.442"
"2212","10157.49"
"2213","10199.16"
"2214","9982.241"
"2215","9740.247"
"2216","9645.271"
"2217","9664.743"
"2218","9736.928"
"2219","9818.759"
"2220","9874.625"
"2221","9883.351"
"2222","9835.073"
"2223","9751.854"
"2224","9703.277"
"2225","9724.354"
"2226","9728.34"
"2227","9628.092"
"2228","9503.44"
"2229","9496.639"
"2230","9583.03"
"2231","9594.284"
"2232","9464.169"
"2233","9310.412"
"2234","9242.25"
"2235","9272.276"
"2236","9379.518"
"2237","9449.005"
"2238","9330.604"
"2239","9070.372"
"2240","8896.605"
"2241","8910.265"
"2242","8966.892"
"2243","8940.471"
"2244","8872.903"
"2245","8836.093"
"2246","8826.48"
"2247","8805.261"
"2248","8758.287"
"2249","8694.627"
"2250","8615.398"
"2251","8505.868"
"2252","8366.659"
"2253","8259.34"
"2254","8245.476"
"2255","8281.741"
"2256","8280.241"
"2257","8216.134"
"2258","8119.743"
"2259","8019.953"
"2260","7940.203"
"2261","7887.963"
"2262","7821.424"
"2263","7701.671"
"2264","7572.835"
"2265","7506.065"
"2266","7481.77"
"2267","7413.196"
"2268","7279.513"
"2269","7153.671"
"2270","7086.417"
"2271","7052.18"
"2272","7017.882"
"2273","6975.553"
"2274","6923.276"
"2275","6838.386"
"2276","6687.453"
"2277","6488.945"
"2278","6318.372"
"2279","6219.451"
"2280","6166.305"
"2281","6123.93"
"2282","6054.495"
"2283","5928.219"
"2284","5781.235"
"2285","5675.286"
"2286","5603.411"
"2287","5503.627"
"2288","5362.159"
"2289","5236.776"
"2290","5155.001"
"2291","5051.368"
"2292","4871.767"
"2293","4691.268"
"2294","4612.091"
"2295","4616.103"
"2296","4620.414"
"2297","4594.14"
"2298","4557.424"
"2299","4510.401"
"2300","4415.896"
