,"Scan 00970"
"400","8318.736"
"401","8323.659"
"402","8327.019"
"403","8325.933"
"404","8317.532"
"405","8299.729"
"406","8276.865"
"407","8256.526"
"408","8246.271"
"409","8252.671"
"410","8270.172"
"411","8284.817"
"412","8282.573"
"413","8250.422"
"414","8194.16"
"415","8137.103"
"416","8103.076"
"417","8115.083"
"418","8173.237"
"419","8249.498"
"420","8314.285"
"421","8338.512"
"422","8312.332"
"423","8256.764"
"424","8195.479"
"425","8151.913"
"426","8138.579"
"427","8145.338"
"428","8159.281"
"429","8167.597"
"430","8161.625"
"431","8143.755"
"432","8118.193"
"433","8089.122"
"434","8060.821"
"435","8037.998"
"436","8025.423"
"437","8027.835"
"438","8047.416"
"439","8075.27"
"440","8099.519"
"441","8108.376"
"442","8093.079"
"443","8061.084"
"444","8025.31"
"445","7998.591"
"446","7991.458"
"447","7999.36"
"448","8011.563"
"449","8017.379"
"450","8007.814"
"451","7987.395"
"452","7967.266"
"453","7958.542"
"454","7970.704"
"455","7997.408"
"456","8023.262"
"457","8032.858"
"458","8012.43"
"459","7966.96"
"460","7913.787"
"461","7870.358"
"462","7852.731"
"463","7858.351"
"464","7870.771"
"465","7873.313"
"466","7850.254"
"467","7800.466"
"468","7734.957"
"469","7665.044"
"470","7601.86"
"471","7554.178"
"472","7528.619"
"473","7531.681"
"474","7569.277"
"475","7634.777"
"476","7709.133"
"477","7772.866"
"478","7807.207"
"479","7808.504"
"480","7789.124"
"481","7762.13"
"482","7740.222"
"483","7727.791"
"484","7719.968"
"485","7711.414"
"486","7696.955"
"487","7675.28"
"488","7649.583"
"489","7623.286"
"490","7599.697"
"491","7578.828"
"492","7556.789"
"493","7529.474"
"494","7492.9"
"495","7446.34"
"496","7392.997"
"497","7336.285"
"498","7279.628"
"499","7227.272"
"500","7184.462"
"501","7156.469"
"502","7148.249"
"503","7155.283"
"504","7161.826"
"505","7151.562"
"506","7108.748"
"507","7032.435"
"508","6938.723"
"509","6844.57"
"510","6766.518"
"511","6711.902"
"512","6677.893"
"513","6661.146"
"514","6658.241"
"515","6663.206"
"516","6667.412"
"517","6662.152"
"518","6639.25"
"519","6601.543"
"520","6562.612"
"521","6536.415"
"522","6535.982"
"523","6557.637"
"524","6582.678"
"525","6591.957"
"526","6567.557"
"527","6510.359"
"528","6436.632"
"529","6363.018"
"530","6305.393"
"531","6270.067"
"532","6256.308"
"533","6263.228"
"534","6289.313"
"535","6325.642"
"536","6358.496"
"537","6374.143"
"538","6360.582"
"539","6322.182"
"540","6272.564"
"541","6225.388"
"542","6193.005"
"543","6177.636"
"544","6176.591"
"545","6187.156"
"546","6206.135"
"547","6227.029"
"548","6242.01"
"549","6243.281"
"550","6225.315"
"551","6194.743"
"552","6162.269"
"553","6138.553"
"554","6131.011"
"555","6133.017"
"556","6134.135"
"557","6123.98"
"558","6096.703"
"559","6062.171"
"560","6033.633"
"561","6024.266"
"562","6040.459"
"563","6070.088"
"564","6097.922"
"565","6108.851"
"566","6096.662"
"567","6074.205"
"568","6056.749"
"569","6059.339"
"570","6085.516"
"571","6119.549"
"572","6143.938"
"573","6141.608"
"574","6109.171"
"575","6061.008"
"576","6012.627"
"577","5978.972"
"578","5963.507"
"579","5958.231"
"580","5954.681"
"581","5945.054"
"582","5930.805"
"583","5920.413"
"584","5922.49"
"585","5944.187"
"586","5978.593"
"587","6010.865"
"588","6026.132"
"589","6012.459"
"590","5977.362"
"591","5936.327"
"592","5904.803"
"593","5894.644"
"594","5901.168"
"595","5914.908"
"596","5926.436"
"597","5929.276"
"598","5926.364"
"599","5922.506"
"600","5922.473"
"601","5927.975"
"602","5933.952"
"603","5934.462"
"604","5923.672"
"605","5900.901"
"606","5873.381"
"607","5848.986"
"608","5835.304"
"609","5833.142"
"610","5836.088"
"611","5837.398"
"612","5831.002"
"613","5819.856"
"614","5813.548"
"615","5821.775"
"616","5852.211"
"617","5895.987"
"618","5936.117"
"619","5955.61"
"620","5941.29"
"621","5899.246"
"622","5841.703"
"623","5780.834"
"624","5727.146"
"625","5685.854"
"626","5661.114"
"627","5657.033"
"628","5672.746"
"629","5697.387"
"630","5718.928"
"631","5725.648"
"632","5716.248"
"633","5702.842"
"634","5698.405"
"635","5714.954"
"636","5749.29"
"637","5785.672"
"638","5808.035"
"639","5802.486"
"640","5773.754"
"641","5736.182"
"642","5704.14"
"643","5689.333"
"644","5690.375"
"645","5701.834"
"646","5718.295"
"647","5735.386"
"648","5751.687"
"649","5766.306"
"650","5778.368"
"651","5787.786"
"652","5795.816"
"653","5803.843"
"654","5813.132"
"655","5822.392"
"656","5827.738"
"657","5825.176"
"658","5811.357"
"659","5789.674"
"660","5767.572"
"661","5752.528"
"662","5749.909"
"663","5753.533"
"664","5753.287"
"665","5739.083"
"666","5706.648"
"667","5668.898"
"668","5641.887"
"669","5641.458"
"670","5671.793"
"671","5717.936"
"672","5763.201"
"673","5791.447"
"674","5796.949"
"675","5783.669"
"676","5755.931"
"677","5718.611"
"678","5681.605"
"679","5657.392"
"680","5658.444"
"681","5692.479"
"682","5746.542"
"683","5802.066"
"684","5840.568"
"685","5851.281"
"686","5840.66"
"687","5817.479"
"688","5790.446"
"689","5766.748"
"690","5751.763"
"691","5750.749"
"692","5767.873"
"693","5794.789"
"694","5815.139"
"695","5812.473"
"696","5775.342"
"697","5718.443"
"698","5664.983"
"699","5638.093"
"700","5649.4"
"701","5681.477"
"702","5712.396"
"703","5720.732"
"704","5702.032"
"705","5673.572"
"706","5654.015"
"707","5660.37"
"708","5690.313"
"709","5728.812"
"710","5760.637"
"711","5773.496"
"712","5770.064"
"713","5757.792"
"714","5744.11"
"715","5734.928"
"716","5732.563"
"717","5738.814"
"718","5755.371"
"719","5780.686"
"720","5809.498"
"721","5836.345"
"722","5856.204"
"723","5868.191"
"724","5873.758"
"725","5874.379"
"726","5871.687"
"727","5867.988"
"728","5865.759"
"729","5867.439"
"730","5873.314"
"731","5879.683"
"732","5882.429"
"733","5877.696"
"734","5866.256"
"735","5852.889"
"736","5842.51"
"737","5839.237"
"738","5842.105"
"739","5848.117"
"740","5854.275"
"741","5858.172"
"742","5858.989"
"743","5856.164"
"744","5849.219"
"745","5840.013"
"746","5833.248"
"747","5833.788"
"748","5845.897"
"749","5868.247"
"750","5896.435"
"751","5926.035"
"752","5953.488"
"753","5978.374"
"754","6000.991"
"755","6021.629"
"756","6039.726"
"757","6053.426"
"758","6060.764"
"759","6060.063"
"760","6053.183"
"761","6044.38"
"762","6037.944"
"763","6037.28"
"764","6041.814"
"765","6049.864"
"766","6059.742"
"767","6068.637"
"768","6071.755"
"769","6064.098"
"770","6041.35"
"771","6009.104"
"772","5980.46"
"773","5968.684"
"774","5983.702"
"775","6019.104"
"776","6063.495"
"777","6105.536"
"778","6137.917"
"779","6160.882"
"780","6175.497"
"781","6182.915"
"782","6185.645"
"783","6187.243"
"784","6191.285"
"785","6200.53"
"786","6213.794"
"787","6228.707"
"788","6242.902"
"789","6254.214"
"790","6260.838"
"791","6261.007"
"792","6253.211"
"793","6239.388"
"794","6223.946"
"795","6211.349"
"796","6205.734"
"797","6209.839"
"798","6226.032"
"799","6256.59"
"800","6298.601"
"801","6341.026"
"802","6372.129"
"803","6381.205"
"804","6368.628"
"805","6341.54"
"806","6307.169"
"807","6273.137"
"808","6248.424"
"809","6242.303"
"810","6263.709"
"811","6309.753"
"812","6362.725"
"813","6403.992"
"814","6417.913"
"815","6412.167"
"816","6405.403"
"817","6416.297"
"818","6453.093"
"819","6497.61"
"820","6527.55"
"821","6521.88"
"822","6484.479"
"823","6442.186"
"824","6422.681"
"825","6446.218"
"826","6494.248"
"827","6535.59"
"828","6539.346"
"829","6496.606"
"830","6436.292"
"831","6391.044"
"832","6390.522"
"833","6431.689"
"834","6491.249"
"835","6545.61"
"836","6576.554"
"837","6583.146"
"838","6567.917"
"839","6533.653"
"840","6489.875"
"841","6453.454"
"842","6441.622"
"843","6467.131"
"844","6515.698"
"845","6562.961"
"846","6584.698"
"847","6572.322"
"848","6546.298"
"849","6530.256"
"850","6545.577"
"851","6588.023"
"852","6637.014"
"853","6671.716"
"854","6678.993"
"855","6669.987"
"856","6660.625"
"857","6666.197"
"858","6686.939"
"859","6707.698"
"860","6712.619"
"861","6690.574"
"862","6655.4"
"863","6629.173"
"864","6633.7"
"865","6673.686"
"866","6726.797"
"867","6768.309"
"868","6776.524"
"869","6756.165"
"870","6725.627"
"871","6703.399"
"872","6701.44"
"873","6716.056"
"874","6741.243"
"875","6771.028"
"876","6799.757"
"877","6822.027"
"878","6832.444"
"879","6829.153"
"880","6823.025"
"881","6827.791"
"882","6856.508"
"883","6904.679"
"884","6948.907"
"885","6964.863"
"886","6935.268"
"887","6879.712"
"888","6829.788"
"889","6816.678"
"890","6849.849"
"891","6906.9"
"892","6962.892"
"893","6996.267"
"894","7010.467"
"895","7020.144"
"896","7039.92"
"897","7074.396"
"898","7108.663"
"899","7125.568"
"900","7110.26"
"901","7071.522"
"902","7032.012"
"903","7014.524"
"904","7030.093"
"905","7060.145"
"906","7081.531"
"907","7072.904"
"908","7038.249"
"909","7000.184"
"910","6981.763"
"911","6998.804"
"912","7044.267"
"913","7106.612"
"914","7174.306"
"915","7235.958"
"916","7280.292"
"917","7296.044"
"918","7276.078"
"919","7229.103"
"920","7167.641"
"921","7104.265"
"922","7052.895"
"923","7028.847"
"924","7047.503"
"925","7116.904"
"926","7212.058"
"927","7298.686"
"928","7343.279"
"929","7336.566"
"930","7297.677"
"931","7247.36"
"932","7204.392"
"933","7177.484"
"934","7172.17"
"935","7193.71"
"936","7237.305"
"937","7285.258"
"938","7319.023"
"939","7323.65"
"940","7304.083"
"941","7272.104"
"942","7239.438"
"943","7215.208"
"944","7204.989"
"945","7214.108"
"946","7245.184"
"947","7285.141"
"948","7315.253"
"949","7317.084"
"950","7285.85"
"951","7235.738"
"952","7182.35"
"953","7140.188"
"954","7117.319"
"955","7119.474"
"956","7152.15"
"957","7210.405"
"958","7274.878"
"959","7325.148"
"960","7344.472"
"961","7337.071"
"962","7314.584"
"963","7288.564"
"964","7266.446"
"965","7250.203"
"966","7241.426"
"967","7240.607"
"968","7242.354"
"969","7239.301"
"970","7224.354"
"971","7199.711"
"972","7179.083"
"973","7176.901"
"974","7203.043"
"975","7245.27"
"976","7284.638"
"977","7302.638"
"978","7293.421"
"979","7265.324"
"980","7227.442"
"981","7189.171"
"982","7161.2"
"983","7154.563"
"984","7179.523"
"985","7229.101"
"986","7279.328"
"987","7305.512"
"988","7292.082"
"989","7256.315"
"990","7222.888"
"991","7215.286"
"992","7236.445"
"993","7272.073"
"994","7307.328"
"995","7331.168"
"996","7343.765"
"997","7347.352"
"998","7344.419"
"999","7340.796"
"1000","7344.612"
"1001","7364.033"
"1002","7401.389"
"1003","7445.255"
"1004","7482.21"
"1005","7498.828"
"1006","7484.545"
"1007","7448.109"
"1008","7406.216"
"1009","7375.378"
"1010","7361.567"
"1011","7355.6"
"1012","7347.124"
"1013","7328.478"
"1014","7306.677"
"1015","7293.701"
"1016","7301.157"
"1017","7328.695"
"1018","7361.914"
"1019","7385.599"
"1020","7389.456"
"1021","7383.966"
"1022","7385.103"
"1023","7407.989"
"1024","7450.286"
"1025","7493.502"
"1026","7518.52"
"1027","7513.682"
"1028","7490.859"
"1029","7466.539"
"1030","7456.378"
"1031","7465.026"
"1032","7489.41"
"1033","7526.287"
"1034","7570.333"
"1035","7611.511"
"1036","7639.12"
"1037","7644.399"
"1038","7635.139"
"1039","7627.528"
"1040","7637.635"
"1041","7668.966"
"1042","7704.937"
"1043","7727.156"
"1044","7721.59"
"1045","7698.457"
"1046","7676.354"
"1047","7673.319"
"1048","7691.626"
"1049","7716.261"
"1050","7731.321"
"1051","7726.19"
"1052","7708.972"
"1053","7691.888"
"1054","7686.454"
"1055","7694.266"
"1056","7709.731"
"1057","7727.097"
"1058","7741.475"
"1059","7749.889"
"1060","7749.599"
"1061","7738.875"
"1062","7723.5"
"1063","7712.667"
"1064","7715.451"
"1065","7734.578"
"1066","7764.245"
"1067","7798.043"
"1068","7829.628"
"1069","7852.954"
"1070","7862.047"
"1071","7851.564"
"1072","7826.368"
"1073","7799.581"
"1074","7784.543"
"1075","7787.463"
"1076","7797.907"
"1077","7803.067"
"1078","7793.06"
"1079","7780.369"
"1080","7787.78"
"1081","7837.413"
"1082","7922.935"
"1083","8001.107"
"1084","8026.191"
"1085","7969.767"
"1086","7869.853"
"1087","7780.395"
"1088","7751.513"
"1089","7782.14"
"1090","7834.967"
"1091","7872.046"
"1092","7873.741"
"1093","7855.706"
"1094","7837.637"
"1095","7835.739"
"1096","7845.956"
"1097","7856.941"
"1098","7857.583"
"1099","7842.398"
"1100","7811.454"
"1101","7765.065"
"1102","7709.53"
"1103","7667.097"
"1104","7662.653"
"1105","7715.935"
"1106","7805.064"
"1107","7888.033"
"1108","7923.52"
"1109","7900.824"
"1110","7847.759"
"1111","7794.614"
"1112","7763.975"
"1113","7752.236"
"1114","7750.243"
"1115","7749.599"
"1116","7749.827"
"1117","7755.096"
"1118","7769.577"
"1119","7794.059"
"1120","7824.349"
"1121","7855.843"
"1122","7884.875"
"1123","7911.476"
"1124","7936.589"
"1125","7960.672"
"1126","7978.462"
"1127","7980.96"
"1128","7959.239"
"1129","7913.497"
"1130","7858.483"
"1131","7810.265"
"1132","7781.057"
"1133","7767.077"
"1134","7760.376"
"1135","7753.507"
"1136","7745.123"
"1137","7737.938"
"1138","7734.743"
"1139","7737.959"
"1140","7749.432"
"1141","7770.964"
"1142","7801.262"
"1143","7826.748"
"1144","7830.779"
"1145","7799.197"
"1146","7745.457"
"1147","7700.187"
"1148","7693.809"
"1149","7732.522"
"1150","7787.808"
"1151","7828.438"
"1152","7833.807"
"1153","7820.097"
"1154","7811.452"
"1155","7828.736"
"1156","7862.979"
"1157","7889.317"
"1158","7883.477"
"1159","7845.889"
"1160","7806.609"
"1161","7797.437"
"1162","7834.281"
"1163","7889.39"
"1164","7927.564"
"1165","7920.376"
"1166","7885.489"
"1167","7859.719"
"1168","7878.126"
"1169","7938.813"
"1170","8005.751"
"1171","8041.744"
"1172","8028.47"
"1173","7985.576"
"1174","7937.27"
"1175","7903.666"
"1176","7885.706"
"1177","7878.734"
"1178","7878.464"
"1179","7884.957"
"1180","7901.112"
"1181","7929.722"
"1182","7966.61"
"1183","7998.05"
"1184","8009.618"
"1185","7993.643"
"1186","7962.457"
"1187","7932.083"
"1188","7916.152"
"1189","7911.89"
"1190","7909.681"
"1191","7900.524"
"1192","7887.008"
"1193","7881.807"
"1194","7897.806"
"1195","7936.766"
"1196","7980.828"
"1197","8010.121"
"1198","8012.997"
"1199","8008.778"
"1200","8024.073"
"1201","8080.638"
"1202","8159.119"
"1203","8219.507"
"1204","8223.378"
"1205","8172.721"
"1206","8109.807"
"1207","8078.499"
"1208","8099.517"
"1209","8148.259"
"1210","8194.837"
"1211","8216.359"
"1212","8218.347"
"1213","8213.496"
"1214","8212.987"
"1215","8214.574"
"1216","8209.067"
"1217","8187.725"
"1218","8153.249"
"1219","8119.673"
"1220","8101.444"
"1221","8105.185"
"1222","8122.881"
"1223","8144.917"
"1224","8163.292"
"1225","8176.018"
"1226","8182.485"
"1227","8182.633"
"1228","8180.509"
"1229","8182.039"
"1230","8192.898"
"1231","8214.168"
"1232","8243.044"
"1233","8276.55"
"1234","8309.267"
"1235","8332.028"
"1236","8335.345"
"1237","8316.027"
"1238","8288.896"
"1239","8271.979"
"1240","8280.082"
"1241","8310.166"
"1242","8353.064"
"1243","8399.508"
"1244","8439.216"
"1245","8461.275"
"1246","8455.226"
"1247","8423.734"
"1248","8383.884"
"1249","8353.438"
"1250","8342.788"
"1251","8348.154"
"1252","8364.158"
"1253","8385.093"
"1254","8404.119"
"1255","8414.156"
"1256","8409.68"
"1257","8395.145"
"1258","8378.942"
"1259","8369.061"
"1260","8368.184"
"1261","8375.399"
"1262","8389.676"
"1263","8408.699"
"1264","8428.692"
"1265","8445.828"
"1266","8459.24"
"1267","8473.722"
"1268","8494.692"
"1269","8523.997"
"1270","8551.834"
"1271","8566.02"
"1272","8557.26"
"1273","8532.652"
"1274","8505.104"
"1275","8486.66"
"1276","8480.297"
"1277","8483.663"
"1278","8494.345"
"1279","8510.057"
"1280","8528.642"
"1281","8547.937"
"1282","8565.271"
"1283","8577.215"
"1284","8580.285"
"1285","8572.876"
"1286","8557.882"
"1287","8538.863"
"1288","8519.356"
"1289","8502.798"
"1290","8492.591"
"1291","8491.559"
"1292","8498.666"
"1293","8511.33"
"1294","8526.996"
"1295","8543.407"
"1296","8558.498"
"1297","8570.346"
"1298","8579.993"
"1299","8591.309"
"1300","8608.155"
"1301","8628.828"
"1302","8643.655"
"1303","8642.388"
"1304","8622.189"
"1305","8596.23"
"1306","8579.776"
"1307","8583.277"
"1308","8601.24"
"1309","8624.869"
"1310","8646.684"
"1311","8665.98"
"1312","8684.222"
"1313","8702.27"
"1314","8716.178"
"1315","8719.692"
"1316","8707.036"
"1317","8678.783"
"1318","8639.945"
"1319","8595.957"
"1320","8559.722"
"1321","8551.563"
"1322","8591.605"
"1323","8674.255"
"1324","8757.761"
"1325","8797.826"
"1326","8776.373"
"1327","8727.537"
"1328","8691.65"
"1329","8693.493"
"1330","8713.669"
"1331","8724.983"
"1332","8707.714"
"1333","8672.633"
"1334","8638.287"
"1335","8621.499"
"1336","8628.898"
"1337","8663.424"
"1338","8725.43"
"1339","8793.477"
"1340","8835.172"
"1341","8821.265"
"1342","8763.136"
"1343","8699.777"
"1344","8669.14"
"1345","8678.141"
"1346","8705.613"
"1347","8729.614"
"1348","8736.562"
"1349","8722.832"
"1350","8685.567"
"1351","8632.59"
"1352","8588.439"
"1353","8579.001"
"1354","8611.729"
"1355","8656.366"
"1356","8678.036"
"1357","8656.136"
"1358","8608.347"
"1359","8558.727"
"1360","8524.343"
"1361","8497.636"
"1362","8465.622"
"1363","8420.34"
"1364","8376.937"
"1365","8357.21"
"1366","8378.564"
"1367","8432.052"
"1368","8498.974"
"1369","8560.84"
"1370","8601.075"
"1371","8603.979"
"1372","8557.158"
"1373","8481.729"
"1374","8418.333"
"1375","8404.314"
"1376","8429.381"
"1377","8449.229"
"1378","8421.603"
"1379","8354.57"
"1380","8299.719"
"1381","8307.98"
"1382","8377.908"
"1383","8453.704"
"1384","8478.312"
"1385","8440.001"
"1386","8383.009"
"1387","8354.438"
"1388","8368.928"
"1389","8393.748"
"1390","8392.73"
"1391","8355.925"
"1392","8318.358"
"1393","8319.34"
"1394","8375.53"
"1395","8458.246"
"1396","8533.411"
"1397","8577.435"
"1398","8591.136"
"1399","8578.8"
"1400","8545.928"
"1401","8501.281"
"1402","8454.168"
"1403","8414.084"
"1404","8391.039"
"1405","8395.162"
"1406","8429.462"
"1407","8471.92"
"1408","8495.009"
"1409","8480.706"
"1410","8448.763"
"1411","8428.316"
"1412","8440.742"
"1413","8472.795"
"1414","8501.596"
"1415","8509.074"
"1416","8500.948"
"1417","8490.273"
"1418","8488.278"
"1419","8496.229"
"1420","8512.026"
"1421","8533.445"
"1422","8557.533"
"1423","8581.071"
"1424","8599.98"
"1425","8604.72"
"1426","8583.594"
"1427","8529.071"
"1428","8462.257"
"1429","8416.257"
"1430","8418.812"
"1431","8458.063"
"1432","8504.646"
"1433","8532.985"
"1434","8547.212"
"1435","8565.174"
"1436","8600.896"
"1437","8637.339"
"1438","8642.601"
"1439","8591.95"
"1440","8520.321"
"1441","8491.921"
"1442","8559.846"
"1443","8682.203"
"1444","8769.745"
"1445","8746.279"
"1446","8649.467"
"1447","8574.178"
"1448","8603.002"
"1449","8710.541"
"1450","8817.137"
"1451","8850.942"
"1452","8809.239"
"1453","8723.717"
"1454","8625.126"
"1455","8534.276"
"1456","8467.132"
"1457","8437.523"
"1458","8442.552"
"1459","8471.352"
"1460","8512.303"
"1461","8548.48"
"1462","8560.513"
"1463","8532.96"
"1464","8478.988"
"1465","8424.354"
"1466","8390.827"
"1467","8372.573"
"1468","8352.244"
"1469","8315.725"
"1470","8269.713"
"1471","8229.062"
"1472","8204.617"
"1473","8183.53"
"1474","8144.313"
"1475","8072.311"
"1476","7989.884"
"1477","7931.816"
"1478","7923.675"
"1479","7945.711"
"1480","7964.294"
"1481","7953.714"
"1482","7923.397"
"1483","7892.469"
"1484","7876.442"
"1485","7876.47"
"1486","7890.17"
"1487","7912.313"
"1488","7927.743"
"1489","7919.125"
"1490","7879.178"
"1491","7831.553"
"1492","7805.818"
"1493","7817.553"
"1494","7844.764"
"1495","7859.236"
"1496","7844.135"
"1497","7809.129"
"1498","7767.643"
"1499","7730.246"
"1500","7701.749"
"1501","7686.248"
"1502","7684.64"
"1503","7692.318"
"1504","7704.118"
"1505","7714.598"
"1506","7717.916"
"1507","7708.357"
"1508","7686.159"
"1509","7659.023"
"1510","7635.052"
"1511","7620.591"
"1512","7620.132"
"1513","7637.664"
"1514","7669.523"
"1515","7705.275"
"1516","7734.504"
"1517","7750.367"
"1518","7748.653"
"1519","7726.205"
"1520","7690.413"
"1521","7655.035"
"1522","7632.526"
"1523","7623.9"
"1524","7624.585"
"1525","7629.431"
"1526","7629.889"
"1527","7616.079"
"1528","7581.474"
"1529","7536.004"
"1530","7494.639"
"1531","7470.478"
"1532","7469.488"
"1533","7495.955"
"1534","7546.175"
"1535","7593.284"
"1536","7606.3"
"1537","7573.835"
"1538","7528.228"
"1539","7507.468"
"1540","7525.371"
"1541","7554.224"
"1542","7562.704"
"1543","7539.904"
"1544","7501.934"
"1545","7466.437"
"1546","7443.345"
"1547","7434.743"
"1548","7441.762"
"1549","7456.258"
"1550","7462.917"
"1551","7448.432"
"1552","7421.729"
"1553","7404.675"
"1554","7416.325"
"1555","7454.709"
"1556","7508.839"
"1557","7565.275"
"1558","7598.683"
"1559","7580.02"
"1560","7497.437"
"1561","7399.302"
"1562","7347.12"
"1563","7373.041"
"1564","7436.527"
"1565","7486.215"
"1566","7494.141"
"1567","7473.634"
"1568","7442.039"
"1569","7409.348"
"1570","7376.243"
"1571","7343.046"
"1572","7314.733"
"1573","7300.488"
"1574","7308.548"
"1575","7334.392"
"1576","7365.305"
"1577","7388.948"
"1578","7396.88"
"1579","7382.382"
"1580","7343.521"
"1581","7301.318"
"1582","7283.707"
"1583","7306.312"
"1584","7345.767"
"1585","7371.074"
"1586","7368.424"
"1587","7360.208"
"1588","7372.965"
"1589","7411.361"
"1590","7448.959"
"1591","7458.15"
"1592","7437.635"
"1593","7411.465"
"1594","7402.68"
"1595","7410.203"
"1596","7417.338"
"1597","7410.17"
"1598","7395.943"
"1599","7390.887"
"1600","7406.482"
"1601","7433.645"
"1602","7457.777"
"1603","7469.195"
"1604","7471.377"
"1605","7469.951"
"1606","7468.109"
"1607","7464.917"
"1608","7459.234"
"1609","7455.537"
"1610","7464.441"
"1611","7495.462"
"1612","7539.332"
"1613","7573.537"
"1614","7578.292"
"1615","7555.875"
"1616","7518.327"
"1617","7477.563"
"1618","7444.744"
"1619","7430.831"
"1620","7441.081"
"1621","7466.33"
"1622","7495.149"
"1623","7515.793"
"1624","7516.019"
"1625","7484.913"
"1626","7440.617"
"1627","7428.917"
"1628","7490.268"
"1629","7599.218"
"1630","7691.907"
"1631","7716.963"
"1632","7694.922"
"1633","7670.994"
"1634","7673.856"
"1635","7680.621"
"1636","7658.683"
"1637","7602.53"
"1638","7555.268"
"1639","7563.464"
"1640","7630.745"
"1641","7715.029"
"1642","7774.516"
"1643","7796.152"
"1644","7784.96"
"1645","7748.35"
"1646","7705.846"
"1647","7681.325"
"1648","7688.33"
"1649","7708.177"
"1650","7716.12"
"1651","7704.676"
"1652","7696.212"
"1653","7714.84"
"1654","7756.365"
"1655","7788.572"
"1656","7782.073"
"1657","7746.934"
"1658","7715.401"
"1659","7711.141"
"1660","7714.73"
"1661","7693.662"
"1662","7632.265"
"1663","7557.639"
"1664","7503.129"
"1665","7480.341"
"1666","7470.851"
"1667","7455.46"
"1668","7436.393"
"1669","7432.291"
"1670","7457.642"
"1671","7496.107"
"1672","7518.631"
"1673","7506.37"
"1674","7474.729"
"1675","7446.088"
"1676","7428.188"
"1677","7403.554"
"1678","7353.579"
"1679","7287.243"
"1680","7239.004"
"1681","7238.322"
"1682","7265.81"
"1683","7278.242"
"1684","7245.223"
"1685","7186.714"
"1686","7134.742"
"1687","7107.16"
"1688","7094.728"
"1689","7085.324"
"1690","7070.943"
"1691","7047.658"
"1692","7013.178"
"1693","6977.792"
"1694","6958.218"
"1695","6961.727"
"1696","6958.317"
"1697","6909.134"
"1698","6810.286"
"1699","6723.548"
"1700","6714.642"
"1701","6778.141"
"1702","6841.193"
"1703","6839.163"
"1704","6793.595"
"1705","6766.71"
"1706","6798.325"
"1707","6849.011"
"1708","6862.533"
"1709","6820.032"
"1710","6764.01"
"1711","6740.2"
"1712","6753.223"
"1713","6774.465"
"1714","6778.257"
"1715","6763.53"
"1716","6738.687"
"1717","6710.671"
"1718","6682.342"
"1719","6655.965"
"1720","6637.298"
"1721","6636.572"
"1722","6661.973"
"1723","6696.128"
"1724","6705.959"
"1725","6669.086"
"1726","6611.365"
"1727","6571.797"
"1728","6570.61"
"1729","6591.908"
"1730","6616.229"
"1731","6634.988"
"1732","6649.342"
"1733","6660.204"
"1734","6664.574"
"1735","6657.854"
"1736","6638.395"
"1737","6612.667"
"1738","6588.477"
"1739","6571.058"
"1740","6562.516"
"1741","6564.192"
"1742","6571.963"
"1743","6578.652"
"1744","6579.778"
"1745","6581.064"
"1746","6590.499"
"1747","6607.748"
"1748","6619.368"
"1749","6611.457"
"1750","6579.641"
"1751","6526.253"
"1752","6459.295"
"1753","6412.892"
"1754","6428.626"
"1755","6509.435"
"1756","6584.327"
"1757","6578.634"
"1758","6498.886"
"1759","6419.168"
"1760","6402.751"
"1761","6439.845"
"1762","6495.196"
"1763","6540.373"
"1764","6561.985"
"1765","6549.657"
"1766","6514.326"
"1767","6486.611"
"1768","6491.262"
"1769","6511.745"
"1770","6515.788"
"1771","6490.203"
"1772","6466.529"
"1773","6480.597"
"1774","6522.031"
"1775","6535.935"
"1776","6477.62"
"1777","6379.435"
"1778","6303.875"
"1779","6290.247"
"1780","6323.283"
"1781","6379.874"
"1782","6436.47"
"1783","6469.102"
"1784","6459.505"
"1785","6424.419"
"1786","6393.696"
"1787","6388.953"
"1788","6413.62"
"1789","6467.195"
"1790","6521.531"
"1791","6524.337"
"1792","6440.68"
"1793","6333.967"
"1794","6300.182"
"1795","6370.468"
"1796","6450.693"
"1797","6440.033"
"1798","6351.502"
"1799","6284.363"
"1800","6311.757"
"1801","6379.675"
"1802","6399.302"
"1803","6338.056"
"1804","6253.373"
"1805","6206.315"
"1806","6207.735"
"1807","6237.51"
"1808","6276.318"
"1809","6309.367"
"1810","6323.284"
"1811","6321.75"
"1812","6329.798"
"1813","6367.834"
"1814","6409.32"
"1815","6405.682"
"1816","6336.93"
"1817","6255.901"
"1818","6224.263"
"1819","6250.118"
"1820","6291.95"
"1821","6312.996"
"1822","6312.143"
"1823","6299.997"
"1824","6282.805"
"1825","6259.11"
"1826","6227.512"
"1827","6196.408"
"1828","6180.505"
"1829","6189.642"
"1830","6216.534"
"1831","6250.13"
"1832","6276.823"
"1833","6280.006"
"1834","6247.782"
"1835","6201.453"
"1836","6175.991"
"1837","6186.875"
"1838","6208.338"
"1839","6211.498"
"1840","6198.141"
"1841","6192.767"
"1842","6212.055"
"1843","6240.262"
"1844","6254.317"
"1845","6250.809"
"1846","6251.137"
"1847","6273.637"
"1848","6303.427"
"1849","6311.316"
"1850","6282.767"
"1851","6234.562"
"1852","6186.692"
"1853","6147.76"
"1854","6118.151"
"1855","6100.234"
"1856","6104.146"
"1857","6141.023"
"1858","6198.167"
"1859","6235.411"
"1860","6219.491"
"1861","6169.233"
"1862","6123.001"
"1863","6101.755"
"1864","6094.879"
"1865","6089.961"
"1866","6090.648"
"1867","6110.163"
"1868","6148.91"
"1869","6170.771"
"1870","6136.125"
"1871","6062.149"
"1872","6016.974"
"1873","6051.525"
"1874","6132.492"
"1875","6203.969"
"1876","6235.406"
"1877","6229.469"
"1878","6192.688"
"1879","6142.475"
"1880","6100.703"
"1881","6081.36"
"1882","6083.571"
"1883","6104.17"
"1884","6133.296"
"1885","6157.116"
"1886","6164.747"
"1887","6153.38"
"1888","6122.349"
"1889","6084.299"
"1890","6062.716"
"1891","6070.073"
"1892","6076.346"
"1893","6043.053"
"1894","5973.301"
"1895","5915.362"
"1896","5909.756"
"1897","5944.886"
"1898","5992.635"
"1899","6034.28"
"1900","6064.451"
"1901","6078.376"
"1902","6068.599"
"1903","6026.685"
"1904","5960.502"
"1905","5907.354"
"1906","5903.522"
"1907","5946.429"
"1908","6012.587"
"1909","6075.233"
"1910","6100.779"
"1911","6059.589"
"1912","5982.085"
"1913","5938.418"
"1914","5966.331"
"1915","6011.052"
"1916","6006.522"
"1917","5962.173"
"1918","5947.159"
"1919","6002.012"
"1920","6065.595"
"1921","6059.362"
"1922","5984.906"
"1923","5917.63"
"1924","5914.813"
"1925","5951.118"
"1926","5981.908"
"1927","5988.699"
"1928","5980.345"
"1929","5964.872"
"1930","5940.743"
"1931","5904.151"
"1932","5863.514"
"1933","5841.43"
"1934","5855.07"
"1935","5890.458"
"1936","5924.128"
"1937","5940.488"
"1938","5933.835"
"1939","5901.878"
"1940","5857.343"
"1941","5817.955"
"1942","5798.725"
"1943","5811.043"
"1944","5860.73"
"1945","5923.445"
"1946","5964.625"
"1947","5967.583"
"1948","5940.05"
"1949","5894.654"
"1950","5861.897"
"1951","5877.884"
"1952","5940.28"
"1953","5994.048"
"1954","5990.51"
"1955","5940.054"
"1956","5873.931"
"1957","5818.798"
"1958","5795.053"
"1959","5813.986"
"1960","5838.891"
"1961","5818.031"
"1962","5757.889"
"1963","5740.016"
"1964","5822.555"
"1965","5915.991"
"1966","5886.726"
"1967","5726.77"
"1968","5579.691"
"1969","5564.383"
"1970","5638.611"
"1971","5714.131"
"1972","5748.884"
"1973","5751.757"
"1974","5733.707"
"1975","5703.266"
"1976","5668.184"
"1977","5632.129"
"1978","5594.755"
"1979","5558.67"
"1980","5537.819"
"1981","5547.637"
"1982","5583.576"
"1983","5623.933"
"1984","5649.133"
"1985","5648.046"
"1986","5613.563"
"1987","5572.234"
"1988","5575.145"
"1989","5645.738"
"1990","5735.694"
"1991","5788.418"
"1992","5780.681"
"1993","5709.512"
"1994","5591.33"
"1995","5481.747"
"1996","5435.87"
"1997","5463.656"
"1998","5552.658"
"1999","5660.132"
"2000","5694.134"
"2001","5584.353"
"2002","5423.076"
"2003","5361.499"
"2004","5433.308"
"2005","5521.557"
"2006","5527.635"
"2007","5483.242"
"2008","5455.334"
"2009","5464.626"
"2010","5486.428"
"2011","5499.963"
"2012","5504.035"
"2013","5501.187"
"2014","5489.29"
"2015","5462.813"
"2016","5424.626"
"2017","5397.836"
"2018","5405.708"
"2019","5445.284"
"2020","5499.582"
"2021","5552.211"
"2022","5588.062"
"2023","5595.317"
"2024","5581.583"
"2025","5561.286"
"2026","5533.943"
"2027","5481.205"
"2028","5395.69"
"2029","5318.13"
"2030","5298.372"
"2031","5335.339"
"2032","5385.732"
"2033","5414.166"
"2034","5409.499"
"2035","5367.749"
"2036","5316.565"
"2037","5300.867"
"2038","5332.008"
"2039","5363.918"
"2040","5353.822"
"2041","5311.02"
"2042","5262.97"
"2043","5223.336"
"2044","5190.479"
"2045","5169.319"
"2046","5190.345"
"2047","5282.923"
"2048","5386.875"
"2049","5379.036"
"2050","5222.576"
"2051","5065.749"
"2052","5055.979"
"2053","5163.806"
"2054","5283.748"
"2055","5345.111"
"2056","5322.484"
"2057","5213.687"
"2058","5097.986"
"2059","5069.178"
"2060","5126.562"
"2061","5195.919"
"2062","5226.186"
"2063","5223.447"
"2064","5200.78"
"2065","5164.688"
"2066","5118.943"
"2067","5076.283"
"2068","5061.121"
"2069","5086.635"
"2070","5118.388"
"2071","5113.816"
"2072","5083.81"
"2073","5078.918"
"2074","5112.215"
"2075","5115.904"
"2076","5032.283"
"2077","4939.998"
"2078","4969.041"
"2079","5112.526"
"2080","5205.957"
"2081","5142.764"
"2082","5038.686"
"2083","5040.868"
"2084","5129.524"
"2085","5181.852"
"2086","5147.057"
"2087","5099.353"
"2088","5105.792"
"2089","5134.8"
"2090","5126.569"
"2091","5077.173"
"2092","5032.269"
"2093","5020.917"
"2094","5027.704"
"2095","5031.364"
"2096","5016.503"
"2097","4970.783"
"2098","4897.458"
"2099","4818.499"
"2100","4760.817"
"2101","4763.644"
"2102","4860.457"
"2103","4996.289"
"2104","5064.271"
"2105","5018.18"
"2106","4907.405"
"2107","4790.374"
"2108","4727.965"
"2109","4774.614"
"2110","4879.453"
"2111","4913.239"
"2112","4818.243"
"2113","4678.762"
"2114","4583.779"
"2115","4557.77"
"2116","4601.922"
"2117","4689.803"
"2118","4770.32"
"2119","4808.753"
"2120","4810.131"
"2121","4787.748"
"2122","4772.415"
"2123","4799.72"
"2124","4850.426"
"2125","4849.525"
"2126","4769.026"
"2127","4709.516"
"2128","4768.685"
"2129","4870.349"
"2130","4865.954"
"2131","4748.154"
"2132","4666.328"
"2133","4713.735"
"2134","4803.284"
"2135","4829.167"
"2136","4785.935"
"2137","4714.984"
"2138","4649.318"
"2139","4611.942"
"2140","4609.425"
"2141","4602.819"
"2142","4556.079"
"2143","4520.502"
"2144","4585.109"
"2145","4729.411"
"2146","4807.967"
"2147","4739.018"
"2148","4637.937"
"2149","4630.801"
"2150","4665.802"
"2151","4615.471"
"2152","4488.126"
"2153","4438.803"
"2154","4550.108"
"2155","4698.263"
"2156","4746.875"
"2157","4699.474"
"2158","4616.989"
"2159","4548.286"
"2160","4530.179"
"2161","4574.049"
"2162","4634.346"
"2163","4662.226"
"2164","4636.59"
"2165","4548.347"
"2166","4425.044"
"2167","4325.064"
"2168","4289.694"
"2169","4325.223"
"2170","4420.285"
"2171","4499.081"
"2172","4474.723"
"2173","4366.912"
"2174","4269.199"
"2175","4236.772"
"2176","4262.497"
"2177","4324.157"
"2178","4364.173"
"2179","4329.613"
"2180","4289.678"
"2181","4376.036"
"2182","4560.544"
"2183","4620.671"
"2184","4434.887"
"2185","4190.717"
"2186","4094.437"
"2187","4124.068"
"2188","4167.268"
"2189","4169.521"
"2190","4129.034"
"2191","4062.142"
"2192","4017.017"
"2193","4032.575"
"2194","4087.755"
"2195","4146.055"
"2196","4191.43"
"2197","4221.068"
"2198","4235.257"
"2199","4238.249"
"2200","4230.491"
"2201","4200.128"
"2202","4136.816"
"2203","4057.654"
"2204","3991.35"
"2205","3959.314"
"2206","3976.05"
"2207","4040.555"
"2208","4122.268"
"2209","4187.373"
"2210","4203.306"
"2211","4142.931"
"2212","4033.408"
"2213","3933.624"
"2214","3881.681"
"2215","3889.628"
"2216","3946.248"
"2217","3984.84"
"2218","3946.207"
"2219","3865.841"
"2220","3809.416"
"2221","3790.282"
"2222","3783.007"
"2223","3777.423"
"2224","3787.748"
"2225","3817.958"
"2226","3833.427"
"2227","3801.864"
"2228","3761.307"
"2229","3775.529"
"2230","3827.671"
"2231","3831.577"
"2232","3758.357"
"2233","3681.636"
"2234","3660.211"
"2235","3662.946"
"2236","3643.755"
"2237","3597.972"
"2238","3540.953"
"2239","3496.947"
"2240","3498.054"
"2241","3540.917"
"2242","3557.001"
"2243","3506.448"
"2244","3482.976"
"2245","3587.546"
"2246","3725.567"
"2247","3716.805"
"2248","3567.179"
"2249","3456.304"
"2250","3462.162"
"2251","3468.259"
"2252","3386.288"
"2253","3302.693"
"2254","3324.965"
"2255","3421.137"
"2256","3498.824"
"2257","3526.349"
"2258","3524.969"
"2259","3497.877"
"2260","3415.865"
"2261","3274.165"
"2262","3155.237"
"2263","3141.932"
"2264","3205.327"
"2265","3273.059"
"2266","3291.049"
"2267","3220.256"
"2268","3076.397"
"2269","2950.601"
"2270","2905.828"
"2271","2916.477"
"2272","2940.875"
"2273","2928.65"
"2274","2833.354"
"2275","2682.482"
"2276","2547.991"
"2277","2486.139"
"2278","2534.683"
"2279","2665.633"
"2280","2721.745"
"2281","2594.23"
"2282","2417.444"
"2283","2357.763"
"2284","2388.014"
"2285","2399.197"
"2286","2372.209"
"2287","2360.562"
"2288","2377.485"
"2289","2375.315"
"2290","2316.553"
"2291","2202.606"
"2292","2052.236"
"2293","1938.306"
"2294","1935.684"
"2295","1977.633"
"2296","1924.683"
"2297","1776.07"
"2298","1665.858"
"2299","1652.679"
"2300","1658.183"
