,"Scan 00987"
"400","10083.06"
"401","10099.55"
"402","10108.29"
"403","10109.25"
"404","10102.38"
"405","10088.04"
"406","10069.6"
"407","10051.98"
"408","10040.1"
"409","10038.33"
"410","10044.79"
"411","10053.22"
"412","10057.35"
"413","10051.25"
"414","10035.84"
"415","10018.33"
"416","10006.18"
"417","10006.62"
"418","10021.89"
"419","10048.06"
"420","10080.88"
"421","10116.08"
"422","10147.57"
"423","10166.3"
"424","10162.99"
"425","10128.52"
"426","10063.25"
"427","9987.354"
"428","9923.378"
"429","9893.671"
"430","9909.776"
"431","9954.314"
"432","10005.2"
"433","10040.51"
"434","10045.37"
"435","10028.97"
"436","10005.58"
"437","9989.417"
"438","9990.928"
"439","10004.58"
"440","10020.51"
"441","10028.91"
"442","10022.57"
"443","10008.15"
"444","9996.956"
"445","10000.25"
"446","10026.37"
"447","10064.53"
"448","10096.12"
"449","10102.61"
"450","10068.56"
"451","10003.23"
"452","9927.95"
"453","9863.999"
"454","9830.5"
"455","9826.153"
"456","9837.947"
"457","9852.813"
"458","9858.623"
"459","9853.72"
"460","9843.355"
"461","9832.869"
"462","9827.156"
"463","9825.068"
"464","9820.956"
"465","9809.095"
"466","9784.346"
"467","9750.933"
"468","9720.875"
"469","9706.351"
"470","9718.798"
"471","9756.208"
"472","9804.299"
"473","9848.407"
"474","9874.399"
"475","9877.909"
"476","9864.259"
"477","9839.156"
"478","9808.179"
"479","9774.313"
"480","9737.821"
"481","9698.818"
"482","9657.515"
"483","9616.587"
"484","9581.484"
"485","9557.762"
"486","9550.79"
"487","9560.951"
"488","9582.85"
"489","9610.79"
"490","9639.112"
"491","9661.983"
"492","9673.385"
"493","9667.311"
"494","9638.021"
"495","9587.553"
"496","9527.306"
"497","9469.183"
"498","9424.761"
"499","9397.091"
"500","9378.962"
"501","9362.591"
"502","9340.374"
"503","9309.05"
"504","9270.508"
"505","9226.925"
"506","9180.46"
"507","9133.081"
"508","9086.54"
"509","9042.564"
"510","9002.923"
"511","8970.816"
"512","8951.022"
"513","8948.377"
"514","8967.254"
"515","9001.075"
"516","9031.799"
"517","9040.937"
"518","9011.033"
"519","8945.604"
"520","8868.638"
"521","8804.86"
"522","8777.666"
"523","8787.329"
"524","8813.283"
"525","8834.332"
"526","8830.51"
"527","8800.574"
"528","8758.621"
"529","8719.119"
"530","8695.545"
"531","8688.38"
"532","8688.556"
"533","8686.829"
"534","8674.729"
"535","8652.394"
"536","8625.546"
"537","8599.981"
"538","8580.949"
"539","8568.618"
"540","8560.288"
"541","8553.241"
"542","8545.252"
"543","8538.082"
"544","8535.416"
"545","8540.927"
"546","8557.342"
"547","8581.104"
"548","8606.106"
"549","8626.265"
"550","8636.533"
"551","8637.359"
"552","8631.043"
"553","8619.875"
"554","8606.316"
"555","8593.629"
"556","8585.276"
"557","8584.705"
"558","8593.485"
"559","8606.673"
"560","8617.925"
"561","8620.939"
"562","8612.416"
"563","8597.273"
"564","8581.81"
"565","8572.276"
"566","8571.714"
"567","8576.29"
"568","8581.298"
"569","8582.093"
"570","8576.865"
"571","8568.551"
"572","8560.529"
"573","8556.041"
"574","8553.477"
"575","8544.926"
"576","8522.091"
"577","8477.323"
"578","8417.232"
"579","8362.65"
"580","8334.945"
"581","8353.597"
"582","8411.602"
"583","8481.889"
"584","8537.005"
"585","8552.382"
"586","8530.766"
"587","8490.343"
"588","8449.397"
"589","8423.758"
"590","8413.156"
"591","8410.715"
"592","8409.554"
"593","8404.668"
"594","8399.652"
"595","8400.588"
"596","8413.529"
"597","8441.641"
"598","8478.844"
"599","8517.225"
"600","8548.922"
"601","8568.486"
"602","8575.774"
"603","8571.359"
"604","8555.831"
"605","8531.158"
"606","8501.434"
"607","8470.906"
"608","8443.771"
"609","8423.034"
"610","8410.44"
"611","8407.661"
"612","8416.144"
"613","8434.127"
"614","8457.521"
"615","8482.188"
"616","8504.281"
"617","8522.181"
"618","8535.374"
"619","8543.358"
"620","8545.214"
"621","8537.874"
"622","8517.589"
"623","8480.63"
"624","8426.814"
"625","8367.281"
"626","8315.405"
"627","8284.455"
"628","8280.242"
"629","8293.604"
"630","8313.599"
"631","8329.513"
"632","8337.822"
"633","8344.268"
"634","8355.184"
"635","8376.539"
"636","8408.621"
"637","8447.024"
"638","8487.218"
"639","8524.447"
"640","8551.881"
"641","8561.623"
"642","8545.791"
"643","8500.098"
"644","8438.008"
"645","8378.441"
"646","8340.262"
"647","8335.249"
"648","8354.998"
"649","8387.535"
"650","8420.965"
"651","8446.379"
"652","8459.878"
"653","8458.063"
"654","8437.839"
"655","8403.234"
"656","8365.491"
"657","8336.138"
"658","8325.866"
"659","8336.844"
"660","8366.088"
"661","8410.563"
"662","8465.778"
"663","8519.203"
"664","8555.579"
"665","8559.7"
"666","8525.438"
"667","8473.501"
"668","8429.507"
"669","8418.743"
"670","8448.538"
"671","8496.748"
"672","8538.562"
"673","8550.314"
"674","8530.701"
"675","8499.202"
"676","8476.047"
"677","8478.888"
"678","8503.084"
"679","8532.425"
"680","8550.645"
"681","8546.052"
"682","8526.838"
"683","8506.596"
"684","8498.863"
"685","8511.612"
"686","8540.436"
"687","8579.241"
"688","8621.938"
"689","8661.445"
"690","8689.532"
"691","8697.908"
"692","8679.455"
"693","8640.324"
"694","8595.168"
"695","8558.746"
"696","8542.854"
"697","8543.839"
"698","8553.014"
"699","8561.713"
"700","8564.025"
"701","8560.992"
"702","8554.729"
"703","8547.388"
"704","8542.621"
"705","8545.99"
"706","8563.177"
"707","8598.854"
"708","8645.83"
"709","8689.111"
"710","8713.6"
"711","8708.05"
"712","8680.913"
"713","8646.924"
"714","8620.768"
"715","8611.403"
"716","8614.305"
"717","8623.006"
"718","8631.188"
"719","8636.526"
"720","8641.295"
"721","8648.016"
"722","8658.661"
"723","8669.854"
"724","8675.209"
"725","8668.325"
"726","8645.673"
"727","8615.503"
"728","8589.076"
"729","8577.571"
"730","8586.799"
"731","8612.703"
"732","8650.192"
"733","8694.158"
"734","8739.216"
"735","8779.74"
"736","8810.107"
"737","8825.506"
"738","8826.35"
"739","8815.147"
"740","8794.407"
"741","8768.216"
"742","8744.962"
"743","8733.728"
"744","8743.299"
"745","8772.547"
"746","8808.376"
"747","8836.989"
"748","8846.063"
"749","8836.997"
"750","8818.703"
"751","8800.163"
"752","8788.979"
"753","8787.756"
"754","8797.94"
"755","8820.939"
"756","8855.363"
"757","8895.538"
"758","8935.432"
"759","8969.123"
"760","8991.974"
"761","9000.201"
"762","8990.051"
"763","8960.799"
"764","8925.246"
"765","8899.952"
"766","8901.316"
"767","8932.916"
"768","8975.593"
"769","9007.872"
"770","9009.84"
"771","8984.133"
"772","8950.48"
"773","8929.008"
"774","8935.903"
"775","8968.147"
"776","9016.847"
"777","9073.128"
"778","9128.225"
"779","9173.583"
"780","9200.684"
"781","9202.011"
"782","9185.136"
"783","9169.286"
"784","9173.973"
"785","9212.724"
"786","9270.25"
"787","9322.577"
"788","9345.925"
"789","9332.098"
"790","9300.808"
"791","9274.662"
"792","9274.773"
"793","9302.393"
"794","9344.476"
"795","9387.683"
"796","9420.3"
"797","9437.573"
"798","9436.627"
"799","9414.688"
"800","9375.478"
"801","9332.872"
"802","9301.621"
"803","9294.946"
"804","9309.585"
"805","9332.23"
"806","9349.443"
"807","9352.148"
"808","9346.356"
"809","9341.332"
"810","9346.218"
"811","9365.786"
"812","9399.354"
"813","9445.886"
"814","9503.2"
"815","9560.082"
"816","9601.07"
"817","9610.71"
"818","9582.787"
"819","9534.482"
"820","9486.615"
"821","9459.254"
"822","9457.672"
"823","9473.517"
"824","9497.928"
"825","9522.871"
"826","9544.614"
"827","9560.823"
"828","9569.19"
"829","9568.893"
"830","9561.667"
"831","9549.506"
"832","9534.567"
"833","9520.882"
"834","9513.637"
"835","9518.035"
"836","9536.592"
"837","9563.161"
"838","9589.854"
"839","9608.983"
"840","9617.926"
"841","9619.595"
"842","9617.187"
"843","9613.743"
"844","9611.423"
"845","9612.048"
"846","9617.44"
"847","9628.99"
"848","9647.288"
"849","9672.84"
"850","9705.901"
"851","9743.854"
"852","9782.247"
"853","9816.606"
"854","9842.838"
"855","9858.063"
"856","9859.637"
"857","9845.16"
"858","9817.938"
"859","9787.109"
"860","9762.079"
"861","9750.813"
"862","9753.688"
"863","9768.574"
"864","9793.318"
"865","9824.171"
"866","9854.871"
"867","9878.936"
"868","9890.843"
"869","9893.466"
"870","9894.025"
"871","9899.764"
"872","9915.08"
"873","9937.538"
"874","9963.693"
"875","9990.078"
"876","10012.81"
"877","10027.7"
"878","10030.55"
"879","10019.69"
"880","10002.59"
"881","9988.749"
"882","9987.363"
"883","9999.703"
"884","10018.49"
"885","10036.02"
"886","10046.18"
"887","10051.26"
"888","10056.22"
"889","10066.02"
"890","10083.64"
"891","10109.19"
"892","10142.52"
"893","10182.76"
"894","10223.6"
"895","10256.27"
"896","10272.02"
"897","10268.21"
"898","10253.98"
"899","10239.86"
"900","10235.47"
"901","10241.51"
"902","10253.44"
"903","10266.61"
"904","10278.36"
"905","10290.84"
"906","10306.97"
"907","10329.38"
"908","10356.47"
"909","10383.55"
"910","10405.85"
"911","10420.3"
"912","10429.14"
"913","10435.67"
"914","10443"
"915","10451"
"916","10456.64"
"917","10456.82"
"918","10449.08"
"919","10433.55"
"920","10411"
"921","10382.39"
"922","10353.88"
"923","10337"
"924","10343.53"
"925","10381.12"
"926","10438.77"
"927","10500.27"
"928","10549.7"
"929","10581.31"
"930","10601.23"
"931","10616.25"
"932","10631.53"
"933","10643.73"
"934","10646.84"
"935","10635.05"
"936","10609.73"
"937","10581.51"
"938","10561.62"
"939","10559.2"
"940","10571.88"
"941","10593.32"
"942","10617.25"
"943","10640.29"
"944","10663"
"945","10686.21"
"946","10709.51"
"947","10725.23"
"948","10723.1"
"949","10693.11"
"950","10637.35"
"951","10574.77"
"952","10525.55"
"953","10506.75"
"954","10517.07"
"955","10548.57"
"956","10593.26"
"957","10641.17"
"958","10679.63"
"959","10695.76"
"960","10680.84"
"961","10649.84"
"962","10626.08"
"963","10632.43"
"964","10671.79"
"965","10720.57"
"966","10753.32"
"967","10750.21"
"968","10721.5"
"969","10687.43"
"970","10667.94"
"971","10670.64"
"972","10687.89"
"973","10711.09"
"974","10732.36"
"975","10747.21"
"976","10752.17"
"977","10743.95"
"978","10723.91"
"979","10698.65"
"980","10675.03"
"981","10659.93"
"982","10660.21"
"983","10682.74"
"984","10733.57"
"985","10800.66"
"986","10854.16"
"987","10863.46"
"988","10812.05"
"989","10734.34"
"990","10676.17"
"991","10680.74"
"992","10745.35"
"993","10828.82"
"994","10888.78"
"995","10898.38"
"996","10876.77"
"997","10851.54"
"998","10848.38"
"999","10868.43"
"1000","10895.75"
"1001","10914.12"
"1002","10914.14"
"1003","10902.6"
"1004","10888.65"
"1005","10881.4"
"1006","10888.4"
"1007","10906.32"
"1008","10927.36"
"1009","10943.77"
"1010","10950.49"
"1011","10946.36"
"1012","10930.5"
"1013","10904.15"
"1014","10879.86"
"1015","10874.01"
"1016","10902.49"
"1017","10963.81"
"1018","11036.16"
"1019","11096.56"
"1020","11126.83"
"1021","11129.18"
"1022","11111.18"
"1023","11080.62"
"1024","11048.89"
"1025","11030.74"
"1026","11041.07"
"1027","11086.76"
"1028","11149.5"
"1029","11206.02"
"1030","11234.74"
"1031","11236.45"
"1032","11227.63"
"1033","11225.06"
"1034","11237.95"
"1035","11258.25"
"1036","11275.54"
"1037","11280.66"
"1038","11275.51"
"1039","11267.53"
"1040","11264.17"
"1041","11269.85"
"1042","11284.06"
"1043","11305.86"
"1044","11333.53"
"1045","11360.99"
"1046","11380.64"
"1047","11385.24"
"1048","11377.17"
"1049","11369.43"
"1050","11375.5"
"1051","11403.2"
"1052","11440.17"
"1053","11469.59"
"1054","11476.07"
"1055","11463.85"
"1056","11451.4"
"1057","11457.47"
"1058","11490.08"
"1059","11533.78"
"1060","11569.98"
"1061","11583"
"1062","11579.11"
"1063","11574.53"
"1064","11585.26"
"1065","11614.96"
"1066","11650.65"
"1067","11678.16"
"1068","11687.32"
"1069","11684.81"
"1070","11681.74"
"1071","11688.53"
"1072","11704.49"
"1073","11719.95"
"1074","11724.98"
"1075","11715.66"
"1076","11702.12"
"1077","11696.48"
"1078","11708.96"
"1079","11735.24"
"1080","11764.3"
"1081","11785.21"
"1082","11792.94"
"1083","11790.03"
"1084","11779.58"
"1085","11765.45"
"1086","11754.61"
"1087","11754.78"
"1088","11772.71"
"1089","11802.68"
"1090","11830.12"
"1091","11840.3"
"1092","11826.03"
"1093","11794.63"
"1094","11755.05"
"1095","11715.61"
"1096","11680.87"
"1097","11654.03"
"1098","11638.15"
"1099","11632.61"
"1100","11633.17"
"1101","11635.47"
"1102","11637.09"
"1103","11640.8"
"1104","11650.29"
"1105","11668.75"
"1106","11695.91"
"1107","11729.75"
"1108","11768.15"
"1109","11804.58"
"1110","11827.03"
"1111","11823.12"
"1112","11788.62"
"1113","11747.07"
"1114","11727.89"
"1115","11756.42"
"1116","11815.7"
"1117","11863.91"
"1118","11859.58"
"1119","11796.98"
"1120","11723.22"
"1121","11689.72"
"1122","11730.5"
"1123","11811.05"
"1124","11879.94"
"1125","11890.24"
"1126","11848.61"
"1127","11796.71"
"1128","11776.38"
"1129","11801.41"
"1130","11840.79"
"1131","11859.48"
"1132","11832.72"
"1133","11778.57"
"1134","11726.16"
"1135","11702.63"
"1136","11710.02"
"1137","11733.71"
"1138","11758.91"
"1139","11780.08"
"1140","11806.3"
"1141","11847.94"
"1142","11908.36"
"1143","11963.05"
"1144","11980.58"
"1145","11933.63"
"1146","11840.81"
"1147","11749.27"
"1148","11706.03"
"1149","11728.47"
"1150","11791.44"
"1151","11866.48"
"1152","11929.8"
"1153","11973.84"
"1154","11994.49"
"1155","11988.87"
"1156","11964.89"
"1157","11936.26"
"1158","11916.56"
"1159","11914.23"
"1160","11931.52"
"1161","11970.33"
"1162","12027.83"
"1163","12088.26"
"1164","12133.68"
"1165","12149.44"
"1166","12143.53"
"1167","12133.32"
"1168","12135.41"
"1169","12149.42"
"1170","12159.35"
"1171","12148.69"
"1172","12114.53"
"1173","12081.25"
"1174","12076.53"
"1175","12118.28"
"1176","12178.83"
"1177","12217.14"
"1178","12196.59"
"1179","12133.09"
"1180","12076.81"
"1181","12077.58"
"1182","12141.85"
"1183","12216.65"
"1184","12244.67"
"1185","12193.15"
"1186","12101.95"
"1187","12024.35"
"1188","12006.38"
"1189","12044.28"
"1190","12113.57"
"1191","12190.13"
"1192","12258.06"
"1193","12308.63"
"1194","12333.44"
"1195","12333.65"
"1196","12327.33"
"1197","12334.25"
"1198","12366.88"
"1199","12410.05"
"1200","12442.13"
"1201","12444.36"
"1202","12422.52"
"1203","12394.73"
"1204","12378.57"
"1205","12377.33"
"1206","12380.03"
"1207","12375.12"
"1208","12358.68"
"1209","12341.68"
"1210","12336.84"
"1211","12352.85"
"1212","12381.98"
"1213","12412.38"
"1214","12433.62"
"1215","12447.97"
"1216","12464.27"
"1217","12490.9"
"1218","12524.5"
"1219","12550.09"
"1220","12552.31"
"1221","12527.37"
"1222","12493.1"
"1223","12469.73"
"1224","12470.98"
"1225","12486.59"
"1226","12500.74"
"1227","12500.31"
"1228","12492.58"
"1229","12494.11"
"1230","12520.33"
"1231","12565.41"
"1232","12605.53"
"1233","12616.63"
"1234","12596.47"
"1235","12576.32"
"1236","12590.29"
"1237","12655.03"
"1238","12737.28"
"1239","12794.9"
"1240","12794.53"
"1241","12751.47"
"1242","12697.72"
"1243","12663.55"
"1244","12659.66"
"1245","12684.45"
"1246","12735.76"
"1247","12801.22"
"1248","12857.27"
"1249","12879.89"
"1250","12861.65"
"1251","12826.94"
"1252","12803.76"
"1253","12811.27"
"1254","12838.09"
"1255","12866.19"
"1256","12880.8"
"1257","12887.92"
"1258","12901.78"
"1259","12935.14"
"1260","12982.48"
"1261","13025.86"
"1262","13047.42"
"1263","13040.03"
"1264","13008.78"
"1265","12959.49"
"1266","12905.43"
"1267","12874"
"1268","12894.19"
"1269","12975.22"
"1270","13061.89"
"1271","13085.87"
"1272","12997.01"
"1273","12848.64"
"1274","12730.74"
"1275","12724.23"
"1276","12815.95"
"1277","12937.36"
"1278","13021.25"
"1279","13043.87"
"1280","13022.47"
"1281","12975.85"
"1282","12920.51"
"1283","12869.48"
"1284","12835.46"
"1285","12825.89"
"1286","12835.56"
"1287","12857.37"
"1288","12884.94"
"1289","12914.65"
"1290","12943.6"
"1291","12968.69"
"1292","12985.82"
"1293","12990.47"
"1294","12979.3"
"1295","12962.11"
"1296","12956.92"
"1297","12981.13"
"1298","13035.89"
"1299","13106.89"
"1300","13179.13"
"1301","13235.13"
"1302","13253.78"
"1303","13213.81"
"1304","13117.43"
"1305","13017.43"
"1306","12973.26"
"1307","13020.59"
"1308","13116.46"
"1309","13201.58"
"1310","13227.94"
"1311","13205.5"
"1312","13162.74"
"1313","13126.14"
"1314","13106.08"
"1315","13105.25"
"1316","13125"
"1317","13150.35"
"1318","13154.9"
"1319","13113.58"
"1320","13038.16"
"1321","12976.98"
"1322","12979.11"
"1323","13050.03"
"1324","13133.95"
"1325","13170.7"
"1326","13135.51"
"1327","13074.14"
"1328","13040.7"
"1329","13069.35"
"1330","13137.52"
"1331","13212.66"
"1332","13267.98"
"1333","13300.16"
"1334","13311.89"
"1335","13305.7"
"1336","13283.26"
"1337","13245.92"
"1338","13196.45"
"1339","13149.57"
"1340","13126.03"
"1341","13144.25"
"1342","13193.29"
"1343","13242.18"
"1344","13261.17"
"1345","13250.94"
"1346","13239.8"
"1347","13256.16"
"1348","13299.1"
"1349","13332.68"
"1350","13319.42"
"1351","13253.85"
"1352","13180.5"
"1353","13148.14"
"1354","13179.44"
"1355","13243.69"
"1356","13303.64"
"1357","13330.16"
"1358","13315.97"
"1359","13257.4"
"1360","13160.46"
"1361","13065.09"
"1362","13018.74"
"1363","13053.27"
"1364","13128.83"
"1365","13184.88"
"1366","13173.79"
"1367","13125.15"
"1368","13097.12"
"1369","13137.62"
"1370","13214.25"
"1371","13257.01"
"1372","13204.88"
"1373","13090.29"
"1374","13000.1"
"1375","13014.71"
"1376","13118.09"
"1377","13225.37"
"1378","13254.42"
"1379","13199.59"
"1380","13121.38"
"1381","13080.66"
"1382","13093.42"
"1383","13128.99"
"1384","13155.08"
"1385","13157.99"
"1386","13146.96"
"1387","13132.57"
"1388","13120.06"
"1389","13106.92"
"1390","13090.07"
"1391","13072.99"
"1392","13070.34"
"1393","13097.78"
"1394","13155.07"
"1395","13210.13"
"1396","13227.17"
"1397","13191.11"
"1398","13135.09"
"1399","13099.11"
"1400","13104.3"
"1401","13121.17"
"1402","13111.77"
"1403","13055.12"
"1404","12982.47"
"1405","12935.1"
"1406","12941.46"
"1407","12984.64"
"1408","13037.75"
"1409","13078.2"
"1410","13100.46"
"1411","13103.21"
"1412","13087.44"
"1413","13064.28"
"1414","13047.7"
"1415","13048.94"
"1416","13065.64"
"1417","13091.24"
"1418","13118.71"
"1419","13138.27"
"1420","13139.22"
"1421","13114.48"
"1422","13078.33"
"1423","13052.91"
"1424","13056.95"
"1425","13087.19"
"1426","13131.71"
"1427","13178.52"
"1428","13215.09"
"1429","13228.7"
"1430","13211.43"
"1431","13190.4"
"1432","13208.2"
"1433","13297.95"
"1434","13419.57"
"1435","13499.18"
"1436","13474.73"
"1437","13380.03"
"1438","13294.75"
"1439","13288.6"
"1440","13346.9"
"1441","13413.63"
"1442","13438.89"
"1443","13427.16"
"1444","13409.99"
"1445","13415.13"
"1446","13436.39"
"1447","13450.57"
"1448","13437.94"
"1449","13409.81"
"1450","13393.03"
"1451","13410.13"
"1452","13446.15"
"1453","13467.52"
"1454","13445.06"
"1455","13386.98"
"1456","13319.82"
"1457","13267.33"
"1458","13230.27"
"1459","13198.42"
"1460","13162.98"
"1461","13126.4"
"1462","13096.32"
"1463","13078.88"
"1464","13069.26"
"1465","13057.83"
"1466","13036.6"
"1467","13008.85"
"1468","12982.58"
"1469","12963.16"
"1470","12939.1"
"1471","12892.31"
"1472","12810.86"
"1473","12719.25"
"1474","12655.27"
"1475","12649.59"
"1476","12694.34"
"1477","12768.69"
"1478","12850.31"
"1479","12909.48"
"1480","12914.26"
"1481","12846.06"
"1482","12745.57"
"1483","12669.85"
"1484","12659.63"
"1485","12690.92"
"1486","12723.74"
"1487","12728.78"
"1488","12714.11"
"1489","12695.96"
"1490","12684.14"
"1491","12668.78"
"1492","12636.17"
"1493","12583.32"
"1494","12535.82"
"1495","12523.95"
"1496","12559.34"
"1497","12610.09"
"1498","12638.23"
"1499","12626.83"
"1500","12601.23"
"1501","12591.63"
"1502","12608.95"
"1503","12630.9"
"1504","12632.27"
"1505","12607.7"
"1506","12581.13"
"1507","12578.23"
"1508","12600.83"
"1509","12620.97"
"1510","12609.94"
"1511","12567.68"
"1512","12524.46"
"1513","12510.49"
"1514","12527.71"
"1515","12553.02"
"1516","12563.77"
"1517","12555.12"
"1518","12535.33"
"1519","12512.96"
"1520","12496.25"
"1521","12493.29"
"1522","12510.26"
"1523","12537.72"
"1524","12558.6"
"1525","12557.63"
"1526","12531.16"
"1527","12480.09"
"1528","12408.3"
"1529","12334.08"
"1530","12280.17"
"1531","12263.46"
"1532","12278.63"
"1533","12315.12"
"1534","12362.11"
"1535","12408.08"
"1536","12441.38"
"1537","12454.42"
"1538","12448.71"
"1539","12427.02"
"1540","12396.62"
"1541","12372.48"
"1542","12369.9"
"1543","12386.63"
"1544","12397.22"
"1545","12376.03"
"1546","12331.7"
"1547","12307.58"
"1548","12344.46"
"1549","12419.85"
"1550","12462.38"
"1551","12409.09"
"1552","12295.76"
"1553","12215.57"
"1554","12245.19"
"1555","12339.44"
"1556","12400.88"
"1557","12356.19"
"1558","12253.19"
"1559","12177.17"
"1560","12184.87"
"1561","12232.71"
"1562","12255.22"
"1563","12214.52"
"1564","12141.07"
"1565","12075.53"
"1566","12040.63"
"1567","12027.45"
"1568","12023.96"
"1569","12024.09"
"1570","12029.23"
"1571","12041.11"
"1572","12058.69"
"1573","12078.42"
"1574","12096.85"
"1575","12113.08"
"1576","12127.86"
"1577","12141.12"
"1578","12146.85"
"1579","12136.37"
"1580","12104.95"
"1581","12067.01"
"1582","12042.73"
"1583","12045.17"
"1584","12064.95"
"1585","12088.25"
"1586","12104.32"
"1587","12108.9"
"1588","12098.7"
"1589","12079.01"
"1590","12067.24"
"1591","12080.61"
"1592","12111.92"
"1593","12130.44"
"1594","12107.71"
"1595","12053.36"
"1596","12001.68"
"1597","11982.09"
"1598","11987.25"
"1599","11994.23"
"1600","11986.05"
"1601","11971.58"
"1602","11966.64"
"1603","11979.56"
"1604","11998.72"
"1605","12009.28"
"1606","12006.32"
"1607","12001.7"
"1608","12008.49"
"1609","12027.93"
"1610","12048.23"
"1611","12057.57"
"1612","12052.47"
"1613","12035.35"
"1614","12009.74"
"1615","11986.17"
"1616","11978.32"
"1617","11995.44"
"1618","12028.03"
"1619","12061.52"
"1620","12082.06"
"1621","12077.5"
"1622","12036.26"
"1623","11966.35"
"1624","11905.86"
"1625","11893.89"
"1626","11935.74"
"1627","12004.53"
"1628","12072.99"
"1629","12122.97"
"1630","12141.59"
"1631","12120.4"
"1632","12074.86"
"1633","12028.69"
"1634","11998.48"
"1635","11978.77"
"1636","11959.85"
"1637","11940.34"
"1638","11933.65"
"1639","11954.1"
"1640","11998.12"
"1641","12043.13"
"1642","12067.4"
"1643","12069.63"
"1644","12061.31"
"1645","12052.62"
"1646","12044.74"
"1647","12035.62"
"1648","12023.52"
"1649","12007.55"
"1650","11987.04"
"1651","11965.21"
"1652","11951.95"
"1653","11957.43"
"1654","11982.73"
"1655","12019.92"
"1656","12060.34"
"1657","12092.27"
"1658","12102.21"
"1659","12079.51"
"1660","12027.47"
"1661","11953.65"
"1662","11872.75"
"1663","11817.48"
"1664","11822.61"
"1665","11885.97"
"1666","11954.36"
"1667","11974.33"
"1668","11945.36"
"1669","11907.41"
"1670","11895.38"
"1671","11902.71"
"1672","11905.76"
"1673","11886.09"
"1674","11842.82"
"1675","11778.82"
"1676","11706.66"
"1677","11655.57"
"1678","11654.6"
"1679","11695.61"
"1680","11736.15"
"1681","11738.03"
"1682","11708.71"
"1683","11677.96"
"1684","11668.17"
"1685","11672.59"
"1686","11677.46"
"1687","11671.96"
"1688","11650.91"
"1689","11610.31"
"1690","11558.46"
"1691","11515.89"
"1692","11500.54"
"1693","11503.17"
"1694","11500.72"
"1695","11475.69"
"1696","11432.86"
"1697","11382.52"
"1698","11338.63"
"1699","11321.91"
"1700","11352.44"
"1701","11419.28"
"1702","11482.15"
"1703","11504.62"
"1704","11490.08"
"1705","11460.69"
"1706","11435.7"
"1707","11423.77"
"1708","11431.12"
"1709","11456.42"
"1710","11485.95"
"1711","11505.33"
"1712","11508.47"
"1713","11496.01"
"1714","11469.92"
"1715","11439.19"
"1716","11415.53"
"1717","11403.34"
"1718","11387.02"
"1719","11348.16"
"1720","11292.81"
"1721","11258.29"
"1722","11278.92"
"1723","11333.56"
"1724","11366.96"
"1725","11340.3"
"1726","11289.43"
"1727","11270.52"
"1728","11307.9"
"1729","11364.59"
"1730","11398.48"
"1731","11403.03"
"1732","11403.59"
"1733","11421.21"
"1734","11440.55"
"1735","11431.38"
"1736","11381.84"
"1737","11330.75"
"1738","11324.42"
"1739","11367.88"
"1740","11415.53"
"1741","11423.19"
"1742","11390.99"
"1743","11343.67"
"1744","11303.51"
"1745","11282.27"
"1746","11289.04"
"1747","11317.46"
"1748","11336.8"
"1749","11317.08"
"1750","11266.76"
"1751","11221.42"
"1752","11208.77"
"1753","11216.31"
"1754","11219.71"
"1755","11203.47"
"1756","11169.06"
"1757","11120.94"
"1758","11082.14"
"1759","11091.09"
"1760","11173.07"
"1761","11276.37"
"1762","11322.58"
"1763","11277.65"
"1764","11204.56"
"1765","11175.95"
"1766","11198.35"
"1767","11217.3"
"1768","11187.9"
"1769","11139.55"
"1770","11129.92"
"1771","11183.56"
"1772","11247.31"
"1773","11259.52"
"1774","11215.32"
"1775","11164.61"
"1776","11150.23"
"1777","11155.25"
"1778","11139.49"
"1779","11091.12"
"1780","11064.9"
"1781","11121.48"
"1782","11244.09"
"1783","11342.75"
"1784","11342.38"
"1785","11277.04"
"1786","11221.58"
"1787","11216.76"
"1788","11228.33"
"1789","11214.13"
"1790","11171.06"
"1791","11130.1"
"1792","11118.3"
"1793","11135.06"
"1794","11170.5"
"1795","11209.11"
"1796","11224.61"
"1797","11192.45"
"1798","11131.17"
"1799","11092.04"
"1800","11111.74"
"1801","11157.54"
"1802","11177.85"
"1803","11156.57"
"1804","11134.51"
"1805","11152.52"
"1806","11195.18"
"1807","11212.33"
"1808","11174.9"
"1809","11128.96"
"1810","11135.4"
"1811","11198.06"
"1812","11249.32"
"1813","11227.14"
"1814","11149.45"
"1815","11071.71"
"1816","11030.58"
"1817","11014.23"
"1818","11003.96"
"1819","10994.83"
"1820","10994.61"
"1821","11010.04"
"1822","11039.77"
"1823","11079.69"
"1824","11118.19"
"1825","11130.53"
"1826","11093.76"
"1827","11021.74"
"1828","10952.08"
"1829","10914.82"
"1830","10912.56"
"1831","10941.65"
"1832","10987.38"
"1833","11022.03"
"1834","11023.07"
"1835","11008.42"
"1836","11012.67"
"1837","11049.17"
"1838","11086.35"
"1839","11089.36"
"1840","11058.07"
"1841","11018.13"
"1842","10988.63"
"1843","10960.99"
"1844","10920.53"
"1845","10877.01"
"1846","10871"
"1847","10934.37"
"1848","11022.92"
"1849","11059.76"
"1850","11008.67"
"1851","10920.33"
"1852","10853.91"
"1853","10830.93"
"1854","10845.76"
"1855","10888.84"
"1856","10938.73"
"1857","10971.67"
"1858","10978.02"
"1859","10964.32"
"1860","10939.5"
"1861","10921.13"
"1862","10929.92"
"1863","10966.03"
"1864","10992.48"
"1865","10973.41"
"1866","10926.13"
"1867","10899.69"
"1868","10920.02"
"1869","10946.52"
"1870","10930"
"1871","10882.09"
"1872","10868.9"
"1873","10936.13"
"1874","11030.64"
"1875","11073.41"
"1876","11042.25"
"1877","10989.38"
"1878","10964.48"
"1879","10965.19"
"1880","10967.76"
"1881","10960.55"
"1882","10954.79"
"1883","10962.05"
"1884","10971.3"
"1885","10958.15"
"1886","10916.08"
"1887","10886.76"
"1888","10916.5"
"1889","10996.66"
"1890","11073.84"
"1891","11101.95"
"1892","11067.61"
"1893","10966.36"
"1894","10830.41"
"1895","10731.74"
"1896","10728.59"
"1897","10797.32"
"1898","10888.22"
"1899","10961.1"
"1900","10989.38"
"1901","10954.23"
"1902","10883.77"
"1903","10825.83"
"1904","10806.83"
"1905","10814.3"
"1906","10832.44"
"1907","10852.69"
"1908","10870.37"
"1909","10880.7"
"1910","10878.58"
"1911","10859.81"
"1912","10831.89"
"1913","10809.99"
"1914","10802.58"
"1915","10799"
"1916","10786.69"
"1917","10775.68"
"1918","10793.84"
"1919","10856.33"
"1920","10933.87"
"1921","10988.57"
"1922","10997.25"
"1923","10950.27"
"1924","10852.06"
"1925","10760.13"
"1926","10742.09"
"1927","10788.59"
"1928","10809.76"
"1929","10743.82"
"1930","10672.49"
"1931","10713.78"
"1932","10859.81"
"1933","10956.83"
"1934","10884.55"
"1935","10731.45"
"1936","10648.23"
"1937","10685.23"
"1938","10766.94"
"1939","10818.31"
"1940","10810.71"
"1941","10732.13"
"1942","10616.75"
"1943","10559.92"
"1944","10634.01"
"1945","10756.8"
"1946","10794.13"
"1947","10715.38"
"1948","10631.26"
"1949","10638.69"
"1950","10694.87"
"1951","10708.43"
"1952","10648.13"
"1953","10565.39"
"1954","10512.13"
"1955","10508.18"
"1956","10561.32"
"1957","10650.05"
"1958","10713.54"
"1959","10703.96"
"1960","10661.54"
"1961","10655.18"
"1962","10694.23"
"1963","10711.2"
"1964","10652.87"
"1965","10566.99"
"1966","10532.04"
"1967","10560.64"
"1968","10585.91"
"1969","10552.19"
"1970","10479.87"
"1971","10411.54"
"1972","10380.32"
"1973","10408.89"
"1974","10498.66"
"1975","10564.09"
"1976","10502.13"
"1977","10335.6"
"1978","10211.27"
"1979","10235.23"
"1980","10345.23"
"1981","10443.66"
"1982","10489.05"
"1983","10488.01"
"1984","10451.23"
"1985","10397.15"
"1986","10345.19"
"1987","10307.31"
"1988","10290.02"
"1989","10295.24"
"1990","10313.49"
"1991","10333.36"
"1992","10342.34"
"1993","10327.35"
"1994","10290.03"
"1995","10262.36"
"1996","10273.87"
"1997","10302.8"
"1998","10302.85"
"1999","10260.27"
"2000","10214.95"
"2001","10202.61"
"2002","10202.26"
"2003","10172.38"
"2004","10111.24"
"2005","10068.18"
"2006","10081.57"
"2007","10124.04"
"2008","10150.51"
"2009","10142.06"
"2010","10105.52"
"2011","10048.07"
"2012","9974.47"
"2013","9890.769"
"2014","9827.641"
"2015","9833.796"
"2016","9919.621"
"2017","10002.89"
"2018","9999.633"
"2019","9935.929"
"2020","9896.11"
"2021","9915.216"
"2022","9943.438"
"2023","9936.028"
"2024","9929.419"
"2025","9988.034"
"2026","10097.16"
"2027","10147.26"
"2028","10065.63"
"2029","9950.071"
"2030","9933.208"
"2031","10012.73"
"2032","10074.46"
"2033","10044.67"
"2034","9964.358"
"2035","9889.153"
"2036","9836.879"
"2037","9804.367"
"2038","9790.354"
"2039","9797.201"
"2040","9823.943"
"2041","9848.416"
"2042","9841.588"
"2043","9796.414"
"2044","9730.213"
"2045","9666.785"
"2046","9647.833"
"2047","9711.914"
"2048","9802.866"
"2049","9797.854"
"2050","9658.324"
"2051","9526.63"
"2052","9543.893"
"2053","9675.416"
"2054","9810.696"
"2055","9864.991"
"2056","9787.27"
"2057","9568.144"
"2058","9356.739"
"2059","9329.29"
"2060","9460.559"
"2061","9568.669"
"2062","9546.748"
"2063","9467.848"
"2064","9420.396"
"2065","9420.866"
"2066","9453.114"
"2067","9499.562"
"2068","9540.989"
"2069","9562.732"
"2070","9568.805"
"2071","9567.122"
"2072","9555.581"
"2073","9524.656"
"2074","9474.569"
"2075","9426.421"
"2076","9399.97"
"2077","9388.066"
"2078","9373.032"
"2079","9351.77"
"2080","9337.986"
"2081","9336.226"
"2082","9317.495"
"2083","9252.658"
"2084","9188.652"
"2085","9218.726"
"2086","9346.011"
"2087","9419.596"
"2088","9319.625"
"2089","9161.166"
"2090","9124.927"
"2091","9224.926"
"2092","9327.278"
"2093","9342.077"
"2094","9298.746"
"2095","9242.191"
"2096","9200.458"
"2097","9193.192"
"2098","9209.787"
"2099","9203.299"
"2100","9145.399"
"2101","9077.081"
"2102","9048.48"
"2103","9053.262"
"2104","9051.723"
"2105","9024.769"
"2106","8986.142"
"2107","8950.594"
"2108","8924.74"
"2109","8912.823"
"2110","8916.708"
"2111","8936.403"
"2112","8963.703"
"2113","8974.668"
"2114","8951.413"
"2115","8919.311"
"2116","8916.647"
"2117","8946.015"
"2118","8978.08"
"2119","8989.282"
"2120","8972.013"
"2121","8923.775"
"2122","8861.024"
"2123","8807.359"
"2124","8775.2"
"2125","8765.547"
"2126","8772.455"
"2127","8773.406"
"2128","8747.093"
"2129","8701.039"
"2130","8655.342"
"2131","8622.515"
"2132","8606.597"
"2133","8605.485"
"2134","8601.186"
"2135","8575.251"
"2136","8527.864"
"2137","8467.959"
"2138","8404.517"
"2139","8346.519"
"2140","8305.228"
"2141","8298.321"
"2142","8339.61"
"2143","8403.186"
"2144","8445.297"
"2145","8452.795"
"2146","8447.507"
"2147","8443.834"
"2148","8430.063"
"2149","8394.841"
"2150","8363.445"
"2151","8375.441"
"2152","8407.327"
"2153","8367.638"
"2154","8222.828"
"2155","8097.855"
"2156","8117.609"
"2157","8233.05"
"2158","8325.714"
"2159","8338.06"
"2160","8272.395"
"2161","8163.242"
"2162","8112.634"
"2163","8198.185"
"2164","8300.227"
"2165","8240.013"
"2166","8048.075"
"2167","7930.827"
"2168","7973.897"
"2169","8019.411"
"2170","7933.909"
"2171","7832.068"
"2172","7884.073"
"2173","8025.653"
"2174","8031.421"
"2175","7841.015"
"2176","7656.589"
"2177","7634.506"
"2178","7677.326"
"2179","7647.842"
"2180","7586.447"
"2181","7627.433"
"2182","7779.969"
"2183","7900.375"
"2184","7888.605"
"2185","7789.913"
"2186","7669.667"
"2187","7562.256"
"2188","7489.273"
"2189","7467.083"
"2190","7507.078"
"2191","7588.108"
"2192","7625.563"
"2193","7560.11"
"2194","7482.674"
"2195","7512.22"
"2196","7591.773"
"2197","7554.354"
"2198","7387.374"
"2199","7292.296"
"2200","7393.032"
"2201","7531.863"
"2202","7526.902"
"2203","7404.493"
"2204","7278.685"
"2205","7210.024"
"2206","7209.139"
"2207","7264.031"
"2208","7322.495"
"2209","7340.448"
"2210","7329.742"
"2211","7313.942"
"2212","7280.67"
"2213","7197.454"
"2214","7075.21"
"2215","6978.202"
"2216","6950.961"
"2217","6978.723"
"2218","7032.881"
"2219","7059.673"
"2220","7002.429"
"2221","6893.572"
"2222","6830.818"
"2223","6841.903"
"2224","6846.834"
"2225","6794.769"
"2226","6755.201"
"2227","6799.111"
"2228","6840.742"
"2229","6737.61"
"2230","6538.177"
"2231","6454.948"
"2232","6559.143"
"2233","6669.453"
"2234","6643.355"
"2235","6567.853"
"2236","6559.243"
"2237","6558.588"
"2238","6432.775"
"2239","6228.965"
"2240","6161.661"
"2241","6296.025"
"2242","6412.943"
"2243","6338.724"
"2244","6184.599"
"2245","6107.667"
"2246","6094.869"
"2247","6055.343"
"2248","5988.341"
"2249","5977.224"
"2250","6039.23"
"2251","6067.249"
"2252","5985.962"
"2253","5881.609"
"2254","5857.454"
"2255","5869.403"
"2256","5810.757"
"2257","5661.792"
"2258","5479.039"
"2259","5325.447"
"2260","5270.059"
"2261","5336.615"
"2262","5402.637"
"2263","5346.345"
"2264","5241.524"
"2265","5227.663"
"2266","5262.772"
"2267","5171.309"
"2268","4945.786"
"2269","4816.268"
"2270","4898.486"
"2271","4963.421"
"2272","4795.153"
"2273","4534.588"
"2274","4417.344"
"2275","4461.541"
"2276","4554.13"
"2277","4608.555"
"2278","4569.773"
"2279","4423.19"
"2280","4231.915"
"2281","4063.229"
"2282","3964.217"
"2283","3967.116"
"2284","4027.83"
"2285","4069.798"
"2286","4051.004"
"2287","3958.221"
"2288","3807.665"
"2289","3656.628"
"2290","3544.046"
"2291","3452.634"
"2292","3358.16"
"2293","3246.753"
"2294","3111.273"
"2295","2979.203"
"2296","2895.362"
"2297","2860.153"
"2298","2830.72"
"2299","2777.354"
"2300","2695.684"
