,"Scan 00964"
"400","14975.6"
"401","14960.14"
"402","14940.84"
"403","14927.12"
"404","14928.32"
"405","14952.26"
"406","14993.84"
"407","15041.51"
"408","15083.74"
"409","15109.6"
"410","15114.84"
"411","15099.93"
"412","15065.39"
"413","15012.13"
"414","14949.09"
"415","14892.59"
"416","14859.15"
"417","14864.66"
"418","14906.58"
"419","14959.75"
"420","14997.78"
"421","14994.74"
"422","14943.47"
"423","14866.87"
"424","14790.44"
"425","14739.41"
"426","14726.49"
"427","14738.49"
"428","14759.03"
"429","14771.87"
"430","14767.53"
"431","14754.58"
"432","14744.56"
"433","14748.91"
"434","14773.84"
"435","14807.61"
"436","14834.66"
"437","14839.58"
"438","14812.22"
"439","14765.28"
"440","14717.61"
"441","14687.92"
"442","14690.24"
"443","14713.42"
"444","14737.85"
"445","14744.04"
"446","14716.21"
"447","14662.76"
"448","14602.01"
"449","14552.23"
"450","14529.09"
"451","14527.91"
"452","14534.05"
"453","14532.89"
"454","14511.31"
"455","14470.55"
"456","14420.07"
"457","14369.36"
"458","14327.39"
"459","14297.56"
"460","14279.51"
"461","14272.85"
"462","14276.89"
"463","14286.72"
"464","14294.28"
"465","14291.48"
"466","14270.88"
"467","14235.08"
"468","14195.06"
"469","14162"
"470","14146.51"
"471","14149.62"
"472","14163.63"
"473","14180.52"
"474","14192.59"
"475","14197.17"
"476","14196.67"
"477","14193.67"
"478","14190.65"
"479","14187.61"
"480","14181.91"
"481","14170.8"
"482","14151.67"
"483","14125.55"
"484","14097.53"
"485","14072.88"
"486","14056.63"
"487","14047.89"
"488","14038.86"
"489","14021.38"
"490","13987.63"
"491","13938.55"
"492","13885.56"
"493","13840.64"
"494","13815.27"
"495","13807.42"
"496","13798.72"
"497","13769.92"
"498","13702.51"
"499","13598.47"
"500","13484.49"
"501","13388.59"
"502","13337.86"
"503","13335.25"
"504","13354.99"
"505","13369.8"
"506","13353.27"
"507","13300.98"
"508","13233.81"
"509","13173.97"
"510","13142.87"
"511","13143.65"
"512","13159.22"
"513","13171.52"
"514","13163.18"
"515","13131.46"
"516","13088.95"
"517","13048.86"
"518","13023.91"
"519","13016.61"
"520","13019.52"
"521","13024.82"
"522","13024.95"
"523","13016.74"
"524","13001"
"525","12978.65"
"526","12950.65"
"527","12918.68"
"528","12884.96"
"529","12851.73"
"530","12821.16"
"531","12794.44"
"532","12772.08"
"533","12754.57"
"534","12742.2"
"535","12733.01"
"536","12723.6"
"537","12710.54"
"538","12690.82"
"539","12665.2"
"540","12636.59"
"541","12607.9"
"542","12581.8"
"543","12559.05"
"544","12539.47"
"545","12522.91"
"546","12508.97"
"547","12495.9"
"548","12481.38"
"549","12463.1"
"550","12439.49"
"551","12412.86"
"552","12386.81"
"553","12364.95"
"554","12350.15"
"555","12342.23"
"556","12340.11"
"557","12342.77"
"558","12348.88"
"559","12356.07"
"560","12361.77"
"561","12363.44"
"562","12358.95"
"563","12347.31"
"564","12327.77"
"565","12299.56"
"566","12263.34"
"567","12222.8"
"568","12182.02"
"569","12145.04"
"570","12114.95"
"571","12093.29"
"572","12081.39"
"573","12080.55"
"574","12088.84"
"575","12100.17"
"576","12108.2"
"577","12106.91"
"578","12096.7"
"579","12084.43"
"580","12077.2"
"581","12081.42"
"582","12093.96"
"583","12104.44"
"584","12102.37"
"585","12078.96"
"586","12042.19"
"587","12009.44"
"588","11998.16"
"589","12021.88"
"590","12068.36"
"591","12114.82"
"592","12138.5"
"593","12122.92"
"594","12080.32"
"595","12031.29"
"596","11996.31"
"597","11988.86"
"598","12000.02"
"599","12016.43"
"600","12024.82"
"601","12017.8"
"602","12001.02"
"603","11981.86"
"604","11967.53"
"605","11959.35"
"606","11949.53"
"607","11929.54"
"608","11891.39"
"609","11840.26"
"610","11795.37"
"611","11776.58"
"612","11801.71"
"613","11861.27"
"614","11925.77"
"615","11965.36"
"616","11954.66"
"617","11904.36"
"618","11842.91"
"619","11798.8"
"620","11794.03"
"621","11817.93"
"622","11849.45"
"623","11867.59"
"624","11858.28"
"625","11829.44"
"626","11793.36"
"627","11762.25"
"628","11743.24"
"629","11733.28"
"630","11728.08"
"631","11723.48"
"632","11717.82"
"633","11712.78"
"634","11710.21"
"635","11711.87"
"636","11717.79"
"637","11726.57"
"638","11736.75"
"639","11746.96"
"640","11756.35"
"641","11764.35"
"642","11770.38"
"643","11773.83"
"644","11774"
"645","11770.11"
"646","11761.42"
"647","11748.15"
"648","11733.46"
"649","11720.98"
"650","11714.3"
"651","11714.32"
"652","11717.37"
"653","11719.36"
"654","11716.32"
"655","11706.72"
"656","11691.56"
"657","11671.91"
"658","11649.17"
"659","11628.13"
"660","11615.63"
"661","11618.48"
"662","11640.88"
"663","11672.46"
"664","11697.94"
"665","11702.05"
"666","11676.63"
"667","11634.44"
"668","11592.06"
"669","11565.89"
"670","11562.81"
"671","11574.04"
"672","11589.37"
"673","11598.92"
"674","11598.46"
"675","11589.01"
"676","11571.82"
"677","11548.51"
"678","11524.15"
"679","11505.6"
"680","11499.7"
"681","11511.46"
"682","11537.85"
"683","11573.65"
"684","11613.67"
"685","11652.59"
"686","11684.77"
"687","11704.58"
"688","11706.58"
"689","11692.17"
"690","11670.92"
"691","11652.84"
"692","11647.04"
"693","11652.5"
"694","11661.69"
"695","11666.97"
"696","11662.44"
"697","11651.07"
"698","11638.74"
"699","11631.32"
"700","11631.38"
"701","11633.22"
"702","11629.86"
"703","11614.54"
"704","11588.31"
"705","11562.22"
"706","11547.94"
"707","11555.81"
"708","11580.08"
"709","11604.46"
"710","11612.52"
"711","11592.2"
"712","11553.84"
"713","11514.93"
"714","11492.87"
"715","11496.28"
"716","11512.99"
"717","11527.87"
"718","11526.25"
"719","11507.28"
"720","11485.96"
"721","11478.15"
"722","11497.55"
"723","11537.3"
"724","11578.88"
"725","11603.74"
"726","11598.72"
"727","11572.9"
"728","11541.04"
"729","11517.78"
"730","11510.58"
"731","11513.71"
"732","11520"
"733","11522.68"
"734","11521.27"
"735","11520.78"
"736","11526.39"
"737","11541.98"
"738","11562.99"
"739","11581.48"
"740","11589.53"
"741","11583.32"
"742","11570.08"
"743","11558.9"
"744","11558.6"
"745","11570.48"
"746","11586.69"
"747","11598.83"
"748","11599.61"
"749","11591.97"
"750","11584.44"
"751","11585.58"
"752","11600.52"
"753","11621.69"
"754","11638.68"
"755","11641.23"
"756","11628.66"
"757","11614.93"
"758","11615.25"
"759","11643.17"
"760","11691.81"
"761","11740.46"
"762","11768.19"
"763","11759.87"
"764","11726.3"
"765","11685.47"
"766","11655.27"
"767","11645.44"
"768","11651.35"
"769","11666.88"
"770","11686.06"
"771","11705.14"
"772","11722.04"
"773","11734.72"
"774","11741.97"
"775","11746.55"
"776","11752.44"
"777","11763.6"
"778","11780.89"
"779","11799.45"
"780","11813.79"
"781","11819.05"
"782","11820.07"
"783","11829.15"
"784","11858.78"
"785","11916.29"
"786","11984.12"
"787","12037.21"
"788","12050.74"
"789","12016.88"
"790","11958.35"
"791","11901.02"
"792","11869.24"
"793","11867.03"
"794","11883.79"
"795","11908.63"
"796","11931.77"
"797","11948.37"
"798","11954.87"
"799","11947.83"
"800","11929.54"
"801","11911.28"
"802","11905.07"
"803","11921.45"
"804","11954.51"
"805","11988.32"
"806","12006.83"
"807","11999.52"
"808","11974.89"
"809","11945.58"
"810","11924.06"
"811","11917.29"
"812","11925.34"
"813","11947.83"
"814","11983.67"
"815","12026.16"
"816","12065.96"
"817","12093.75"
"818","12104.63"
"819","12104.92"
"820","12102.7"
"821","12105.68"
"822","12114.22"
"823","12121.93"
"824","12122.18"
"825","12110.16"
"826","12090.62"
"827","12071.41"
"828","12060.36"
"829","12061.78"
"830","12073.96"
"831","12094.61"
"832","12121.09"
"833","12147.1"
"834","12164.03"
"835","12163.26"
"836","12142"
"837","12116.27"
"838","12105.85"
"839","12129.75"
"840","12185.61"
"841","12247.8"
"842","12289.52"
"843","12289.2"
"844","12256.72"
"845","12213.71"
"846","12181.71"
"847","12173.33"
"848","12184.49"
"849","12209.34"
"850","12242.19"
"851","12279.32"
"852","12318.25"
"853","12356.54"
"854","12390.82"
"855","12414.73"
"856","12421.37"
"857","12404.25"
"858","12367.26"
"859","12324.93"
"860","12292.25"
"861","12281.06"
"862","12286.54"
"863","12298.35"
"864","12306.29"
"865","12307.73"
"866","12312.02"
"867","12329.6"
"868","12368.72"
"869","12418.75"
"870","12459.29"
"871","12469.89"
"872","12443.73"
"873","12406.61"
"874","12389.14"
"875","12419.52"
"876","12490.43"
"877","12567.43"
"878","12615.43"
"879","12611.28"
"880","12574.88"
"881","12535.8"
"882","12522.68"
"883","12540.4"
"884","12568.2"
"885","12584.07"
"886","12571.38"
"887","12541.58"
"888","12515.29"
"889","12512.89"
"890","12542.11"
"891","12592.12"
"892","12650.63"
"893","12705.75"
"894","12748.68"
"895","12771.98"
"896","12768.31"
"897","12739.9"
"898","12707.62"
"899","12694.5"
"900","12720.63"
"901","12775.9"
"902","12832.51"
"903","12862.47"
"904","12850.42"
"905","12812.75"
"906","12770.82"
"907","12744.76"
"908","12738.42"
"909","12743.6"
"910","12751.83"
"911","12757.81"
"912","12766.23"
"913","12783.75"
"914","12816.53"
"915","12861.28"
"916","12906.28"
"917","12939.52"
"918","12951.39"
"919","12941.36"
"920","12911.13"
"921","12862.73"
"922","12807.65"
"923","12767.08"
"924","12762.7"
"925","12809.11"
"926","12889.12"
"927","12976.57"
"928","13045.77"
"929","13085.1"
"930","13099.42"
"931","13094.55"
"932","13076.5"
"933","13052.33"
"934","13029.42"
"935","13015.04"
"936","13011.13"
"937","13012.95"
"938","13015.27"
"939","13013.56"
"940","13007.12"
"941","12996.58"
"942","12982.58"
"943","12967.73"
"944","12957.2"
"945","12956.35"
"946","12968.42"
"947","12984.25"
"948","12990.2"
"949","12972.9"
"950","12930.51"
"951","12877.2"
"952","12828.36"
"953","12797.48"
"954","12786.99"
"955","12795.3"
"956","12820.75"
"957","12858.03"
"958","12896.78"
"959","12926.3"
"960","12937.58"
"961","12931.44"
"962","12912.15"
"963","12884.06"
"964","12853.76"
"965","12830.89"
"966","12825.26"
"967","12843.41"
"968","12874.02"
"969","12899.89"
"970","12904.18"
"971","12884.19"
"972","12854.72"
"973","12831.66"
"974","12826.5"
"975","12829.58"
"976","12824.79"
"977","12796.59"
"978","12746.12"
"979","12693.16"
"980","12658.52"
"981","12657.52"
"982","12682.09"
"983","12717.98"
"984","12751.22"
"985","12774.73"
"986","12788.14"
"987","12791.38"
"988","12786.25"
"989","12781.22"
"990","12786.24"
"991","12810.55"
"992","12850.81"
"993","12893.16"
"994","12923.37"
"995","12933.43"
"996","12933.67"
"997","12937.77"
"998","12958.3"
"999","12993.29"
"1000","13030.68"
"1001","13058.24"
"1002","13068.71"
"1003","13066.66"
"1004","13058.31"
"1005","13049.94"
"1006","13047.07"
"1007","13050.43"
"1008","13058.77"
"1009","13070.73"
"1010","13080.5"
"1011","13075.89"
"1012","13044.21"
"1013","12978.66"
"1014","12904.52"
"1015","12857.91"
"1016","12873.77"
"1017","12948.85"
"1018","13035.08"
"1019","13081.76"
"1020","13054.12"
"1021","12984.57"
"1022","12923.32"
"1023","12918.39"
"1024","12973.79"
"1025","13052.79"
"1026","13117.07"
"1027","13141.13"
"1028","13139.87"
"1029","13136.11"
"1030","13151.03"
"1031","13183.96"
"1032","13218.87"
"1033","13239.47"
"1034","13237.78"
"1035","13224.7"
"1036","13213.76"
"1037","13217.05"
"1038","13234.25"
"1039","13258.76"
"1040","13283.95"
"1041","13304.99"
"1042","13319.96"
"1043","13327.19"
"1044","13325.58"
"1045","13317.23"
"1046","13305.33"
"1047","13292.98"
"1048","13280.91"
"1049","13267.21"
"1050","13249.84"
"1051","13228.89"
"1052","13212.06"
"1053","13208.68"
"1054","13226.92"
"1055","13258.59"
"1056","13283.65"
"1057","13281.82"
"1058","13246.42"
"1059","13200.5"
"1060","13171.06"
"1061","13181.38"
"1062","13226.8"
"1063","13289.92"
"1064","13353.35"
"1065","13403.78"
"1066","13433.3"
"1067","13434.39"
"1068","13403.83"
"1069","13356.5"
"1070","13312.09"
"1071","13289.48"
"1072","13294.49"
"1073","13322.43"
"1074","13368.26"
"1075","13422.92"
"1076","13467.89"
"1077","13483.31"
"1078","13453.39"
"1079","13393.56"
"1080","13333.59"
"1081","13302.81"
"1082","13309.26"
"1083","13333.3"
"1084","13353.47"
"1085","13354.43"
"1086","13344.46"
"1087","13337.52"
"1088","13346.29"
"1089","13366.72"
"1090","13382.93"
"1091","13378.88"
"1092","13350.31"
"1093","13315.76"
"1094","13296.35"
"1095","13308.67"
"1096","13342.74"
"1097","13379.06"
"1098","13398.73"
"1099","13396.43"
"1100","13380.28"
"1101","13358.96"
"1102","13339.79"
"1103","13326.41"
"1104","13321.88"
"1105","13328.09"
"1106","13337.43"
"1107","13337.73"
"1108","13317.19"
"1109","13279.4"
"1110","13247.3"
"1111","13245.08"
"1112","13286.01"
"1113","13346.24"
"1114","13394.04"
"1115","13400.76"
"1116","13369.49"
"1117","13321.98"
"1118","13280.11"
"1119","13258.38"
"1120","13260.43"
"1121","13288.99"
"1122","13341.82"
"1123","13396.95"
"1124","13427.53"
"1125","13409.82"
"1126","13356.94"
"1127","13306.05"
"1128","13294.36"
"1129","13329.74"
"1130","13373.38"
"1131","13382.29"
"1132","13327.66"
"1133","13239.75"
"1134","13164.18"
"1135","13143.15"
"1136","13176.76"
"1137","13237.11"
"1138","13295.96"
"1139","13337.57"
"1140","13365.93"
"1141","13386.75"
"1142","13402.49"
"1143","13402.57"
"1144","13373.14"
"1145","13303.17"
"1146","13212.15"
"1147","13138.66"
"1148","13120.92"
"1149","13165.64"
"1150","13234.28"
"1151","13284.81"
"1152","13289.37"
"1153","13269.36"
"1154","13256.78"
"1155","13279.49"
"1156","13327.46"
"1157","13370.44"
"1158","13378.78"
"1159","13349.05"
"1160","13309.25"
"1161","13289.23"
"1162","13306.9"
"1163","13347.32"
"1164","13389.93"
"1165","13417.42"
"1166","13434.35"
"1167","13454.39"
"1168","13490.3"
"1169","13535.47"
"1170","13565.48"
"1171","13555.32"
"1172","13498.71"
"1173","13426.97"
"1174","13375.94"
"1175","13372.78"
"1176","13404.05"
"1177","13444.45"
"1178","13470.16"
"1179","13475.23"
"1180","13465.39"
"1181","13446.59"
"1182","13425.63"
"1183","13410.5"
"1184","13409.27"
"1185","13425.49"
"1186","13449.35"
"1187","13468.54"
"1188","13472.99"
"1189","13467.74"
"1190","13464.15"
"1191","13472.97"
"1192","13493.87"
"1193","13516.85"
"1194","13531.67"
"1195","13534.54"
"1196","13533.06"
"1197","13536.01"
"1198","13550.39"
"1199","13576.45"
"1200","13612.85"
"1201","13657.86"
"1202","13706.27"
"1203","13751.12"
"1204","13785.51"
"1205","13804.87"
"1206","13806.85"
"1207","13789.28"
"1208","13755.16"
"1209","13717.67"
"1210","13691.19"
"1211","13685.19"
"1212","13689.2"
"1213","13687.72"
"1214","13667.37"
"1215","13633.32"
"1216","13600.37"
"1217","13582.89"
"1218","13583.95"
"1219","13595.4"
"1220","13608.67"
"1221","13620"
"1222","13634.68"
"1223","13658.95"
"1224","13695.32"
"1225","13732.45"
"1226","13755.8"
"1227","13753.52"
"1228","13734.21"
"1229","13715.8"
"1230","13715.39"
"1231","13734.49"
"1232","13761.41"
"1233","13784.18"
"1234","13797.91"
"1235","13808.69"
"1236","13823.54"
"1237","13845.9"
"1238","13868.95"
"1239","13884.06"
"1240","13885.05"
"1241","13879.24"
"1242","13878.59"
"1243","13893.73"
"1244","13920.39"
"1245","13944.89"
"1246","13953.87"
"1247","13946.5"
"1248","13935.69"
"1249","13935.02"
"1250","13951.39"
"1251","13978.9"
"1252","14010.19"
"1253","14036.86"
"1254","14046.9"
"1255","14027.52"
"1256","13971.1"
"1257","13903.13"
"1258","13862.15"
"1259","13883.07"
"1260","13954.82"
"1261","14034.99"
"1262","14081.51"
"1263","14080.84"
"1264","14051.97"
"1265","14015.6"
"1266","13989.77"
"1267","13987.34"
"1268","14020.61"
"1269","14090.92"
"1270","14163.89"
"1271","14197.85"
"1272","14161.88"
"1273","14086.33"
"1274","14023.21"
"1275","14019.34"
"1276","14067.52"
"1277","14128.74"
"1278","14164.81"
"1279","14163.47"
"1280","14136.95"
"1281","14098.39"
"1282","14058.06"
"1283","14021.95"
"1284","13995.67"
"1285","13982.43"
"1286","13979.53"
"1287","13983.44"
"1288","13991.68"
"1289","14005.93"
"1290","14028.89"
"1291","14061.3"
"1292","14090.98"
"1293","14100.57"
"1294","14075.59"
"1295","14033.77"
"1296","14013"
"1297","14049.45"
"1298","14135.82"
"1299","14223.43"
"1300","14262.59"
"1301","14235.58"
"1302","14170.39"
"1303","14098.49"
"1304","14042.45"
"1305","14005.58"
"1306","13988.71"
"1307","13991.62"
"1308","14010.68"
"1309","14041.56"
"1310","14080"
"1311","14122.1"
"1312","14164.1"
"1313","14201.54"
"1314","14224.49"
"1315","14220.36"
"1316","14178.45"
"1317","14112.26"
"1318","14052.22"
"1319","14028.16"
"1320","14048.02"
"1321","14097.92"
"1322","14163.04"
"1323","14227.44"
"1324","14273.61"
"1325","14284.04"
"1326","14253.28"
"1327","14199.93"
"1328","14145.5"
"1329","14106.25"
"1330","14083.63"
"1331","14076.5"
"1332","14084.05"
"1333","14106.84"
"1334","14145.75"
"1335","14199.49"
"1336","14253.83"
"1337","14289.87"
"1338","14291.79"
"1339","14269.77"
"1340","14247.08"
"1341","14245.2"
"1342","14262.28"
"1343","14280.6"
"1344","14282.78"
"1345","14264.54"
"1346","14233.48"
"1347","14197.52"
"1348","14162.87"
"1349","14133.55"
"1350","14113.49"
"1351","14105.34"
"1352","14109.76"
"1353","14127.23"
"1354","14151.54"
"1355","14162.87"
"1356","14139.75"
"1357","14074.44"
"1358","13996.1"
"1359","13940.03"
"1360","13929.41"
"1361","13944.84"
"1362","13957.48"
"1363","13945.88"
"1364","13922.59"
"1365","13909.92"
"1366","13925.71"
"1367","13961.14"
"1368","13997.54"
"1369","14017.2"
"1370","14010.56"
"1371","13971.85"
"1372","13897.93"
"1373","13812.34"
"1374","13754.15"
"1375","13758.86"
"1376","13811.14"
"1377","13859.44"
"1378","13854.45"
"1379","13802.33"
"1380","13757.2"
"1381","13772.5"
"1382","13845.46"
"1383","13914.96"
"1384","13918.67"
"1385","13846.94"
"1386","13755.17"
"1387","13702.12"
"1388","13708.09"
"1389","13737.41"
"1390","13750.21"
"1391","13731.83"
"1392","13710.79"
"1393","13719.73"
"1394","13768.75"
"1395","13822.91"
"1396","13841.93"
"1397","13808.76"
"1398","13760.32"
"1399","13741.22"
"1400","13773.6"
"1401","13819.33"
"1402","13830.23"
"1403","13779.55"
"1404","13706.72"
"1405","13663.89"
"1406","13685.63"
"1407","13744.74"
"1408","13800.41"
"1409","13820.2"
"1410","13804.9"
"1411","13763.58"
"1412","13708.18"
"1413","13663.54"
"1414","13658.07"
"1415","13709.91"
"1416","13786.31"
"1417","13838.87"
"1418","13829.17"
"1419","13773.26"
"1420","13705.64"
"1421","13657.19"
"1422","13637.41"
"1423","13647.92"
"1424","13688.18"
"1425","13743.92"
"1426","13795.4"
"1427","13824.89"
"1428","13828.32"
"1429","13807.37"
"1430","13766.28"
"1431","13727.77"
"1432","13722.75"
"1433","13775.16"
"1434","13855.17"
"1435","13908.12"
"1436","13888.16"
"1437","13821"
"1438","13766.51"
"1439","13776.58"
"1440","13835.15"
"1441","13892.9"
"1442","13906.28"
"1443","13882.13"
"1444","13852.45"
"1445","13846.31"
"1446","13866.52"
"1447","13902.64"
"1448","13944.39"
"1449","13983.33"
"1450","14011.99"
"1451","14022.93"
"1452","14009"
"1453","13963.23"
"1454","13882.42"
"1455","13794.29"
"1456","13741.71"
"1457","13759.3"
"1458","13815.29"
"1459","13846.33"
"1460","13799.09"
"1461","13698.44"
"1462","13605.19"
"1463","13570.2"
"1464","13570.66"
"1465","13551.36"
"1466","13467.73"
"1467","13348.78"
"1468","13254.23"
"1469","13232.54"
"1470","13259.9"
"1471","13284.17"
"1472","13262.37"
"1473","13206"
"1474","13146.38"
"1475","13109.35"
"1476","13090.9"
"1477","13076.98"
"1478","13054.93"
"1479","13018.84"
"1480","12964.85"
"1481","12892.99"
"1482","12820.46"
"1483","12769.23"
"1484","12754.48"
"1485","12764.58"
"1486","12781.27"
"1487","12790.23"
"1488","12790.8"
"1489","12785.35"
"1490","12777.06"
"1491","12771.63"
"1492","12775.25"
"1493","12786.64"
"1494","12784.41"
"1495","12743.89"
"1496","12658.54"
"1497","12563.97"
"1498","12501.67"
"1499","12491.85"
"1500","12511.86"
"1501","12534.03"
"1502","12541.67"
"1503","12536.93"
"1504","12523.91"
"1505","12508.49"
"1506","12499.2"
"1507","12504.43"
"1508","12520.34"
"1509","12527.73"
"1510","12507.35"
"1511","12464.4"
"1512","12429.8"
"1513","12433.95"
"1514","12473.34"
"1515","12514.51"
"1516","12525.05"
"1517","12502.45"
"1518","12466.09"
"1519","12434.43"
"1520","12410.9"
"1521","12389.82"
"1522","12366.15"
"1523","12340.86"
"1524","12317.9"
"1525","12301.04"
"1526","12292.95"
"1527","12295.89"
"1528","12309.94"
"1529","12324.71"
"1530","12326.57"
"1531","12306.16"
"1532","12270.31"
"1533","12229.65"
"1534","12193.48"
"1535","12167.24"
"1536","12155.61"
"1537","12157.29"
"1538","12157.48"
"1539","12139.79"
"1540","12102.48"
"1541","12069.03"
"1542","12064.82"
"1543","12090.42"
"1544","12113.57"
"1545","12101.25"
"1546","12055.96"
"1547","12016.26"
"1548","12019.31"
"1549","12056.62"
"1550","12084.34"
"1551","12063.53"
"1552","12014.18"
"1553","11990.63"
"1554","12037"
"1555","12122.62"
"1556","12184.69"
"1557","12174.61"
"1558","12114.82"
"1559","12049.83"
"1560","12011.87"
"1561","11990.18"
"1562","11964.6"
"1563","11925.99"
"1564","11892.49"
"1565","11886.17"
"1566","11911.34"
"1567","11940.96"
"1568","11945.3"
"1569","11914.35"
"1570","11863.03"
"1571","11807.63"
"1572","11759.81"
"1573","11727"
"1574","11716.02"
"1575","11728.52"
"1576","11762.75"
"1577","11814.9"
"1578","11866.23"
"1579","11891.36"
"1580","11872.85"
"1581","11831.68"
"1582","11800.43"
"1583","11801.16"
"1584","11822.69"
"1585","11847.28"
"1586","11861.53"
"1587","11861.27"
"1588","11843.66"
"1589","11815.12"
"1590","11795.22"
"1591","11803.45"
"1592","11835.8"
"1593","11865.63"
"1594","11867.64"
"1595","11843.52"
"1596","11812.4"
"1597","11792.53"
"1598","11793.97"
"1599","11823.32"
"1600","11880.52"
"1601","11937.08"
"1602","11956.88"
"1603","11923.62"
"1604","11873.97"
"1605","11853"
"1606","11876.03"
"1607","11907.82"
"1608","11909.5"
"1609","11879.12"
"1610","11855.13"
"1611","11874.27"
"1612","11922.87"
"1613","11951.73"
"1614","11919.86"
"1615","11851.9"
"1616","11801.52"
"1617","11808.99"
"1618","11856.78"
"1619","11911.95"
"1620","11948.39"
"1621","11957.22"
"1622","11932.5"
"1623","11882.66"
"1624","11838.28"
"1625","11830.43"
"1626","11860.38"
"1627","11900.99"
"1628","11926.59"
"1629","11938"
"1630","11951.46"
"1631","11979.97"
"1632","12017.25"
"1633","12050.47"
"1634","12070.53"
"1635","12080.1"
"1636","12084.12"
"1637","12087.89"
"1638","12097.3"
"1639","12118.22"
"1640","12153.42"
"1641","12202.48"
"1642","12263.45"
"1643","12319.54"
"1644","12344.58"
"1645","12321.37"
"1646","12285.47"
"1647","12291.3"
"1648","12366.54"
"1649","12455.36"
"1650","12486.21"
"1651","12431.38"
"1652","12338.98"
"1653","12263.31"
"1654","12226.89"
"1655","12220.81"
"1656","12234.17"
"1657","12250.31"
"1658","12249.31"
"1659","12216.18"
"1660","12160.27"
"1661","12098.36"
"1662","12046.08"
"1663","12016.18"
"1664","12020.48"
"1665","12048.1"
"1666","12056.83"
"1667","12005.75"
"1668","11907.98"
"1669","11818.02"
"1670","11782.91"
"1671","11792.11"
"1672","11811.35"
"1673","11813.44"
"1674","11795.22"
"1675","11758.54"
"1676","11709.3"
"1677","11660.26"
"1678","11623.9"
"1679","11593"
"1680","11542.17"
"1681","11451.48"
"1682","11351.47"
"1683","11297.33"
"1684","11322.7"
"1685","11377.21"
"1686","11390.46"
"1687","11329.45"
"1688","11232.72"
"1689","11145.56"
"1690","11083.24"
"1691","11031.26"
"1692","10976.4"
"1693","10927.56"
"1694","10904.89"
"1695","10917.83"
"1696","10933.37"
"1697","10908.35"
"1698","10829.98"
"1699","10742.58"
"1700","10695.31"
"1701","10704.96"
"1702","10757.72"
"1703","10836.37"
"1704","10906.82"
"1705","10926.97"
"1706","10873.52"
"1707","10788.99"
"1708","10729.92"
"1709","10723.37"
"1710","10747.99"
"1711","10778.13"
"1712","10792.25"
"1713","10772.07"
"1714","10706.42"
"1715","10628.02"
"1716","10586.53"
"1717","10606.16"
"1718","10641.26"
"1719","10635.5"
"1720","10580.27"
"1721","10528.1"
"1722","10529.64"
"1723","10570.78"
"1724","10597.65"
"1725","10571"
"1726","10518.71"
"1727","10487"
"1728","10499.17"
"1729","10534.5"
"1730","10567.85"
"1731","10585.7"
"1732","10584.97"
"1733","10564.2"
"1734","10530.31"
"1735","10493.67"
"1736","10463.13"
"1737","10443.29"
"1738","10437.86"
"1739","10443.19"
"1740","10446.66"
"1741","10436.67"
"1742","10416.88"
"1743","10399.51"
"1744","10392.51"
"1745","10387.66"
"1746","10373.12"
"1747","10345.23"
"1748","10313.34"
"1749","10287.66"
"1750","10273.95"
"1751","10274.92"
"1752","10291.29"
"1753","10314.67"
"1754","10333.98"
"1755","10344.74"
"1756","10355.02"
"1757","10373.43"
"1758","10393.3"
"1759","10395.28"
"1760","10365.31"
"1761","10321.59"
"1762","10293.5"
"1763","10294.64"
"1764","10304.11"
"1765","10297.27"
"1766","10266.58"
"1767","10220.34"
"1768","10168.79"
"1769","10130.34"
"1770","10126.53"
"1771","10163"
"1772","10208.3"
"1773","10226.95"
"1774","10212.46"
"1775","10186.34"
"1776","10167.96"
"1777","10155.73"
"1778","10139.93"
"1779","10121.58"
"1780","10126.9"
"1781","10183.59"
"1782","10273.95"
"1783","10337.31"
"1784","10322.1"
"1785","10242.84"
"1786","10138.83"
"1787","10046.38"
"1788","9994.851"
"1789","10010.31"
"1790","10073.44"
"1791","10125.26"
"1792","10119.11"
"1793","10082.2"
"1794","10066.33"
"1795","10091.02"
"1796","10113.46"
"1797","10087.7"
"1798","10027.72"
"1799","9992.887"
"1800","10024.8"
"1801","10080.19"
"1802","10092.64"
"1803","10040.12"
"1804","9971.572"
"1805","9938.623"
"1806","9950.929"
"1807","9992.26"
"1808","10044.78"
"1809","10086.55"
"1810","10095.3"
"1811","10070.44"
"1812","10038.59"
"1813","10023.72"
"1814","10015.46"
"1815","9987.279"
"1816","9931.078"
"1817","9885.592"
"1818","9894.461"
"1819","9950.866"
"1820","10001.26"
"1821","10002.45"
"1822","9976.193"
"1823","9965.39"
"1824","9981.411"
"1825","9980.023"
"1826","9916.938"
"1827","9813.936"
"1828","9735.363"
"1829","9724.314"
"1830","9748.391"
"1831","9759.912"
"1832","9740.769"
"1833","9707.57"
"1834","9677.347"
"1835","9656.376"
"1836","9646.509"
"1837","9649.768"
"1838","9668.599"
"1839","9704.633"
"1840","9747.332"
"1841","9777.136"
"1842","9780.403"
"1843","9767.312"
"1844","9753.651"
"1845","9749.255"
"1846","9756.425"
"1847","9775.128"
"1848","9792.18"
"1849","9788.762"
"1850","9759.446"
"1851","9727.323"
"1852","9716.773"
"1853","9719.3"
"1854","9702.659"
"1855","9650.492"
"1856","9605.834"
"1857","9623.099"
"1858","9691.729"
"1859","9726.28"
"1860","9659.106"
"1861","9557.991"
"1862","9541.214"
"1863","9648.246"
"1864","9775.982"
"1865","9816.242"
"1866","9767.331"
"1867","9691.056"
"1868","9631.287"
"1869","9578.637"
"1870","9516.054"
"1871","9458.677"
"1872","9450.507"
"1873","9517.794"
"1874","9603.883"
"1875","9630.788"
"1876","9583.992"
"1877","9532.045"
"1878","9538.237"
"1879","9591.502"
"1880","9650.153"
"1881","9686.367"
"1882","9698.61"
"1883","9688.6"
"1884","9661.938"
"1885","9626.528"
"1886","9590.722"
"1887","9563.91"
"1888","9554.697"
"1889","9555.62"
"1890","9546.126"
"1891","9512.596"
"1892","9468.843"
"1893","9434.771"
"1894","9420.219"
"1895","9424.096"
"1896","9443.52"
"1897","9469.293"
"1898","9490.219"
"1899","9497.956"
"1900","9488.232"
"1901","9459.37"
"1902","9425.607"
"1903","9407.813"
"1904","9414.81"
"1905","9433.549"
"1906","9448.803"
"1907","9446.713"
"1908","9414.214"
"1909","9356.111"
"1910","9317.619"
"1911","9343.997"
"1912","9412.418"
"1913","9454.985"
"1914","9431.692"
"1915","9382.688"
"1916","9360.043"
"1917","9383.933"
"1918","9449.303"
"1919","9538.81"
"1920","9596.46"
"1921","9562.051"
"1922","9456.057"
"1923","9373.262"
"1924","9380.625"
"1925","9424.202"
"1926","9422.669"
"1927","9355.573"
"1928","9266.119"
"1929","9196.062"
"1930","9166.661"
"1931","9192.238"
"1932","9248.322"
"1933","9265.524"
"1934","9195.107"
"1935","9104.271"
"1936","9093.73"
"1937","9169.197"
"1938","9217.285"
"1939","9148.593"
"1940","9044.411"
"1941","9040.448"
"1942","9156.841"
"1943","9260.717"
"1944","9238.294"
"1945","9144.649"
"1946","9092.4"
"1947","9118.216"
"1948","9155.088"
"1949","9141.416"
"1950","9090.58"
"1951","9042.403"
"1952","9020.087"
"1953","9023.972"
"1954","9049.366"
"1955","9072.394"
"1956","9063.198"
"1957","9029.704"
"1958","9030.673"
"1959","9108.971"
"1960","9199.384"
"1961","9201.799"
"1962","9104.99"
"1963","9012.388"
"1964","9011.144"
"1965","9063.552"
"1966","9093.053"
"1967","9073.111"
"1968","9037.579"
"1969","9014.319"
"1970","8985.502"
"1971","8921.338"
"1972","8835.316"
"1973","8788.641"
"1974","8823.384"
"1975","8890.35"
"1976","8918.679"
"1977","8892.847"
"1978","8851.801"
"1979","8825.61"
"1980","8803.342"
"1981","8766.007"
"1982","8717.615"
"1983","8681.909"
"1984","8672.754"
"1985","8671.563"
"1986","8655.941"
"1987","8637.501"
"1988","8652.64"
"1989","8714.802"
"1990","8777.654"
"1991","8790.921"
"1992","8763.575"
"1993","8740.317"
"1994","8742.678"
"1995","8743.422"
"1996","8715.593"
"1997","8683.895"
"1998","8697.613"
"1999","8760.325"
"2000","8800.492"
"2001","8756.163"
"2002","8668.398"
"2003","8615.925"
"2004","8618.716"
"2005","8621.396"
"2006","8580.524"
"2007","8530.379"
"2008","8524.791"
"2009","8556.218"
"2010","8556.857"
"2011","8487.314"
"2012","8411.676"
"2013","8409.741"
"2014","8476.952"
"2015","8546.753"
"2016","8568.852"
"2017","8535.628"
"2018","8450.062"
"2019","8355.028"
"2020","8314.219"
"2021","8343.033"
"2022","8374.385"
"2023","8345.229"
"2024","8266.682"
"2025","8177.46"
"2026","8111.885"
"2027","8098.923"
"2028","8153.35"
"2029","8234.274"
"2030","8289.814"
"2031","8319.027"
"2032","8363.176"
"2033","8438.455"
"2034","8492.328"
"2035","8468.065"
"2036","8376.438"
"2037","8265.826"
"2038","8181.59"
"2039","8163.102"
"2040","8232.29"
"2041","8313.357"
"2042","8298.847"
"2043","8180.271"
"2044","8058.799"
"2045","8017.737"
"2046","8057.174"
"2047","8156.578"
"2048","8262.701"
"2049","8299.33"
"2050","8237.524"
"2051","8149.264"
"2052","8105.961"
"2053","8082.091"
"2054","8011.704"
"2055","7895.381"
"2056","7819.542"
"2057","7848.993"
"2058","7938.132"
"2059","8015.534"
"2060","8041.396"
"2061","8000.613"
"2062","7909.281"
"2063","7852.545"
"2064","7905.858"
"2065","7998.916"
"2066","7997.967"
"2067","7880.353"
"2068","7768.628"
"2069","7758.054"
"2070","7796.433"
"2071","7800.279"
"2072","7761.255"
"2073","7727.013"
"2074","7734.374"
"2075","7794.341"
"2076","7904.394"
"2077","7993.738"
"2078","7967.022"
"2079","7835.454"
"2080","7732.86"
"2081","7750.32"
"2082","7813.521"
"2083","7822.551"
"2084","7776.429"
"2085","7735.308"
"2086","7724.861"
"2087","7710.614"
"2088","7662.444"
"2089","7602.233"
"2090","7566.734"
"2091","7562.291"
"2092","7568.267"
"2093","7569.537"
"2094","7566.67"
"2095","7563.139"
"2096","7566.686"
"2097","7586.273"
"2098","7607.521"
"2099","7587.993"
"2100","7511.171"
"2101","7452.386"
"2102","7495.738"
"2103","7614.68"
"2104","7717.017"
"2105","7737.042"
"2106","7651.877"
"2107","7466.121"
"2108","7288.353"
"2109","7245.427"
"2110","7312.984"
"2111","7353.909"
"2112","7302.049"
"2113","7233.792"
"2114","7227.559"
"2115","7282.631"
"2116","7370.548"
"2117","7446.917"
"2118","7453.237"
"2119","7370.679"
"2120","7272.526"
"2121","7232.587"
"2122","7243.083"
"2123","7264.322"
"2124","7272.378"
"2125","7259.499"
"2126","7228.195"
"2127","7205.707"
"2128","7215.396"
"2129","7222.728"
"2130","7169.727"
"2131","7064.276"
"2132","6987.283"
"2133","6988.129"
"2134","7017.063"
"2135","7015.548"
"2136","6991.948"
"2137","6984.763"
"2138","6993.503"
"2139","6972.674"
"2140","6900.019"
"2141","6827.055"
"2142","6810.241"
"2143","6840.314"
"2144","6877.115"
"2145","6887.196"
"2146","6845.012"
"2147","6756.747"
"2148","6715.714"
"2149","6806.726"
"2150","6935.951"
"2151","6933.703"
"2152","6774.701"
"2153","6589.774"
"2154","6480.909"
"2155","6454.783"
"2156","6501.09"
"2157","6596.928"
"2158","6713.769"
"2159","6816.376"
"2160","6863.083"
"2161","6840.005"
"2162","6797.301"
"2163","6780.891"
"2164","6759.842"
"2165","6679.849"
"2166","6560.651"
"2167","6484.199"
"2168","6484.883"
"2169","6501.626"
"2170","6480.363"
"2171","6452.295"
"2172","6468.044"
"2173","6502.717"
"2174","6479.604"
"2175","6380.678"
"2176","6281.052"
"2177","6251.717"
"2178","6317.81"
"2179","6482.614"
"2180","6642.321"
"2181","6638.369"
"2182","6458.067"
"2183","6266.282"
"2184","6181.911"
"2185","6167.967"
"2186","6165.679"
"2187","6147.764"
"2188","6101.477"
"2189","6048.054"
"2190","6039.212"
"2191","6092.229"
"2192","6154.473"
"2193","6177.554"
"2194","6170.46"
"2195","6157.427"
"2196","6149.275"
"2197","6147.812"
"2198","6137.922"
"2199","6081.555"
"2200","5963.839"
"2201","5844.912"
"2202","5789.062"
"2203","5788.254"
"2204","5804.41"
"2205","5826.156"
"2206","5866.676"
"2207","5913.253"
"2208","5901.301"
"2209","5790.049"
"2210","5668.293"
"2211","5648.684"
"2212","5723.504"
"2213","5814.141"
"2214","5863.164"
"2215","5840.337"
"2216","5741.642"
"2217","5626.114"
"2218","5552.16"
"2219","5516.097"
"2220","5494.523"
"2221","5498.053"
"2222","5561.755"
"2223","5667.922"
"2224","5718.661"
"2225","5655.444"
"2226","5565.353"
"2227","5548.584"
"2228","5594.316"
"2229","5644.62"
"2230","5649.687"
"2231","5567.44"
"2232","5402.004"
"2233","5236.491"
"2234","5145.206"
"2235","5141.989"
"2236","5217.623"
"2237","5287.776"
"2238","5238.864"
"2239","5090.344"
"2240","4985.432"
"2241","4995.546"
"2242","5052.192"
"2243","5081.796"
"2244","5048.266"
"2245","4936.108"
"2246","4826.043"
"2247","4838.331"
"2248","4946.443"
"2249","4987.277"
"2250","4899.996"
"2251","4816.749"
"2252","4837.536"
"2253","4873.71"
"2254","4812.581"
"2255","4681.831"
"2256","4569.998"
"2257","4505.223"
"2258","4462.898"
"2259","4429.579"
"2260","4412.976"
"2261","4414.035"
"2262","4406.005"
"2263","4364.83"
"2264","4320.081"
"2265","4317.545"
"2266","4326.654"
"2267","4260.952"
"2268","4118.453"
"2269","4016.209"
"2270","4021.34"
"2271","4047.288"
"2272","4009.438"
"2273","3961.825"
"2274","3990.335"
"2275","4043.851"
"2276","3991.581"
"2277","3804.548"
"2278","3567.13"
"2279","3371.391"
"2280","3312.584"
"2281","3434.927"
"2282","3587.196"
"2283","3597.689"
"2284","3490.891"
"2285","3373.595"
"2286","3251.628"
"2287","3050.245"
"2288","2786.242"
"2289","2611.125"
"2290","2615.33"
"2291","2703.005"
"2292","2763.972"
"2293","2765.591"
"2294","2702.66"
"2295","2607.343"
"2296","2531.099"
"2297","2489.565"
"2298","2463.123"
"2299","2418.814"
"2300","2303.788"
