,"Scan 00945"
"400","16516.81"
"401","16477.67"
"402","16423.97"
"403","16366.73"
"404","16316.85"
"405","16284.16"
"406","16269.33"
"407","16268.47"
"408","16277.68"
"409","16293.14"
"410","16311.95"
"411","16331.84"
"412","16350.58"
"413","16366.05"
"414","16377.91"
"415","16387.53"
"416","16396.31"
"417","16405.65"
"418","16416.07"
"419","16427.07"
"420","16438.11"
"421","16448.62"
"422","16457.34"
"423","16461.94"
"424","16459.97"
"425","16449.03"
"426","16428.79"
"427","16403.21"
"428","16376.77"
"429","16353.91"
"430","16338.07"
"431","16329.89"
"432","16329.61"
"433","16337.41"
"434","16351.76"
"435","16365"
"436","16368.23"
"437","16352.57"
"438","16312.62"
"439","16257.77"
"440","16201.42"
"441","16156.87"
"442","16135.14"
"443","16135.15"
"444","16151.75"
"445","16179.81"
"446","16213.75"
"447","16244.7"
"448","16262.46"
"449","16256.92"
"450","16220.17"
"451","16162.35"
"452","16102.45"
"453","16059.34"
"454","16049.4"
"455","16064.8"
"456","16083.85"
"457","16084.81"
"458","16048.23"
"459","15980.5"
"460","15905.03"
"461","15845.42"
"462","15823.3"
"463","15834.42"
"464","15855.18"
"465","15861.67"
"466","15831.66"
"467","15769.41"
"468","15701.2"
"469","15653.81"
"470","15652.5"
"471","15694.79"
"472","15752.87"
"473","15798.16"
"474","15803.44"
"475","15768.15"
"476","15718.22"
"477","15680.55"
"478","15680.85"
"479","15718.7"
"480","15765.97"
"481","15793.35"
"482","15772.67"
"483","15702.84"
"484","15613.03"
"485","15533.86"
"486","15494.94"
"487","15500.37"
"488","15524.68"
"489","15540.9"
"490","15522.87"
"491","15467.2"
"492","15397.56"
"493","15339.08"
"494","15316.06"
"495","15328.94"
"496","15349.53"
"497","15348.03"
"498","15295.59"
"499","15188.93"
"500","15055.53"
"501","14924.58"
"502","14824.44"
"503","14763.12"
"504","14724.48"
"505","14691.06"
"506","14645.89"
"507","14583.99"
"508","14514.16"
"509","14445.94"
"510","14388.57"
"511","14344.31"
"512","14307.73"
"513","14273.04"
"514","14234.67"
"515","14192.46"
"516","14151.86"
"517","14118.58"
"518","14097.99"
"519","14089.01"
"520","14084.26"
"521","14076.13"
"522","14057.38"
"523","14027.14"
"524","13990.25"
"525","13951.76"
"526","13916.44"
"527","13885.22"
"528","13855.9"
"529","13826.17"
"530","13793.92"
"531","13759.33"
"532","13724.28"
"533","13690.69"
"534","13660.56"
"535","13637.13"
"536","13624.38"
"537","13626.34"
"538","13645.72"
"539","13672.79"
"540","13690.82"
"541","13683.06"
"542","13636.12"
"543","13563.22"
"544","13490.45"
"545","13443.84"
"546","13444.49"
"547","13481.3"
"548","13530.02"
"549","13566.52"
"550","13571.05"
"551","13547.42"
"552","13507.35"
"553","13462.5"
"554","13423.29"
"555","13394.79"
"556","13380.62"
"557","13384.34"
"558","13406.54"
"559","13437.3"
"560","13464.46"
"561","13475.94"
"562","13464.98"
"563","13439.45"
"564","13409.69"
"565","13385.95"
"566","13374.17"
"567","13371.13"
"568","13372.44"
"569","13373.74"
"570","13371.78"
"571","13365.23"
"572","13352.94"
"573","13333.8"
"574","13308.49"
"575","13280.02"
"576","13251.51"
"577","13226.03"
"578","13205.06"
"579","13188.59"
"580","13176.48"
"581","13168.71"
"582","13166.25"
"583","13170.86"
"584","13184.33"
"585","13207.79"
"586","13236.29"
"587","13261.46"
"588","13274.91"
"589","13269.97"
"590","13251.42"
"591","13228.74"
"592","13211.35"
"593","13206.52"
"594","13211.47"
"595","13220.5"
"596","13227.97"
"597","13229.96"
"598","13228.13"
"599","13225.26"
"600","13224.1"
"601","13224.62"
"602","13220.69"
"603","13205.36"
"604","13171.86"
"605","13120.75"
"606","13063.9"
"607","13014.08"
"608","12983.75"
"609","12978.38"
"610","12995.94"
"611","13034.06"
"612","13089.8"
"613","13151.95"
"614","13203.29"
"615","13226.5"
"616","13207.21"
"617","13155"
"618","13091.23"
"619","13037.26"
"620","13009.94"
"621","13003.5"
"622","13004.91"
"623","13001.23"
"624","12984.12"
"625","12959.97"
"626","12938.08"
"627","12927.68"
"628","12931.75"
"629","12940.67"
"630","12943.37"
"631","12929.09"
"632","12897.88"
"633","12863.75"
"634","12841.61"
"635","12845.36"
"636","12873.25"
"637","12910.59"
"638","12942.37"
"639","12955.32"
"640","12950.99"
"641","12938.62"
"642","12927.44"
"643","12924.5"
"644","12925.91"
"645","12924.45"
"646","12912.89"
"647","12888.74"
"648","12862.96"
"649","12848.9"
"650","12859.7"
"651","12896.14"
"652","12938.16"
"653","12963.73"
"654","12951.87"
"655","12904.78"
"656","12848.13"
"657","12808.56"
"658","12809.93"
"659","12847.23"
"660","12898.07"
"661","12939.9"
"662","12953.65"
"663","12939.23"
"664","12903.03"
"665","12851.45"
"666","12793.08"
"667","12743.1"
"668","12717.87"
"669","12733.48"
"670","12790.75"
"671","12865.33"
"672","12930.66"
"673","12961.25"
"674","12953.14"
"675","12922.34"
"676","12885.61"
"677","12858.42"
"678","12845.55"
"679","12846.19"
"680","12859.48"
"681","12883.63"
"682","12912.7"
"683","12939.62"
"684","12957.38"
"685","12962.09"
"686","12956.97"
"687","12946.14"
"688","12933.7"
"689","12922.69"
"690","12914.89"
"691","12911.99"
"692","12915.51"
"693","12924.83"
"694","12937.99"
"695","12953.01"
"696","12967.78"
"697","12979.67"
"698","12985.81"
"699","12983.38"
"700","12971.81"
"701","12956.21"
"702","12942.59"
"703","12936.82"
"704","12940.19"
"705","12948.09"
"706","12955.57"
"707","12957.95"
"708","12953.69"
"709","12943.37"
"710","12927.58"
"711","12907.63"
"712","12888.61"
"713","12876.77"
"714","12878.34"
"715","12895.25"
"716","12919.26"
"717","12940.68"
"718","12950.15"
"719","12947.06"
"720","12940.93"
"721","12941.8"
"722","12958.36"
"723","12986.07"
"724","13012.96"
"725","13026.99"
"726","13020.15"
"727","13000.78"
"728","12981.44"
"729","12974.57"
"730","12986.01"
"731","13009.48"
"732","13037.38"
"733","13062.33"
"734","13080.01"
"735","13088.76"
"736","13087.04"
"737","13074.45"
"738","13058.23"
"739","13048.65"
"740","13055.94"
"741","13083.99"
"742","13119.52"
"743","13146.36"
"744","13148.84"
"745","13126.46"
"746","13097.03"
"747","13079.45"
"748","13090.38"
"749","13125.91"
"750","13170.81"
"751","13209.75"
"752","13231.04"
"753","13236.33"
"754","13230.25"
"755","13217.49"
"756","13203.65"
"757","13195.81"
"758","13201.18"
"759","13226.1"
"760","13266.41"
"761","13310.85"
"762","13348.05"
"763","13368.81"
"764","13373.64"
"765","13365.76"
"766","13348.39"
"767","13326.01"
"768","13305.32"
"769","13293.25"
"770","13296.22"
"771","13313.53"
"772","13339.07"
"773","13366.58"
"774","13391.1"
"775","13413.82"
"776","13437.84"
"777","13466.22"
"778","13499.99"
"779","13536.41"
"780","13572.3"
"781","13604.68"
"782","13633.18"
"783","13659.43"
"784","13685.14"
"785","13711.37"
"786","13736.11"
"787","13756.44"
"788","13769.44"
"789","13774.05"
"790","13772.47"
"791","13767.27"
"792","13760.91"
"793","13754.81"
"794","13749.64"
"795","13746.05"
"796","13744.7"
"797","13746.31"
"798","13751.64"
"799","13761.4"
"800","13774.58"
"801","13787.51"
"802","13796.25"
"803","13797.47"
"804","13794.15"
"805","13793.12"
"806","13801.26"
"807","13823.05"
"808","13854.67"
"809","13890.49"
"810","13924.92"
"811","13952.87"
"812","13969.87"
"813","13971.51"
"814","13954.75"
"815","13927.09"
"816","13901.04"
"817","13889.13"
"818","13897.96"
"819","13919.29"
"820","13942.5"
"821","13957.36"
"822","13960.41"
"823","13954.46"
"824","13942.55"
"825","13928.01"
"826","13915.71"
"827","13911"
"828","13919.21"
"829","13941.17"
"830","13970.04"
"831","13998.24"
"832","14018.8"
"833","14031.52"
"834","14040.45"
"835","14049.67"
"836","14061.88"
"837","14075.29"
"838","14087.23"
"839","14095.09"
"840","14098.75"
"841","14100.79"
"842","14103.89"
"843","14110.07"
"844","14117.25"
"845","14121.83"
"846","14120.22"
"847","14113.01"
"848","14108.47"
"849","14115.71"
"850","14142.65"
"851","14183.25"
"852","14222.6"
"853","14245.68"
"854","14243.68"
"855","14227.58"
"856","14212.2"
"857","14211.89"
"858","14229.44"
"859","14255.83"
"860","14281.49"
"861","14298.92"
"862","14311.46"
"863","14326.03"
"864","14349.45"
"865","14381.77"
"866","14412.29"
"867","14429.4"
"868","14423.51"
"869","14402.86"
"870","14384.92"
"871","14387.21"
"872","14417.91"
"873","14462.73"
"874","14504.14"
"875","14525.66"
"876","14527.29"
"877","14521.57"
"878","14521.32"
"879","14536.22"
"880","14564.42"
"881","14601.54"
"882","14643.15"
"883","14684.99"
"884","14722.89"
"885","14752.67"
"886","14770.9"
"887","14777.88"
"888","14775.12"
"889","14764.22"
"890","14750.93"
"891","14747.11"
"892","14765.11"
"893","14814.14"
"894","14880.29"
"895","14939.26"
"896","14966.84"
"897","14954.91"
"898","14926.61"
"899","14908.69"
"900","14925.06"
"901","14970.4"
"902","15022.23"
"903","15057.89"
"904","15064.19"
"905","15051.79"
"906","15035.03"
"907","15027.5"
"908","15032.03"
"909","15043.58"
"910","15056.92"
"911","15068.07"
"912","15077.01"
"913","15084.49"
"914","15091.32"
"915","15098.95"
"916","15109.44"
"917","15124.88"
"918","15144.86"
"919","15159.61"
"920","15157.06"
"921","15125.88"
"922","15072.88"
"923","15023.67"
"924","15004.72"
"925","15034.77"
"926","15097.67"
"927","15167.42"
"928","15218.56"
"929","15241.37"
"930","15244.59"
"931","15238.05"
"932","15230.03"
"933","15221.09"
"934","15209.33"
"935","15192.99"
"936","15174.43"
"937","15161.36"
"938","15161.81"
"939","15181.07"
"940","15209.17"
"941","15230.89"
"942","15231.31"
"943","15208"
"944","15175.54"
"945","15149.73"
"946","15143.29"
"947","15151.29"
"948","15162.39"
"949","15165.46"
"950","15156.73"
"951","15142.77"
"952","15130.91"
"953","15127.43"
"954","15132.35"
"955","15143.45"
"956","15158.51"
"957","15175.55"
"958","15192.93"
"959","15209.04"
"960","15221.78"
"961","15226.26"
"962","15216.62"
"963","15187.25"
"964","15144.06"
"965","15108.19"
"966","15101.83"
"967","15140.52"
"968","15203.97"
"969","15259.97"
"970","15277.04"
"971","15249.54"
"972","15203.92"
"973","15168.6"
"974","15165.3"
"975","15183.07"
"976","15201.09"
"977","15199.12"
"978","15174.55"
"979","15144.5"
"980","15127.15"
"981","15135.84"
"982","15163.38"
"983","15197.12"
"984","15224.67"
"985","15239.16"
"986","15239.19"
"987","15223.59"
"988","15194.73"
"989","15167.76"
"990","15160.69"
"991","15190.16"
"992","15249.3"
"993","15311.43"
"994","15349.28"
"995","15347.17"
"996","15323.63"
"997","15303.5"
"998","15309.69"
"999","15340.29"
"1000","15376.15"
"1001","15397.82"
"1002","15394.58"
"1003","15376.37"
"1004","15356.11"
"1005","15346.72"
"1006","15358.85"
"1007","15387.8"
"1008","15422.52"
"1009","15452.03"
"1010","15469.17"
"1011","15472.33"
"1012","15460.3"
"1013","15434.39"
"1014","15409.48"
"1015","15405.05"
"1016","15439.8"
"1017","15507.25"
"1018","15571.34"
"1019","15594.3"
"1020","15551.97"
"1021","15477.78"
"1022","15420.33"
"1023","15425.97"
"1024","15494.68"
"1025","15583.48"
"1026","15647.75"
"1027","15658.1"
"1028","15633.22"
"1029","15601.22"
"1030","15588.76"
"1031","15602.86"
"1032","15636.78"
"1033","15683.5"
"1034","15734.02"
"1035","15774.95"
"1036","15792.26"
"1037","15775.1"
"1038","15739.51"
"1039","15715.2"
"1040","15731.67"
"1041","15795.25"
"1042","15875.33"
"1043","15937.94"
"1044","15956.33"
"1045","15944.02"
"1046","15928.38"
"1047","15936.02"
"1048","15970.99"
"1049","16012.63"
"1050","16039"
"1051","16036.08"
"1052","16017.91"
"1053","16004.67"
"1054","16014.86"
"1055","16042.91"
"1056","16065.88"
"1057","16060.47"
"1058","16019.58"
"1059","15971.54"
"1060","15949.35"
"1061","15980.12"
"1062","16046.31"
"1063","16110.1"
"1064","16134.28"
"1065","16112.79"
"1066","16081.5"
"1067","16079.28"
"1068","16133.09"
"1069","16219.78"
"1070","16302.96"
"1071","16348.05"
"1072","16350.36"
"1073","16329.36"
"1074","16305.19"
"1075","16289.63"
"1076","16274.96"
"1077","16250.67"
"1078","16209.14"
"1079","16164.8"
"1080","16142.24"
"1081","16165.45"
"1082","16233.76"
"1083","16314.39"
"1084","16372.4"
"1085","16383.16"
"1086","16361.39"
"1087","16331.3"
"1088","16315.57"
"1089","16316.69"
"1090","16322.83"
"1091","16321.9"
"1092","16308.37"
"1093","16289.28"
"1094","16273.13"
"1095","16266.76"
"1096","16267.35"
"1097","16268.61"
"1098","16264.37"
"1099","16250.82"
"1100","16226.49"
"1101","16190.04"
"1102","16145.67"
"1103","16112.33"
"1104","16111.42"
"1105","16159.09"
"1106","16229.17"
"1107","16274.99"
"1108","16250.95"
"1109","16156.61"
"1110","16048.24"
"1111","15985.79"
"1112","16008.42"
"1113","16084.64"
"1114","16167.99"
"1115","16215.65"
"1116","16222.48"
"1117","16205.54"
"1118","16182.06"
"1119","16163.57"
"1120","16153.16"
"1121","16153.25"
"1122","16164.32"
"1123","16179.15"
"1124","16188.64"
"1125","16184.66"
"1126","16170.88"
"1127","16158.6"
"1128","16159.17"
"1129","16174.45"
"1130","16191.25"
"1131","16195"
"1132","16176.08"
"1133","16145.3"
"1134","16118.81"
"1135","16111.61"
"1136","16124.81"
"1137","16150.24"
"1138","16179.6"
"1139","16207.81"
"1140","16234.78"
"1141","16260.89"
"1142","16285.36"
"1143","16302.88"
"1144","16307.01"
"1145","16292.49"
"1146","16266.93"
"1147","16245.96"
"1148","16245.09"
"1149","16266.72"
"1150","16294.48"
"1151","16310.52"
"1152","16303.55"
"1153","16285.04"
"1154","16271.35"
"1155","16276.86"
"1156","16297.67"
"1157","16320.16"
"1158","16330.97"
"1159","16328.32"
"1160","16324.37"
"1161","16332.08"
"1162","16358.52"
"1163","16394.49"
"1164","16428.05"
"1165","16449.16"
"1166","16460.87"
"1167","16471.63"
"1168","16489.38"
"1169","16511.39"
"1170","16525.02"
"1171","16517.34"
"1172","16487.04"
"1173","16456.06"
"1174","16449.19"
"1175","16483.45"
"1176","16539.56"
"1177","16587.67"
"1178","16600.29"
"1179","16578.74"
"1180","16543.11"
"1181","16513.57"
"1182","16500.51"
"1183","16500.88"
"1184","16510.61"
"1185","16525.64"
"1186","16541.88"
"1187","16555.2"
"1188","16562.94"
"1189","16572.42"
"1190","16595.13"
"1191","16641.52"
"1192","16703.15"
"1193","16755.22"
"1194","16772.51"
"1195","16748.04"
"1196","16706.92"
"1197","16677.56"
"1198","16679.36"
"1199","16697.87"
"1200","16710.67"
"1201","16698.92"
"1202","16674.05"
"1203","16662.71"
"1204","16690.36"
"1205","16753.15"
"1206","16817.91"
"1207","16850.37"
"1208","16836.94"
"1209","16804.56"
"1210","16784.89"
"1211","16799.74"
"1212","16830.82"
"1213","16849.7"
"1214","16831.76"
"1215","16785.68"
"1216","16737.38"
"1217","16712.18"
"1218","16718.06"
"1219","16745.84"
"1220","16785.66"
"1221","16828.67"
"1222","16868.1"
"1223","16897.34"
"1224","16911.67"
"1225","16913.13"
"1226","16905.36"
"1227","16892.49"
"1228","16882.5"
"1229","16885.14"
"1230","16909.42"
"1231","16951.71"
"1232","16997.65"
"1233","17032.66"
"1234","17051.29"
"1235","17062.06"
"1236","17074.7"
"1237","17094.87"
"1238","17116.73"
"1239","17132.38"
"1240","17135.66"
"1241","17130.26"
"1242","17123.23"
"1243","17121.15"
"1244","17125.5"
"1245","17134.53"
"1246","17146.41"
"1247","17159.58"
"1248","17172.69"
"1249","17184.41"
"1250","17195.48"
"1251","17210.62"
"1252","17234.97"
"1253","17269.58"
"1254","17301.31"
"1255","17313.94"
"1256","17295.33"
"1257","17259.41"
"1258","17230.4"
"1259","17230.9"
"1260","17262.27"
"1261","17311.47"
"1262","17365.19"
"1263","17410.38"
"1264","17434.37"
"1265","17424.55"
"1266","17381.38"
"1267","17329.99"
"1268","17298.3"
"1269","17305.12"
"1270","17339.54"
"1271","17384.59"
"1272","17424.84"
"1273","17453.62"
"1274","17467.33"
"1275","17463.23"
"1276","17447.29"
"1277","17430.6"
"1278","17423.76"
"1279","17426.12"
"1280","17426.41"
"1281","17413.08"
"1282","17383.61"
"1283","17348.99"
"1284","17321.28"
"1285","17308.23"
"1286","17307.2"
"1287","17314"
"1288","17324.29"
"1289","17333.15"
"1290","17335.55"
"1291","17328.16"
"1292","17319.07"
"1293","17320.93"
"1294","17345.23"
"1295","17390.18"
"1296","17445.71"
"1297","17501.77"
"1298","17552.25"
"1299","17594.76"
"1300","17627.03"
"1301","17646.23"
"1302","17648.7"
"1303","17630.77"
"1304","17596.52"
"1305","17566.82"
"1306","17564.73"
"1307","17602.16"
"1308","17654.12"
"1309","17687.96"
"1310","17677.92"
"1311","17633.48"
"1312","17575.41"
"1313","17523.96"
"1314","17495.23"
"1315","17503.3"
"1316","17559.7"
"1317","17642.71"
"1318","17707.42"
"1319","17710.39"
"1320","17652.99"
"1321","17581.18"
"1322","17542.23"
"1323","17551.55"
"1324","17579.7"
"1325","17593.98"
"1326","17578.58"
"1327","17551.33"
"1328","17534.01"
"1329","17539.63"
"1330","17556.25"
"1331","17567.47"
"1332","17562.47"
"1333","17552.91"
"1334","17556.22"
"1335","17585.21"
"1336","17625.83"
"1337","17654.23"
"1338","17649.86"
"1339","17620.14"
"1340","17586.51"
"1341","17568.87"
"1342","17566.49"
"1343","17564.58"
"1344","17548.83"
"1345","17519.54"
"1346","17490.21"
"1347","17474.6"
"1348","17477.6"
"1349","17493.59"
"1350","17516.36"
"1351","17541.98"
"1352","17570.07"
"1353","17600.58"
"1354","17632.55"
"1355","17663.16"
"1356","17689.39"
"1357","17706.25"
"1358","17703.47"
"1359","17669.91"
"1360","17602.32"
"1361","17525.09"
"1362","17468.71"
"1363","17456.83"
"1364","17481.5"
"1365","17525.68"
"1366","17573.43"
"1367","17615.54"
"1368","17645.25"
"1369","17656.38"
"1370","17647.14"
"1371","17617.81"
"1372","17570.1"
"1373","17520.29"
"1374","17493.19"
"1375","17511.15"
"1376","17563"
"1377","17613.56"
"1378","17629.13"
"1379","17612.2"
"1380","17596.51"
"1381","17615.22"
"1382","17660.42"
"1383","17681.57"
"1384","17627.75"
"1385","17503.73"
"1386","17383.1"
"1387","17342.63"
"1388","17401.44"
"1389","17494.52"
"1390","17550.59"
"1391","17536.2"
"1392","17482.67"
"1393","17427.63"
"1394","17396.38"
"1395","17389.49"
"1396","17404.56"
"1397","17434.56"
"1398","17461.73"
"1399","17466.78"
"1400","17439.72"
"1401","17395.6"
"1402","17353.62"
"1403","17329.51"
"1404","17328.21"
"1405","17352.62"
"1406","17400.07"
"1407","17448.37"
"1408","17471.04"
"1409","17451.46"
"1410","17412.32"
"1411","17386.04"
"1412","17396.16"
"1413","17426.47"
"1414","17449.73"
"1415","17445.21"
"1416","17424.35"
"1417","17408.53"
"1418","17414.39"
"1419","17432.64"
"1420","17445.25"
"1421","17437.74"
"1422","17416.65"
"1423","17396.26"
"1424","17389.85"
"1425","17404.18"
"1426","17443.47"
"1427","17508.93"
"1428","17581.18"
"1429","17632.16"
"1430","17640.09"
"1431","17628.95"
"1432","17642.96"
"1433","17718.34"
"1434","17829.13"
"1435","17920.69"
"1436","17945.64"
"1437","17916.28"
"1438","17873.33"
"1439","17853.59"
"1440","17859.55"
"1441","17876.9"
"1442","17892.28"
"1443","17901.32"
"1444","17904.11"
"1445","17901.16"
"1446","17896.12"
"1447","17894.19"
"1448","17900.22"
"1449","17915.87"
"1450","17941.15"
"1451","17974.18"
"1452","17997.12"
"1453","17984.24"
"1454","17915.05"
"1455","17812.79"
"1456","17722.1"
"1457","17681.64"
"1458","17681.59"
"1459","17688.99"
"1460","17675.52"
"1461","17649.22"
"1462","17634.89"
"1463","17650.9"
"1464","17668.72"
"1465","17639.17"
"1466","17524.75"
"1467","17368.34"
"1468","17246.36"
"1469","17220.64"
"1470","17259.34"
"1471","17293.94"
"1472","17267.97"
"1473","17196.61"
"1474","17121.16"
"1475","17076.42"
"1476","17061.87"
"1477","17065.13"
"1478","17072.52"
"1479","17063.91"
"1480","17017.23"
"1481","16921.02"
"1482","16810.86"
"1483","16735.33"
"1484","16728.82"
"1485","16769.4"
"1486","16821.27"
"1487","16854.64"
"1488","16860.98"
"1489","16836.37"
"1490","16783.63"
"1491","16726.19"
"1492","16691.47"
"1493","16695.41"
"1494","16723.21"
"1495","16754.97"
"1496","16776.15"
"1497","16784.72"
"1498","16780.42"
"1499","16764.7"
"1500","16742.39"
"1501","16718.69"
"1502","16696.68"
"1503","16675.79"
"1504","16655.12"
"1505","16635.93"
"1506","16622.65"
"1507","16619.82"
"1508","16626.6"
"1509","16635.47"
"1510","16638.69"
"1511","16634.59"
"1512","16627.89"
"1513","16623.47"
"1514","16623.11"
"1515","16625.88"
"1516","16630.78"
"1517","16637.56"
"1518","16646.47"
"1519","16656.99"
"1520","16660.11"
"1521","16641.73"
"1522","16591.03"
"1523","16524.67"
"1524","16472.73"
"1525","16458.94"
"1526","16466.21"
"1527","16461.55"
"1528","16419.96"
"1529","16355.95"
"1530","16296.14"
"1531","16261.64"
"1532","16252.78"
"1533","16264.95"
"1534","16289.5"
"1535","16305.98"
"1536","16291.89"
"1537","16242.45"
"1538","16192.36"
"1539","16181.39"
"1540","16220.87"
"1541","16273.25"
"1542","16297.02"
"1543","16284.36"
"1544","16272.08"
"1545","16298.25"
"1546","16357.79"
"1547","16401.84"
"1548","16383.17"
"1549","16309.82"
"1550","16232.53"
"1551","16198.8"
"1552","16211.43"
"1553","16247.27"
"1554","16284.5"
"1555","16313.22"
"1556","16328.6"
"1557","16326.99"
"1558","16310.25"
"1559","16281.98"
"1560","16245.65"
"1561","16204.27"
"1562","16160.73"
"1563","16120.27"
"1564","16093.78"
"1565","16092.91"
"1566","16117.26"
"1567","16145.22"
"1568","16153.37"
"1569","16133.63"
"1570","16097.24"
"1571","16056.54"
"1572","16020.4"
"1573","15994.54"
"1574","15984.23"
"1575","15990.46"
"1576","16011.49"
"1577","16043.57"
"1578","16068.41"
"1579","16061.24"
"1580","16006.03"
"1581","15928.8"
"1582","15868.23"
"1583","15853.02"
"1584","15880.1"
"1585","15940.13"
"1586","16015.96"
"1587","16074.13"
"1588","16079.83"
"1589","16032.88"
"1590","15982.4"
"1591","15978.91"
"1592","16020.74"
"1593","16056.02"
"1594","16036.22"
"1595","15976.32"
"1596","15932.45"
"1597","15951.47"
"1598","16010.98"
"1599","16059.11"
"1600","16057.13"
"1601","16023.01"
"1602","15989.97"
"1603","15977.74"
"1604","15969.91"
"1605","15944.32"
"1606","15898.4"
"1607","15862.73"
"1608","15870.06"
"1609","15922.2"
"1610","15987.05"
"1611","16032.33"
"1612","16046.43"
"1613","16032.31"
"1614","15994.51"
"1615","15946.71"
"1616","15906.69"
"1617","15889.17"
"1618","15895.86"
"1619","15924.99"
"1620","15968.61"
"1621","16003.24"
"1622","16003.34"
"1623","15966.1"
"1624","15923.74"
"1625","15910.08"
"1626","15929.78"
"1627","15959.66"
"1628","15977.51"
"1629","15982.02"
"1630","15984.03"
"1631","15991.23"
"1632","15992.79"
"1633","15971.5"
"1634","15920.96"
"1635","15868.29"
"1636","15846.93"
"1637","15869.79"
"1638","15913.03"
"1639","15949.58"
"1640","15969.86"
"1641","15982.88"
"1642","15997.91"
"1643","16017.03"
"1644","16037.74"
"1645","16057.62"
"1646","16075.04"
"1647","16088.64"
"1648","16096.55"
"1649","16095.3"
"1650","16081.21"
"1651","16058.58"
"1652","16045.52"
"1653","16060.39"
"1654","16095.71"
"1655","16118.42"
"1656","16098.82"
"1657","16050.73"
"1658","16012.48"
"1659","16011.41"
"1660","16019.95"
"1661","15993.89"
"1662","15914.65"
"1663","15828.73"
"1664","15791.98"
"1665","15818.66"
"1666","15865.61"
"1667","15887.53"
"1668","15870.58"
"1669","15825.03"
"1670","15763.58"
"1671","15711.14"
"1672","15697.68"
"1673","15734.26"
"1674","15768.89"
"1675","15737.03"
"1676","15627.72"
"1677","15522.3"
"1678","15506.7"
"1679","15573.99"
"1680","15631.52"
"1681","15597.27"
"1682","15502.86"
"1683","15435.38"
"1684","15452.5"
"1685","15496.55"
"1686","15482.42"
"1687","15380.67"
"1688","15268.15"
"1689","15230.03"
"1690","15265.89"
"1691","15290.54"
"1692","15228"
"1693","15113.84"
"1694","15040.51"
"1695","15069.92"
"1696","15142.09"
"1697","15167.6"
"1698","15111.56"
"1699","15041.59"
"1700","15033.53"
"1701","15096.15"
"1702","15174.73"
"1703","15217.96"
"1704","15221.89"
"1705","15204.89"
"1706","15180.42"
"1707","15144.28"
"1708","15088.64"
"1709","15022.32"
"1710","14981.44"
"1711","15001.33"
"1712","15063.11"
"1713","15104"
"1714","15072.06"
"1715","14991.29"
"1716","14914.98"
"1717","14879.98"
"1718","14877.81"
"1719","14892.29"
"1720","14906.8"
"1721","14904.28"
"1722","14870.59"
"1723","14824.42"
"1724","14804.62"
"1725","14836.51"
"1726","14884.42"
"1727","14896.14"
"1728","14856.64"
"1729","14822.33"
"1730","14853.88"
"1731","14936.35"
"1732","14987.04"
"1733","14937.98"
"1734","14836.16"
"1735","14775.58"
"1736","14810.21"
"1737","14883.27"
"1738","14920.45"
"1739","14897.5"
"1740","14851.56"
"1741","14819.99"
"1742","14806.04"
"1743","14793.93"
"1744","14774.21"
"1745","14761.89"
"1746","14777.42"
"1747","14822.77"
"1748","14870.83"
"1749","14893.69"
"1750","14887.38"
"1751","14864.83"
"1752","14837.61"
"1753","14809.21"
"1754","14780.73"
"1755","14755.81"
"1756","14742.93"
"1757","14750.17"
"1758","14769.61"
"1759","14779.96"
"1760","14764.3"
"1761","14732.96"
"1762","14705.68"
"1763","14694.94"
"1764","14697.3"
"1765","14707.1"
"1766","14716.92"
"1767","14717.74"
"1768","14702.73"
"1769","14679.42"
"1770","14660.82"
"1771","14652.93"
"1772","14645.49"
"1773","14626.78"
"1774","14604.47"
"1775","14604.89"
"1776","14646.73"
"1777","14694.77"
"1778","14692.81"
"1779","14623.11"
"1780","14558.19"
"1781","14579.51"
"1782","14683.39"
"1783","14785.67"
"1784","14812.1"
"1785","14768.86"
"1786","14692.26"
"1787","14615.6"
"1788","14565.22"
"1789","14564.52"
"1790","14598.89"
"1791","14620.54"
"1792","14593.42"
"1793","14551.3"
"1794","14551.13"
"1795","14612.77"
"1796","14684.48"
"1797","14709.99"
"1798","14687.81"
"1799","14657.95"
"1800","14649.64"
"1801","14639.02"
"1802","14587.87"
"1803","14495.24"
"1804","14419.69"
"1805","14418.84"
"1806","14479.89"
"1807","14546.59"
"1808","14575.36"
"1809","14569.19"
"1810","14541.39"
"1811","14511.82"
"1812","14508.58"
"1813","14552.98"
"1814","14608.96"
"1815","14613.55"
"1816","14539.14"
"1817","14448.29"
"1818","14414.62"
"1819","14448.13"
"1820","14499.97"
"1821","14526.81"
"1822","14527.17"
"1823","14513.35"
"1824","14492.83"
"1825","14464.55"
"1826","14427.56"
"1827","14392.05"
"1828","14375.37"
"1829","14387.01"
"1830","14409.06"
"1831","14418.11"
"1832","14403.8"
"1833","14371.09"
"1834","14327.79"
"1835","14295.01"
"1836","14299.27"
"1837","14344.55"
"1838","14387.21"
"1839","14381.52"
"1840","14338.99"
"1841","14313.51"
"1842","14342.89"
"1843","14398.63"
"1844","14436.81"
"1845","14437.84"
"1846","14412.81"
"1847","14375.1"
"1848","14340.08"
"1849","14323.97"
"1850","14333.41"
"1851","14354.67"
"1852","14372.06"
"1853","14379.35"
"1854","14377.05"
"1855","14369.64"
"1856","14375.21"
"1857","14413.74"
"1858","14469.42"
"1859","14485.13"
"1860","14417.06"
"1861","14317.65"
"1862","14275.21"
"1863","14319.57"
"1864","14374.7"
"1865","14362.24"
"1866","14297.56"
"1867","14251.92"
"1868","14265.04"
"1869","14285.22"
"1870","14248.62"
"1871","14167.91"
"1872","14124.37"
"1873","14177.29"
"1874","14277.8"
"1875","14348.54"
"1876","14365.89"
"1877","14376.52"
"1878","14422.49"
"1879","14481.91"
"1880","14506.72"
"1881","14475.81"
"1882","14418.96"
"1883","14369.18"
"1884","14333.77"
"1885","14304.9"
"1886","14279.19"
"1887","14265.68"
"1888","14274.32"
"1889","14295.92"
"1890","14305.71"
"1891","14284.53"
"1892","14236.12"
"1893","14170.35"
"1894","14117.42"
"1895","14129.62"
"1896","14239.38"
"1897","14370.81"
"1898","14414.8"
"1899","14341.89"
"1900","14235.41"
"1901","14175.62"
"1902","14160.7"
"1903","14154.33"
"1904","14139.2"
"1905","14132.51"
"1906","14151.93"
"1907","14185.29"
"1908","14204.43"
"1909","14195.62"
"1910","14178.15"
"1911","14174.19"
"1912","14185.12"
"1913","14198.54"
"1914","14205.4"
"1915","14206.68"
"1916","14204.88"
"1917","14199.17"
"1918","14186.04"
"1919","14163.94"
"1920","14138.1"
"1921","14114.95"
"1922","14096.31"
"1923","14079.75"
"1924","14063.83"
"1925","14051.55"
"1926","14046.79"
"1927","14048.16"
"1928","14048.77"
"1929","14043.09"
"1930","14033.13"
"1931","14022.95"
"1932","14015.57"
"1933","14012.87"
"1934","14015.45"
"1935","14018.08"
"1936","14013.74"
"1937","13996.96"
"1938","13964.26"
"1939","13916.54"
"1940","13877.58"
"1941","13878.04"
"1942","13915.31"
"1943","13942.77"
"1944","13922.88"
"1945","13887.06"
"1946","13889.92"
"1947","13941.01"
"1948","13988.42"
"1949","13985.68"
"1950","13943.97"
"1951","13894.75"
"1952","13853.11"
"1953","13811.72"
"1954","13766.06"
"1955","13737.13"
"1956","13754.17"
"1957","13811.67"
"1958","13857.32"
"1959","13846.68"
"1960","13797.57"
"1961","13748.63"
"1962","13717.48"
"1963","13694.6"
"1964","13672.01"
"1965","13659.04"
"1966","13670.16"
"1967","13703.3"
"1968","13736.48"
"1969","13749.21"
"1970","13734.25"
"1971","13689.06"
"1972","13633.53"
"1973","13612.33"
"1974","13652.27"
"1975","13699.41"
"1976","13681.69"
"1977","13599.93"
"1978","13526.66"
"1979","13515.05"
"1980","13536.03"
"1981","13543.69"
"1982","13526.45"
"1983","13502.16"
"1984","13486.85"
"1985","13487.9"
"1986","13510.02"
"1987","13544.1"
"1988","13570.9"
"1989","13573.3"
"1990","13540.3"
"1991","13465.57"
"1992","13382.87"
"1993","13350.04"
"1994","13386.95"
"1995","13434.65"
"1996","13432.93"
"1997","13391.95"
"1998","13355.87"
"1999","13343.92"
"2000","13334.13"
"2001","13306.84"
"2002","13280.57"
"2003","13287.3"
"2004","13320.22"
"2005","13322.84"
"2006","13255.56"
"2007","13171.56"
"2008","13147.33"
"2009","13183.98"
"2010","13208.64"
"2011","13170.43"
"2012","13102.62"
"2013","13054.17"
"2014","13047.35"
"2015","13084.73"
"2016","13147.89"
"2017","13169.5"
"2018","13087.13"
"2019","12950.43"
"2020","12868.26"
"2021","12886.83"
"2022","12944.73"
"2023","12978.53"
"2024","12977.16"
"2025","12949.08"
"2026","12903.47"
"2027","12850.37"
"2028","12804.45"
"2029","12798.47"
"2030","12865.89"
"2031","12974.07"
"2032","13035.64"
"2033","13004.59"
"2034","12947.36"
"2035","12938.4"
"2036","12953.5"
"2037","12914.18"
"2038","12800.51"
"2039","12693.23"
"2040","12664.81"
"2041","12682.12"
"2042","12676.06"
"2043","12629.59"
"2044","12583.4"
"2045","12567.03"
"2046","12560.38"
"2047","12535.64"
"2048","12507.33"
"2049","12519.75"
"2050","12582.37"
"2051","12629.84"
"2052","12599.51"
"2053","12517.25"
"2054","12446.42"
"2055","12411.26"
"2056","12385.38"
"2057","12351.18"
"2058","12339.71"
"2059","12389.31"
"2060","12461.4"
"2061","12457.7"
"2062","12342.37"
"2063","12224.77"
"2064","12216.5"
"2065","12293.64"
"2066","12371.42"
"2067","12392.21"
"2068","12334.26"
"2069","12199.18"
"2070","12071.36"
"2071","12047.81"
"2072","12110"
"2073","12153.44"
"2074","12127.34"
"2075","12098.4"
"2076","12131.73"
"2077","12181.98"
"2078","12161.58"
"2079","12074.04"
"2080","12027.8"
"2081","12091.94"
"2082","12185.04"
"2083","12202.73"
"2084","12134.91"
"2085","12030.18"
"2086","11932.57"
"2087","11876.78"
"2088","11883.68"
"2089","11908.11"
"2090","11887.22"
"2091","11820.3"
"2092","11761.74"
"2093","11747.02"
"2094","11761.06"
"2095","11781.52"
"2096","11788.05"
"2097","11761.97"
"2098","11712.3"
"2099","11681.39"
"2100","11694.34"
"2101","11712.23"
"2102","11689.34"
"2103","11649.47"
"2104","11657.08"
"2105","11720.43"
"2106","11759.51"
"2107","11711.6"
"2108","11623.84"
"2109","11568.97"
"2110","11553.82"
"2111","11536.04"
"2112","11492.93"
"2113","11442.17"
"2114","11403.1"
"2115","11378.86"
"2116","11366.89"
"2117","11361.89"
"2118","11356.03"
"2119","11336.03"
"2120","11276.39"
"2121","11161.77"
"2122","11053.9"
"2123","11041.61"
"2124","11121.93"
"2125","11198.39"
"2126","11206.96"
"2127","11179.3"
"2128","11156.09"
"2129","11131.67"
"2130","11081.1"
"2131","11016.25"
"2132","10989.79"
"2133","11028.12"
"2134","11078.04"
"2135","11079.93"
"2136","11033.37"
"2137","10965.58"
"2138","10899.91"
"2139","10854.93"
"2140","10836.1"
"2141","10811.99"
"2142","10752.51"
"2143","10690.76"
"2144","10687.94"
"2145","10751.36"
"2146","10826.63"
"2147","10866.82"
"2148","10855.44"
"2149","10787.46"
"2150","10704.58"
"2151","10667.71"
"2152","10681.9"
"2153","10691.91"
"2154","10664.57"
"2155","10631.75"
"2156","10625.5"
"2157","10608.71"
"2158","10519.52"
"2159","10384.58"
"2160","10316.78"
"2161","10367.85"
"2162","10441.68"
"2163","10440.63"
"2164","10379.1"
"2165","10310.17"
"2166","10260.05"
"2167","10232.24"
"2168","10227.01"
"2169","10239.79"
"2170","10260.93"
"2171","10259.75"
"2172","10203.46"
"2173","10114.34"
"2174","10052.63"
"2175","10047.05"
"2176","10075.82"
"2177","10108.65"
"2178","10100.41"
"2179","10013.31"
"2180","9912.288"
"2181","9915.25"
"2182","10019.85"
"2183","10077.35"
"2184","9999.229"
"2185","9886.439"
"2186","9851.445"
"2187","9867.354"
"2188","9854.077"
"2189","9805.659"
"2190","9783.037"
"2191","9803.084"
"2192","9791.293"
"2193","9690.539"
"2194","9572.48"
"2195","9536.896"
"2196","9580.042"
"2197","9631.897"
"2198","9643.518"
"2199","9596.474"
"2200","9493.463"
"2201","9394.295"
"2202","9361.203"
"2203","9395.708"
"2204","9471.573"
"2205","9533.914"
"2206","9501.945"
"2207","9351.975"
"2208","9173.013"
"2209","9055.739"
"2210","9040.612"
"2211","9142.282"
"2212","9247.175"
"2213","9171.201"
"2214","8931.623"
"2215","8792.853"
"2216","8904.13"
"2217","9079.749"
"2218","9119.06"
"2219","9043.011"
"2220","8948.446"
"2221","8888.61"
"2222","8883.646"
"2223","8922.842"
"2224","8950.28"
"2225","8918.656"
"2226","8820.173"
"2227","8665.126"
"2228","8536.033"
"2229","8538.186"
"2230","8625.741"
"2231","8623.144"
"2232","8469.99"
"2233","8311.474"
"2234","8268.333"
"2235","8299.757"
"2236","8332.96"
"2237","8328.95"
"2238","8266.83"
"2239","8171.37"
"2240","8109.557"
"2241","8111.618"
"2242","8137.677"
"2243","8143.299"
"2244","8095.469"
"2245","7975.975"
"2246","7865.063"
"2247","7883.504"
"2248","8003.332"
"2249","8057.933"
"2250","7961.686"
"2251","7784.101"
"2252","7604.14"
"2253","7475.878"
"2254","7437.261"
"2255","7445.034"
"2256","7421.815"
"2257","7346.273"
"2258","7245.88"
"2259","7132.542"
"2260","6990.044"
"2261","6820.958"
"2262","6695.764"
"2263","6678.852"
"2264","6706.167"
"2265","6669.49"
"2266","6566.29"
"2267","6473.223"
"2268","6433.66"
"2269","6441.937"
"2270","6471.129"
"2271","6448.521"
"2272","6316.804"
"2273","6137.226"
"2274","6000.497"
"2275","5903.175"
"2276","5786.567"
"2277","5646.101"
"2278","5537.399"
"2279","5487.913"
"2280","5462.523"
"2281","5425.509"
"2282","5367.438"
"2283","5283.004"
"2284","5151.736"
"2285","4950.868"
"2286","4732.079"
"2287","4605.77"
"2288","4588.544"
"2289","4559.806"
"2290","4442.53"
"2291","4300.881"
"2292","4203.622"
"2293","4130.555"
"2294","4036.558"
"2295","3898.735"
"2296","3709.222"
"2297","3518.825"
"2298","3434.111"
"2299","3469.011"
"2300","3477.136"
