,"Scan 00873"
"400","6376.677"
"401","6387.698"
"402","6371.707"
"403","6347.66"
"404","6334.383"
"405","6348.5"
"406","6388.767"
"407","6444.903"
"408","6506.635"
"409","6563.958"
"410","6609.53"
"411","6637.87"
"412","6643.573"
"413","6621.586"
"414","6573.243"
"415","6505.835"
"416","6426.824"
"417","6343.637"
"418","6264.051"
"419","6196.303"
"420","6148.595"
"421","6128.947"
"422","6136.731"
"423","6157.434"
"424","6175.376"
"425","6175.046"
"426","6149.704"
"427","6110.821"
"428","6072.08"
"429","6047.055"
"430","6043.935"
"431","6056.534"
"432","6076.319"
"433","6094.812"
"434","6105.815"
"435","6110.872"
"436","6113.176"
"437","6115.904"
"438","6120.658"
"439","6122.224"
"440","6113.565"
"441","6087.687"
"442","6040.553"
"443","5984.095"
"444","5935.596"
"445","5912.229"
"446","5927.37"
"447","5969.382"
"448","6016.377"
"449","6046.582"
"450","6041.408"
"451","6007.569"
"452","5964.181"
"453","5930.32"
"454","5922.781"
"455","5936.627"
"456","5954.45"
"457","5958.809"
"458","5934.12"
"459","5886.01"
"460","5834.09"
"461","5798.1"
"462","5796.02"
"463","5822.178"
"464","5853.257"
"465","5865.653"
"466","5837.47"
"467","5773.408"
"468","5700.299"
"469","5645.491"
"470","5634.894"
"471","5669.122"
"472","5725.659"
"473","5781.261"
"474","5813.553"
"475","5816.638"
"476","5800.957"
"477","5777.59"
"478","5757.313"
"479","5744.658"
"480","5737.556"
"481","5733.629"
"482","5730.486"
"483","5724.933"
"484","5712.874"
"485","5690.189"
"486","5653.004"
"487","5604.269"
"488","5554.854"
"489","5516.019"
"490","5498.654"
"491","5503.733"
"492","5520.425"
"493","5537.264"
"494","5543.087"
"495","5534.509"
"496","5517.531"
"497","5498.675"
"498","5484.265"
"499","5474.954"
"500","5464.583"
"501","5446.621"
"502","5414.712"
"503","5367.105"
"504","5307.502"
"505","5239.901"
"506","5168.353"
"507","5099.206"
"508","5041.465"
"509","5004.23"
"510","4996.143"
"511","5014.259"
"512","5042.839"
"513","5065.558"
"514","5066.744"
"515","5045.02"
"516","5013.962"
"517","4987.779"
"518","4980.015"
"519","4990.99"
"520","5008.113"
"521","5018.315"
"522","5009.225"
"523","4980.645"
"524","4943.339"
"525","4908.409"
"526","4886.28"
"527","4877.118"
"528","4872.686"
"529","4864.538"
"530","4844.87"
"531","4814.241"
"532","4779.357"
"533","4747.031"
"534","4723.579"
"535","4709.827"
"536","4703.036"
"537","4700.422"
"538","4699.01"
"539","4693.813"
"540","4678.727"
"541","4647.659"
"542","4596.327"
"543","4534.949"
"544","4480.744"
"545","4450.894"
"546","4459.318"
"547","4498.672"
"548","4552.953"
"549","4606.206"
"550","4644.571"
"551","4665.204"
"552","4668.984"
"553","4656.788"
"554","4630.301"
"555","4594.75"
"556","4556.314"
"557","4521.141"
"558","4494.708"
"559","4480.218"
"560","4480.37"
"561","4497.844"
"562","4531.417"
"563","4569.159"
"564","4597.368"
"565","4602.455"
"566","4579.772"
"567","4543.849"
"568","4511.638"
"569","4499.86"
"570","4513.359"
"571","4537.108"
"572","4554.243"
"573","4548.305"
"574","4515.788"
"575","4469.998"
"576","4425.308"
"577","4395.612"
"578","4385.139"
"579","4388.469"
"580","4399.784"
"581","4413.45"
"582","4426.219"
"583","4436.654"
"584","4443.365"
"585","4445.281"
"586","4444.358"
"587","4444.264"
"588","4448.669"
"589","4460.525"
"590","4477.999"
"591","4497.304"
"592","4514.661"
"593","4526.389"
"594","4529.221"
"595","4520.022"
"596","4495.666"
"597","4456.467"
"598","4413.759"
"599","4381.04"
"600","4371.72"
"601","4391.482"
"602","4428.967"
"603","4470.575"
"604","4502.875"
"605","4519.44"
"606","4524.574"
"607","4523.478"
"608","4521.169"
"609","4518.472"
"610","4511.733"
"611","4497.096"
"612","4471.352"
"613","4440.141"
"614","4415.592"
"615","4409.939"
"616","4433.056"
"617","4475.655"
"618","4519.024"
"619","4544.452"
"620","4537.836"
"621","4508.414"
"622","4472.844"
"623","4447.724"
"624","4443.717"
"625","4452.6"
"626","4462.413"
"627","4461.284"
"628","4443.894"
"629","4418.1"
"630","4393.317"
"631","4378.813"
"632","4379.508"
"633","4394.719"
"634","4423.401"
"635","4464.12"
"636","4508.945"
"637","4544.593"
"638","4557.663"
"639","4537.068"
"640","4491.672"
"641","4440.621"
"642","4403.086"
"643","4393.74"
"644","4405.125"
"645","4422.958"
"646","4433.003"
"647","4426.438"
"648","4409.877"
"649","4392.66"
"650","4384.033"
"651","4388.201"
"652","4400.87"
"653","4416.94"
"654","4431.443"
"655","4442.241"
"656","4450.059"
"657","4455.743"
"658","4460.092"
"659","4463.377"
"660","4465.555"
"661","4466.574"
"662","4466.104"
"663","4462.245"
"664","4452.571"
"665","4434.662"
"666","4407.839"
"667","4376.569"
"668","4346.262"
"669","4322.283"
"670","4308.138"
"671","4304.275"
"672","4310.866"
"673","4327.881"
"674","4351.296"
"675","4373.371"
"676","4386.24"
"677","4383.588"
"678","4372.585"
"679","4367.395"
"680","4382.199"
"681","4426.384"
"682","4488.474"
"683","4551.322"
"684","4597.861"
"685","4618.065"
"686","4617.632"
"687","4604.372"
"688","4586.002"
"689","4567.63"
"690","4551.258"
"691","4538.7"
"692","4531.54"
"693","4528.719"
"694","4527.492"
"695","4525.091"
"696","4519.755"
"697","4515.017"
"698","4516.122"
"699","4528.298"
"700","4552.074"
"701","4576.093"
"702","4587.168"
"703","4572.502"
"704","4532.81"
"705","4486.119"
"706","4451.553"
"707","4446.441"
"708","4467.126"
"709","4496.147"
"710","4515.838"
"711","4512.197"
"712","4489.889"
"713","4459.541"
"714","4431.755"
"715","4414.751"
"716","4411.162"
"717","4422.807"
"718","4451.33"
"719","4493.067"
"720","4538.255"
"721","4576.81"
"722","4599.516"
"723","4605.434"
"724","4598.286"
"725","4581.84"
"726","4560.21"
"727","4538.946"
"728","4523.967"
"729","4521.128"
"730","4532.005"
"731","4550.303"
"732","4568.896"
"733","4581"
"734","4585.818"
"735","4587.75"
"736","4591.364"
"737","4600.262"
"738","4611.808"
"739","4620.888"
"740","4622.386"
"741","4613.887"
"742","4600.264"
"743","4587.601"
"744","4581.833"
"745","4584.115"
"746","4589.832"
"747","4594.026"
"748","4592.665"
"749","4590.371"
"750","4596.508"
"751","4620.474"
"752","4666.204"
"753","4717.658"
"754","4754.25"
"755","4755.72"
"756","4719.298"
"757","4669.025"
"758","4631.188"
"759","4629.775"
"760","4660.568"
"761","4700.251"
"762","4725.176"
"763","4718.379"
"764","4692.603"
"765","4668.862"
"766","4668.005"
"767","4698.464"
"768","4746.634"
"769","4796.656"
"770","4833.422"
"771","4852.453"
"772","4857.33"
"773","4851.833"
"774","4840.339"
"775","4830.187"
"776","4829.611"
"777","4846.775"
"778","4883.223"
"779","4928.11"
"780","4969.252"
"781","4995.15"
"782","5004.536"
"783","5004.043"
"784","5000.506"
"785","4999.758"
"786","5002.831"
"787","5009.308"
"788","5018.755"
"789","5029.131"
"790","5035.517"
"791","5032.698"
"792","5016.103"
"793","4989.812"
"794","4964.128"
"795","4949.479"
"796","4953.321"
"797","4970.317"
"798","4991.706"
"799","5008.819"
"800","5018.324"
"801","5025.251"
"802","5035.347"
"803","5053.617"
"804","5077.062"
"805","5097.796"
"806","5107.873"
"807","5102.963"
"808","5091.251"
"809","5083.619"
"810","5090.703"
"811","5114.585"
"812","5146.642"
"813","5177.574"
"814","5199.017"
"815","5209.888"
"816","5212.529"
"817","5209.299"
"818","5202.067"
"819","5191.467"
"820","5177.939"
"821","5162.003"
"822","5145.809"
"823","5133.003"
"824","5127.288"
"825","5131.466"
"826","5143.653"
"827","5160.437"
"828","5178.421"
"829","5195.349"
"830","5210.924"
"831","5225.044"
"832","5237.697"
"833","5249.883"
"834","5263.23"
"835","5279.374"
"836","5298.486"
"837","5316.042"
"838","5326.561"
"839","5324.809"
"840","5311.941"
"841","5296.086"
"842","5285.72"
"843","5287.417"
"844","5296.263"
"845","5303.065"
"846","5298.697"
"847","5281.453"
"848","5263.422"
"849","5258.194"
"850","5277.928"
"851","5318.462"
"852","5365.225"
"853","5403.484"
"854","5423.03"
"855","5427.917"
"856","5425.002"
"857","5420.996"
"858","5418.923"
"859","5418.053"
"860","5417.481"
"861","5416.942"
"862","5419.52"
"863","5429.408"
"864","5450.725"
"865","5482.665"
"866","5516.657"
"867","5543.438"
"868","5554.856"
"869","5552.437"
"870","5542.712"
"871","5532.252"
"872","5526.483"
"873","5528.082"
"874","5539.323"
"875","5561.988"
"876","5590.629"
"877","5614.278"
"878","5621.827"
"879","5607.349"
"880","5583.523"
"881","5567.213"
"882","5574.661"
"883","5605.968"
"884","5643.858"
"885","5670.193"
"886","5671.269"
"887","5656.533"
"888","5642.973"
"889","5647.375"
"890","5675.994"
"891","5719.627"
"892","5767.838"
"893","5810.767"
"894","5842.791"
"895","5860.186"
"896","5859.289"
"897","5842.358"
"898","5823.182"
"899","5816.874"
"900","5836.541"
"901","5874.672"
"902","5911.658"
"903","5927.762"
"904","5913.339"
"905","5884.136"
"906","5859.825"
"907","5858.7"
"908","5879.776"
"909","5907.873"
"910","5927.479"
"911","5928.998"
"912","5921.512"
"913","5917.775"
"914","5929.814"
"915","5955.854"
"916","5981.854"
"917","5993.343"
"918","5980.457"
"919","5951.027"
"920","5917.126"
"921","5890.587"
"922","5877.164"
"923","5876.313"
"924","5887.193"
"925","5908.441"
"926","5936.317"
"927","5966.418"
"928","5994.381"
"929","6017.118"
"930","6033.045"
"931","6040.664"
"932","6039.047"
"933","6030.191"
"934","6017.015"
"935","6002.44"
"936","5989.463"
"937","5981.166"
"938","5980.641"
"939","5990.04"
"940","6006.313"
"941","6024.627"
"942","6040.194"
"943","6050.425"
"944","6055.714"
"945","6056.667"
"946","6054.127"
"947","6050.331"
"948","6048.012"
"949","6049.813"
"950","6054.236"
"951","6054.021"
"952","6041.478"
"953","6011.921"
"954","5978.273"
"955","5959.841"
"956","5975.509"
"957","6024.48"
"958","6078.787"
"959","6108.461"
"960","6090.238"
"961","6039.059"
"962","5983.392"
"963","5951.314"
"964","5953.874"
"965","5979.503"
"966","6015.071"
"967","6048.411"
"968","6072.539"
"969","6082.196"
"970","6072.349"
"971","6045.902"
"972","6015.583"
"973","5994.738"
"974","5993.769"
"975","6008.767"
"976","6031.494"
"977","6053.769"
"978","6069.232"
"979","6073.569"
"980","6062.571"
"981","6035.602"
"982","6007.214"
"983","5996"
"984","6019.457"
"985","6070.347"
"986","6117.096"
"987","6127.085"
"988","6080.699"
"989","6005.161"
"990","5938.244"
"991","5915.9"
"992","5942.756"
"993","5997.138"
"994","6056.559"
"995","6103.256"
"996","6133.459"
"997","6145.968"
"998","6140.265"
"999","6124.664"
"1000","6113.599"
"1001","6121.606"
"1002","6154.944"
"1003","6200.333"
"1004","6241.667"
"1005","6262.832"
"1006","6251.091"
"1007","6216.48"
"1008","6178.415"
"1009","6156.068"
"1010","6154.828"
"1011","6160.298"
"1012","6156.537"
"1013","6132.494"
"1014","6103.689"
"1015","6094.64"
"1016","6129.007"
"1017","6202.912"
"1018","6280.128"
"1019","6322.56"
"1020","6304.237"
"1021","6250.473"
"1022","6200.127"
"1023","6190.436"
"1024","6225.528"
"1025","6278.851"
"1026","6322.678"
"1027","6338.549"
"1028","6337.19"
"1029","6335.064"
"1030","6347.337"
"1031","6372.116"
"1032","6395.535"
"1033","6403.504"
"1034","6390.004"
"1035","6367.338"
"1036","6350.348"
"1037","6352.441"
"1038","6374.715"
"1039","6412.028"
"1040","6459.157"
"1041","6508.917"
"1042","6550.991"
"1043","6574.777"
"1044","6572.844"
"1045","6555.421"
"1046","6538.839"
"1047","6538.932"
"1048","6557.589"
"1049","6581.409"
"1050","6596.197"
"1051","6593.346"
"1052","6583.951"
"1053","6583.461"
"1054","6605.771"
"1055","6643.301"
"1056","6672.895"
"1057","6671.108"
"1058","6630.377"
"1059","6577.899"
"1060","6545.478"
"1061","6559.898"
"1062","6610.067"
"1063","6667.663"
"1064","6704.724"
"1065","6712.824"
"1066","6709.818"
"1067","6715.425"
"1068","6743.666"
"1069","6784.484"
"1070","6821.473"
"1071","6839.009"
"1072","6834.412"
"1073","6815.456"
"1074","6790.215"
"1075","6765.657"
"1076","6746.161"
"1077","6735.736"
"1078","6737.7"
"1079","6750.045"
"1080","6768.316"
"1081","6788.027"
"1082","6804.28"
"1083","6811.64"
"1084","6804.629"
"1085","6780.982"
"1086","6750.723"
"1087","6726.836"
"1088","6721.328"
"1089","6733.222"
"1090","6752.355"
"1091","6768.397"
"1092","6775.792"
"1093","6778.185"
"1094","6780.276"
"1095","6785.824"
"1096","6793.135"
"1097","6798.544"
"1098","6798.447"
"1099","6790.483"
"1100","6773.53"
"1101","6746.522"
"1102","6711.112"
"1103","6676.22"
"1104","6651.96"
"1105","6646.989"
"1106","6658.126"
"1107","6676.468"
"1108","6693.205"
"1109","6704.523"
"1110","6712.887"
"1111","6721.17"
"1112","6731.059"
"1113","6740.232"
"1114","6745.52"
"1115","6744.172"
"1116","6737.772"
"1117","6730.454"
"1118","6726.345"
"1119","6727.411"
"1120","6732.421"
"1121","6739.887"
"1122","6747.261"
"1123","6747.842"
"1124","6733.897"
"1125","6699.212"
"1126","6655.587"
"1127","6626.59"
"1128","6635.678"
"1129","6684.719"
"1130","6741.171"
"1131","6769.395"
"1132","6744.767"
"1133","6688.547"
"1134","6633.919"
"1135","6611.605"
"1136","6622.097"
"1137","6645.776"
"1138","6662.839"
"1139","6665.553"
"1140","6665.242"
"1141","6674.919"
"1142","6701.67"
"1143","6728.99"
"1144","6734.5"
"1145","6698.578"
"1146","6632.312"
"1147","6565.885"
"1148","6529.432"
"1149","6535.193"
"1150","6569.754"
"1151","6617.711"
"1152","6665.126"
"1153","6703.177"
"1154","6724.14"
"1155","6721.849"
"1156","6704.299"
"1157","6687.034"
"1158","6685.371"
"1159","6704.617"
"1160","6738.08"
"1161","6778.351"
"1162","6818.071"
"1163","6850.008"
"1164","6866.952"
"1165","6863.513"
"1166","6846.697"
"1167","6828.661"
"1168","6821.044"
"1169","6824.677"
"1170","6830.397"
"1171","6828.707"
"1172","6816.249"
"1173","6802.008"
"1174","6796.455"
"1175","6806.798"
"1176","6824.99"
"1177","6838.526"
"1178","6836.179"
"1179","6821.964"
"1180","6809.843"
"1181","6813.705"
"1182","6836.05"
"1183","6863.785"
"1184","6882.681"
"1185","6883.515"
"1186","6871.913"
"1187","6856.236"
"1188","6844.41"
"1189","6841.329"
"1190","6850.63"
"1191","6875.499"
"1192","6911.077"
"1193","6945.513"
"1194","6966.783"
"1195","6968.833"
"1196","6956.154"
"1197","6934.313"
"1198","6909.685"
"1199","6891.674"
"1200","6890.396"
"1201","6914.005"
"1202","6953.991"
"1203","6993.477"
"1204","7016.139"
"1205","7020.13"
"1206","7018.02"
"1207","7022.938"
"1208","7038.78"
"1209","7051.343"
"1210","7044.32"
"1211","7007.809"
"1212","6957.902"
"1213","6917.282"
"1214","6906.339"
"1215","6925.296"
"1216","6963.952"
"1217","7011.888"
"1218","7055.943"
"1219","7080.246"
"1220","7068.936"
"1221","7020.876"
"1222","6962.468"
"1223","6923.146"
"1224","6923.688"
"1225","6952.899"
"1226","6992.196"
"1227","7024.693"
"1228","7046.398"
"1229","7059.196"
"1230","7065.103"
"1231","7067.735"
"1232","7072.08"
"1233","7083.106"
"1234","7101.917"
"1235","7123.674"
"1236","7143.038"
"1237","7157.165"
"1238","7170.376"
"1239","7188.257"
"1240","7214.276"
"1241","7240.153"
"1242","7253.578"
"1243","7244.087"
"1244","7222.106"
"1245","7211.167"
"1246","7234.147"
"1247","7290.076"
"1248","7351.776"
"1249","7390.854"
"1250","7394.896"
"1251","7382.166"
"1252","7374.41"
"1253","7386.204"
"1254","7407.296"
"1255","7422.061"
"1256","7417.938"
"1257","7402.001"
"1258","7389.062"
"1259","7392.878"
"1260","7413.579"
"1261","7442.03"
"1262","7469.059"
"1263","7489.974"
"1264","7505.183"
"1265","7515.37"
"1266","7521.361"
"1267","7524.265"
"1268","7525.212"
"1269","7524.835"
"1270","7522.115"
"1271","7515.699"
"1272","7504.44"
"1273","7488.312"
"1274","7467.696"
"1275","7443.707"
"1276","7425.016"
"1277","7424.736"
"1278","7454.98"
"1279","7505.564"
"1280","7545.264"
"1281","7542.454"
"1282","7490.114"
"1283","7418.039"
"1284","7359.029"
"1285","7334.248"
"1286","7336.924"
"1287","7356.181"
"1288","7383.112"
"1289","7416.618"
"1290","7457.503"
"1291","7505.534"
"1292","7553.643"
"1293","7592.019"
"1294","7611.979"
"1295","7617.484"
"1296","7620.419"
"1297","7632.348"
"1298","7655.319"
"1299","7682.333"
"1300","7706.069"
"1301","7721.318"
"1302","7725.887"
"1303","7717.835"
"1304","7698.496"
"1305","7676.269"
"1306","7660.489"
"1307","7657.398"
"1308","7663.013"
"1309","7671.23"
"1310","7675.93"
"1311","7670.896"
"1312","7649.888"
"1313","7609.2"
"1314","7565.441"
"1315","7544.974"
"1316","7571.2"
"1317","7628.14"
"1318","7672.324"
"1319","7661.423"
"1320","7592.542"
"1321","7502.035"
"1322","7427.615"
"1323","7389.613"
"1324","7383.908"
"1325","7404.525"
"1326","7443.757"
"1327","7490.436"
"1328","7532.981"
"1329","7561.855"
"1330","7573.343"
"1331","7564.744"
"1332","7537.4"
"1333","7509.095"
"1334","7501.814"
"1335","7532.003"
"1336","7583.627"
"1337","7628.875"
"1338","7644.144"
"1339","7641.52"
"1340","7651.024"
"1341","7699.657"
"1342","7774.775"
"1343","7836.781"
"1344","7847.487"
"1345","7806.613"
"1346","7748.183"
"1347","7706.713"
"1348","7691.923"
"1349","7683.919"
"1350","7661.309"
"1351","7617.498"
"1352","7569.038"
"1353","7534.458"
"1354","7524.104"
"1355","7531.604"
"1356","7548.523"
"1357","7564.944"
"1358","7566.972"
"1359","7540.039"
"1360","7478.314"
"1361","7406.708"
"1362","7356.911"
"1363","7352.656"
"1364","7380.992"
"1365","7418.416"
"1366","7444.915"
"1367","7461.44"
"1368","7476.702"
"1369","7497.515"
"1370","7515.868"
"1371","7516.813"
"1372","7487.742"
"1373","7440.306"
"1374","7400.274"
"1375","7391.441"
"1376","7408.467"
"1377","7425.215"
"1378","7416.531"
"1379","7383.066"
"1380","7347.787"
"1381","7333.602"
"1382","7343.378"
"1383","7359.183"
"1384","7362.598"
"1385","7352.38"
"1386","7348.474"
"1387","7371.723"
"1388","7420.97"
"1389","7462.952"
"1390","7462.2"
"1391","7411.917"
"1392","7354.483"
"1393","7336.926"
"1394","7377.884"
"1395","7439.122"
"1396","7475.689"
"1397","7464.22"
"1398","7431.609"
"1399","7411.871"
"1400","7423.269"
"1401","7441.717"
"1402","7436.087"
"1403","7390.104"
"1404","7333.322"
"1405","7304.129"
"1406","7327.085"
"1407","7378.123"
"1408","7422.482"
"1409","7434.463"
"1410","7424.45"
"1411","7411.784"
"1412","7412.578"
"1413","7428.506"
"1414","7457.232"
"1415","7495.086"
"1416","7531.827"
"1417","7555.174"
"1418","7554.828"
"1419","7531.232"
"1420","7488.461"
"1421","7433.603"
"1422","7391.51"
"1423","7393.571"
"1424","7462.834"
"1425","7568.818"
"1426","7659.936"
"1427","7693.338"
"1428","7686.675"
"1429","7682.957"
"1430","7719.27"
"1431","7788.718"
"1432","7864.968"
"1433","7924.253"
"1434","7963.253"
"1435","7988.086"
"1436","8005.091"
"1437","8021.892"
"1438","8046.736"
"1439","8085.715"
"1440","8127.144"
"1441","8150.62"
"1442","8138.703"
"1443","8099.322"
"1444","8053.055"
"1445","8018.722"
"1446","7999.381"
"1447","7990.176"
"1448","7986.755"
"1449","7989.621"
"1450","8001.707"
"1451","8024.444"
"1452","8046.544"
"1453","8050.372"
"1454","8021.506"
"1455","7972.19"
"1456","7927.725"
"1457","7908.904"
"1458","7900.011"
"1459","7867.934"
"1460","7786.464"
"1461","7682.849"
"1462","7608.91"
"1463","7606.915"
"1464","7648.792"
"1465","7675.552"
"1466","7637.695"
"1467","7551.608"
"1468","7461.142"
"1469","7403.669"
"1470","7374.572"
"1471","7352.795"
"1472","7320.821"
"1473","7282.253"
"1474","7248.386"
"1475","7228.912"
"1476","7224.794"
"1477","7234.066"
"1478","7253.062"
"1479","7269.812"
"1480","7269.798"
"1481","7243.407"
"1482","7202.758"
"1483","7165.977"
"1484","7146.721"
"1485","7140.953"
"1486","7140.26"
"1487","7137.479"
"1488","7129.831"
"1489","7115.489"
"1490","7094.414"
"1491","7072.051"
"1492","7054.898"
"1493","7047.082"
"1494","7046.35"
"1495","7049.383"
"1496","7052.151"
"1497","7048.957"
"1498","7033.911"
"1499","7007.447"
"1500","6982.709"
"1501","6974.244"
"1502","6985.701"
"1503","7001.922"
"1504","7006.113"
"1505","6993.816"
"1506","6978.773"
"1507","6975.78"
"1508","6984.588"
"1509","6986.141"
"1510","6961.11"
"1511","6914.086"
"1512","6874.916"
"1513","6873.067"
"1514","6908.074"
"1515","6952.998"
"1516","6981.488"
"1517","6988.358"
"1518","6983.945"
"1519","6978.265"
"1520","6973.956"
"1521","6969.216"
"1522","6962.556"
"1523","6955.496"
"1524","6951.036"
"1525","6951.916"
"1526","6959.156"
"1527","6973.107"
"1528","6992.93"
"1529","7011.934"
"1530","7021.64"
"1531","7017.197"
"1532","7007.494"
"1533","7004.67"
"1534","7015.728"
"1535","7032.747"
"1536","7045.126"
"1537","7045.98"
"1538","7036.733"
"1539","7019.921"
"1540","6997.137"
"1541","6968.354"
"1542","6933.513"
"1543","6897.699"
"1544","6872.799"
"1545","6870.465"
"1546","6885.587"
"1547","6896.037"
"1548","6880.491"
"1549","6841.441"
"1550","6799.799"
"1551","6775.39"
"1552","6772.023"
"1553","6784.199"
"1554","6805.475"
"1555","6823.689"
"1556","6824.201"
"1557","6797.124"
"1558","6756.196"
"1559","6722.482"
"1560","6711.111"
"1561","6716.375"
"1562","6728.005"
"1563","6736.607"
"1564","6734.976"
"1565","6716.313"
"1566","6681.685"
"1567","6646.007"
"1568","6625.352"
"1569","6625.632"
"1570","6639.918"
"1571","6660.315"
"1572","6676.517"
"1573","6676.019"
"1574","6648.368"
"1575","6607.872"
"1576","6584.732"
"1577","6603.208"
"1578","6641.81"
"1579","6658.662"
"1580","6624.197"
"1581","6568.612"
"1582","6540.076"
"1583","6568.439"
"1584","6625.499"
"1585","6671.625"
"1586","6680.641"
"1587","6654.7"
"1588","6599.82"
"1589","6534.941"
"1590","6497.349"
"1591","6523.499"
"1592","6600.876"
"1593","6669.79"
"1594","6673.946"
"1595","6619.854"
"1596","6554.677"
"1597","6520.829"
"1598","6522.639"
"1599","6548.293"
"1600","6585.403"
"1601","6619.405"
"1602","6635.165"
"1603","6627.048"
"1604","6614.861"
"1605","6622.375"
"1606","6652.909"
"1607","6675.058"
"1608","6655.392"
"1609","6598.52"
"1610","6550.741"
"1611","6556.412"
"1612","6605.639"
"1613","6650.278"
"1614","6649.341"
"1615","6620.133"
"1616","6605.746"
"1617","6635.861"
"1618","6682.389"
"1619","6701.886"
"1620","6673.005"
"1621","6630.274"
"1622","6616.42"
"1623","6642.813"
"1624","6672.577"
"1625","6666.659"
"1626","6627.613"
"1627","6597.593"
"1628","6615.787"
"1629","6674.837"
"1630","6740.266"
"1631","6782.177"
"1632","6798.033"
"1633","6794.676"
"1634","6780.908"
"1635","6771.538"
"1636","6782.385"
"1637","6813.118"
"1638","6834.417"
"1639","6815.252"
"1640","6759.372"
"1641","6707.546"
"1642","6698.868"
"1643","6732.821"
"1644","6783.961"
"1645","6830.435"
"1646","6873.494"
"1647","6922.657"
"1648","6978.965"
"1649","7017.042"
"1650","7006.715"
"1651","6947.669"
"1652","6891.199"
"1653","6891.62"
"1654","6953.957"
"1655","7034.453"
"1656","7089.468"
"1657","7097.397"
"1658","7048.997"
"1659","6944.586"
"1660","6830.376"
"1661","6766.501"
"1662","6782.855"
"1663","6832.48"
"1664","6857.212"
"1665","6838.212"
"1666","6810.972"
"1667","6811.97"
"1668","6832.601"
"1669","6829.729"
"1670","6769.614"
"1671","6687.874"
"1672","6648.72"
"1673","6687.95"
"1674","6746.128"
"1675","6744.577"
"1676","6658.602"
"1677","6556.472"
"1678","6512.256"
"1679","6530.174"
"1680","6549.976"
"1681","6517.071"
"1682","6443.472"
"1683","6373.674"
"1684","6342.387"
"1685","6345.487"
"1686","6369.449"
"1687","6398.933"
"1688","6415.159"
"1689","6400.253"
"1690","6366.29"
"1691","6355.012"
"1692","6401.002"
"1693","6465.897"
"1694","6474.118"
"1695","6379.735"
"1696","6254.505"
"1697","6198.555"
"1698","6250.111"
"1699","6331.075"
"1700","6354.178"
"1701","6311.354"
"1702","6269.618"
"1703","6288.602"
"1704","6346.121"
"1705","6381.372"
"1706","6353.254"
"1707","6290.451"
"1708","6236.635"
"1709","6216.679"
"1710","6224.562"
"1711","6250.904"
"1712","6278.605"
"1713","6284.309"
"1714","6250.288"
"1715","6195.302"
"1716","6152.179"
"1717","6142.176"
"1718","6154.691"
"1719","6173.926"
"1720","6192.691"
"1721","6214.828"
"1722","6243.372"
"1723","6264.721"
"1724","6255.055"
"1725","6200.689"
"1726","6133.306"
"1727","6096.9"
"1728","6110.246"
"1729","6143.593"
"1730","6162.958"
"1731","6159.653"
"1732","6147.669"
"1733","6140.961"
"1734","6147.727"
"1735","6173.813"
"1736","6217.041"
"1737","6253.178"
"1738","6254.914"
"1739","6219.996"
"1740","6176.875"
"1741","6152.75"
"1742","6144.334"
"1743","6131.363"
"1744","6103.504"
"1745","6088.264"
"1746","6121.465"
"1747","6203.338"
"1748","6277.998"
"1749","6288.962"
"1750","6238.25"
"1751","6169.063"
"1752","6117.802"
"1753","6084.224"
"1754","6057.283"
"1755","6030.861"
"1756","6008.279"
"1757","5994.27"
"1758","5999.317"
"1759","6038.687"
"1760","6118.872"
"1761","6196.202"
"1762","6209.641"
"1763","6136.916"
"1764","6040.51"
"1765","5991.095"
"1766","5996.896"
"1767","6008.466"
"1768","5984.552"
"1769","5948.612"
"1770","5948.791"
"1771","6005.501"
"1772","6074.218"
"1773","6103.028"
"1774","6082.312"
"1775","6043.212"
"1776","6014.188"
"1777","5995.745"
"1778","5977.468"
"1779","5958.17"
"1780","5958.286"
"1781","5999.695"
"1782","6068.995"
"1783","6119.421"
"1784","6111.464"
"1785","6058.094"
"1786","5991.962"
"1787","5940.174"
"1788","5917.491"
"1789","5935.376"
"1790","5974.462"
"1791","5988.459"
"1792","5944.096"
"1793","5883.497"
"1794","5873.796"
"1795","5937.844"
"1796","6012.916"
"1797","6031.097"
"1798","5993.192"
"1799","5952.067"
"1800","5948.95"
"1801","5966.821"
"1802","5972.697"
"1803","5956.806"
"1804","5946.518"
"1805","5968.797"
"1806","6008.993"
"1807","6026.741"
"1808","5997.38"
"1809","5952.213"
"1810","5933.862"
"1811","5952.958"
"1812","5980.083"
"1813","5987.079"
"1814","5975.917"
"1815","5962.704"
"1816","5958.413"
"1817","5960.744"
"1818","5965.416"
"1819","5970.162"
"1820","5974.569"
"1821","5977.74"
"1822","5975.863"
"1823","5964.187"
"1824","5941.089"
"1825","5910.478"
"1826","5877.597"
"1827","5856.53"
"1828","5867.072"
"1829","5917.741"
"1830","5978.075"
"1831","6009.757"
"1832","5991.964"
"1833","5924.413"
"1834","5815.173"
"1835","5720.644"
"1836","5717.027"
"1837","5826.335"
"1838","5956.11"
"1839","6005.765"
"1840","5968.244"
"1841","5905.744"
"1842","5869.634"
"1843","5862.699"
"1844","5875.995"
"1845","5900.063"
"1846","5924.808"
"1847","5941.414"
"1848","5950.68"
"1849","5957.545"
"1850","5965.987"
"1851","5977.89"
"1852","5994.2"
"1853","6006.783"
"1854","6000.943"
"1855","5970.967"
"1856","5944.199"
"1857","5954.301"
"1858","5998.203"
"1859","6030.476"
"1860","6011.664"
"1861","5953.816"
"1862","5888.437"
"1863","5843.196"
"1864","5838.68"
"1865","5890.309"
"1866","5966.632"
"1867","6008.218"
"1868","5981.13"
"1869","5924.671"
"1870","5889.023"
"1871","5885.297"
"1872","5889.563"
"1873","5883.647"
"1874","5880.328"
"1875","5900.356"
"1876","5942.394"
"1877","5976.198"
"1878","5976.08"
"1879","5960.638"
"1880","5966.527"
"1881","6000.407"
"1882","6012.543"
"1883","5955.264"
"1884","5867.865"
"1885","5841.088"
"1886","5919.081"
"1887","6019.904"
"1888","6045.94"
"1889","5986.023"
"1890","5899.325"
"1891","5834.389"
"1892","5791.878"
"1893","5761.593"
"1894","5741.743"
"1895","5739.667"
"1896","5759.058"
"1897","5782.491"
"1898","5786.195"
"1899","5768.745"
"1900","5760.345"
"1901","5787.318"
"1902","5832.073"
"1903","5858.609"
"1904","5850.472"
"1905","5826.701"
"1906","5807.947"
"1907","5794.913"
"1908","5777.592"
"1909","5750.746"
"1910","5720.178"
"1911","5693.384"
"1912","5679.661"
"1913","5689.492"
"1914","5723.42"
"1915","5754.25"
"1916","5752.227"
"1917","5723.663"
"1918","5703.401"
"1919","5719.81"
"1920","5776.678"
"1921","5870.83"
"1922","5962.745"
"1923","5979.41"
"1924","5878.64"
"1925","5744.679"
"1926","5689.321"
"1927","5731.202"
"1928","5791.551"
"1929","5803.988"
"1930","5779.028"
"1931","5748.205"
"1932","5726.719"
"1933","5710.827"
"1934","5696.639"
"1935","5684.802"
"1936","5677.324"
"1937","5674.688"
"1938","5675.441"
"1939","5677.402"
"1940","5675.12"
"1941","5662.459"
"1942","5650.058"
"1943","5670.733"
"1944","5745.697"
"1945","5821.767"
"1946","5821.144"
"1947","5735.147"
"1948","5649.359"
"1949","5636.339"
"1950","5653.446"
"1951","5618.515"
"1952","5525.623"
"1953","5473.477"
"1954","5541.222"
"1955","5651.648"
"1956","5674.329"
"1957","5581.483"
"1958","5483.623"
"1959","5480.531"
"1960","5557.451"
"1961","5660.437"
"1962","5739.209"
"1963","5748.33"
"1964","5660.954"
"1965","5545.272"
"1966","5497.882"
"1967","5534.353"
"1968","5572.485"
"1969","5547.095"
"1970","5501.929"
"1971","5510.604"
"1972","5580.305"
"1973","5644.971"
"1974","5651.042"
"1975","5614.078"
"1976","5567.122"
"1977","5527.13"
"1978","5495.229"
"1979","5472.002"
"1980","5458.471"
"1981","5455.086"
"1982","5450.633"
"1983","5423.876"
"1984","5371.232"
"1985","5344.366"
"1986","5399.054"
"1987","5499.546"
"1988","5543.356"
"1989","5482.408"
"1990","5410.966"
"1991","5434.41"
"1992","5536.006"
"1993","5625.325"
"1994","5642.952"
"1995","5595.69"
"1996","5502.137"
"1997","5410.289"
"1998","5381.872"
"1999","5428.151"
"2000","5477.596"
"2001","5465.926"
"2002","5421.927"
"2003","5408.516"
"2004","5440.177"
"2005","5469.284"
"2006","5456.941"
"2007","5423.306"
"2008","5404.403"
"2009","5412.483"
"2010","5436.446"
"2011","5459.669"
"2012","5450.593"
"2013","5379.042"
"2014","5279.063"
"2015","5231.847"
"2016","5275.144"
"2017","5340.049"
"2018","5351.786"
"2019","5326.247"
"2020","5327.098"
"2021","5362.091"
"2022","5343.141"
"2023","5215.771"
"2024","5185.538"
"2025","5543.575"
"2026","6185.081"
"2027","6530.968"
"2028","6174.125"
"2029","5511.628"
"2030","5115.609"
"2031","5103.607"
"2032","5216.361"
"2033","5261.15"
"2034","5249.704"
"2035","5224.733"
"2036","5210.83"
"2037","5222.355"
"2038","5257.579"
"2039","5287.605"
"2040","5285.729"
"2041","5253.694"
"2042","5203.656"
"2043","5154.021"
"2044","5130.095"
"2045","5147.663"
"2046","5187.799"
"2047","5224.804"
"2048","5244.374"
"2049","5240.31"
"2050","5215.795"
"2051","5193.414"
"2052","5194.08"
"2053","5208.671"
"2054","5215.215"
"2055","5200.29"
"2056","5161.562"
"2057","5102.198"
"2058","5044.481"
"2059","5014.026"
"2060","5012.823"
"2061","5024.497"
"2062","5039.944"
"2063","5067.678"
"2064","5115.916"
"2065","5172.356"
"2066","5215.933"
"2067","5248.154"
"2068","5300.002"
"2069","5392.065"
"2070","5495.85"
"2071","5575.89"
"2072","5671.138"
"2073","5875.647"
"2074","6202.827"
"2075","6493.711"
"2076","6595.338"
"2077","6543.33"
"2078","6448.165"
"2079","6352.853"
"2080","6222.494"
"2081","6033.848"
"2082","5816.772"
"2083","5610.442"
"2084","5433.912"
"2085","5293.702"
"2086","5191.982"
"2087","5123.851"
"2088","5082.654"
"2089","5056.514"
"2090","5032.767"
"2091","5015.788"
"2092","5025.05"
"2093","5069.508"
"2094","5131.377"
"2095","5187.197"
"2096","5201.549"
"2097","5135.273"
"2098","5005.942"
"2099","4899.344"
"2100","4875.687"
"2101","4895.953"
"2102","4905.676"
"2103","4905.609"
"2104","4928.875"
"2105","4973.655"
"2106","4983.098"
"2107","4916.774"
"2108","4827.46"
"2109","4788.801"
"2110","4805.545"
"2111","4830.89"
"2112","4826.203"
"2113","4771.236"
"2114","4666.128"
"2115","4611.032"
"2116","4730.37"
"2117","4957.874"
"2118","5057.036"
"2119","4910.375"
"2120","4687.458"
"2121","4572.78"
"2122","4584.146"
"2123","4672.128"
"2124","4768.284"
"2125","4785.103"
"2126","4691.342"
"2127","4604.103"
"2128","4641.776"
"2129","4755.714"
"2130","4825.617"
"2131","4806.179"
"2132","4735.557"
"2133","4659.114"
"2134","4629.869"
"2135","4689.346"
"2136","4777.688"
"2137","4790.206"
"2138","4711.477"
"2139","4628.981"
"2140","4602.189"
"2141","4593.686"
"2142","4557.392"
"2143","4515.409"
"2144","4520.696"
"2145","4583.399"
"2146","4664.673"
"2147","4727.654"
"2148","4748.808"
"2149","4711.544"
"2150","4634.761"
"2151","4553.262"
"2152","4494.976"
"2153","4480.267"
"2154","4506.1"
"2155","4510.04"
"2156","4436.896"
"2157","4345.718"
"2158","4338.624"
"2159","4420.229"
"2160","4499.952"
"2161","4522.302"
"2162","4521.184"
"2163","4532.571"
"2164","4532.196"
"2165","4477.88"
"2166","4392.651"
"2167","4354.251"
"2168","4391.621"
"2169","4436.326"
"2170","4425.057"
"2171","4372.077"
"2172","4313.426"
"2173","4270.094"
"2174","4252.54"
"2175","4267.575"
"2176","4316.618"
"2177","4391.037"
"2178","4447.13"
"2179","4439.487"
"2180","4384.101"
"2181","4329.782"
"2182","4293.439"
"2183","4252.892"
"2184","4201.297"
"2185","4180.16"
"2186","4227.423"
"2187","4301.881"
"2188","4333.223"
"2189","4316.516"
"2190","4305.826"
"2191","4321.722"
"2192","4314.706"
"2193","4245.637"
"2194","4160.499"
"2195","4125.215"
"2196","4152.955"
"2197","4222.57"
"2198","4298.283"
"2199","4325.145"
"2200","4274.97"
"2201","4204.751"
"2202","4178.022"
"2203","4189.491"
"2204","4204.003"
"2205","4186.123"
"2206","4100.664"
"2207","3960.012"
"2208","3868.68"
"2209","3910.128"
"2210","4029.505"
"2211","4137.835"
"2212","4183.076"
"2213","4136.751"
"2214","4030.208"
"2215","3967.441"
"2216","4006.943"
"2217","4078.725"
"2218","4102.966"
"2219","4061.449"
"2220","3960.938"
"2221","3852.604"
"2222","3819.688"
"2223","3882.273"
"2224","3964.189"
"2225","3997.033"
"2226","3962.678"
"2227","3862.992"
"2228","3770.965"
"2229","3783.061"
"2230","3866.285"
"2231","3876.655"
"2232","3779.782"
"2233","3736.132"
"2234","3858.381"
"2235","4018.113"
"2236","4052.916"
"2237","3960.779"
"2238","3815.72"
"2239","3694.856"
"2240","3676.973"
"2241","3758.869"
"2242","3787.732"
"2243","3658.455"
"2244","3505.102"
"2245","3492.067"
"2246","3573.831"
"2247","3608.812"
"2248","3567.01"
"2249","3523.144"
"2250","3521.886"
"2251","3546.665"
"2252","3574.547"
"2253","3582.84"
"2254","3552.687"
"2255","3494.452"
"2256","3431.169"
"2257","3372.855"
"2258","3318.179"
"2259","3269.248"
"2260","3234.391"
"2261","3217.854"
"2262","3209.024"
"2263","3196.964"
"2264","3187.982"
"2265","3194.393"
"2266","3215.61"
"2267","3240.87"
"2268","3240.645"
"2269","3159.896"
"2270","2990.518"
"2271","2851.787"
"2272","2845.693"
"2273","2877.782"
"2274","2806.956"
"2275","2671.114"
"2276","2613.079"
"2277","2667.651"
"2278","2749.165"
"2279","2780.402"
"2280","2713.768"
"2281","2535.377"
"2282","2345.966"
"2283","2258.143"
"2284","2267.98"
"2285","2320.342"
"2286","2382.26"
"2287","2438.702"
"2288","2463.003"
"2289","2411.212"
"2290","2277.342"
"2291","2157.397"
"2292","2135.428"
"2293","2155.638"
"2294","2127.446"
"2295","2038.162"
"2296","1919.595"
"2297","1827.694"
"2298","1840.168"
"2299","1937.308"
"2300","1933.542"
