,"Scan 00880"
"400","9383.098"
"401","9350.019"
"402","9289.731"
"403","9232.188"
"404","9207.136"
"405","9239.767"
"406","9317.813"
"407","9410.093"
"408","9485.51"
"409","9515.303"
"410","9498.412"
"411","9453.009"
"412","9397.523"
"413","9349.659"
"414","9314.748"
"415","9286.589"
"416","9258.584"
"417","9224.377"
"418","9184.338"
"419","9147.114"
"420","9121.808"
"421","9117.321"
"422","9133.753"
"423","9157.062"
"424","9172.015"
"425","9163.55"
"426","9126.291"
"427","9075.006"
"428","9026.882"
"429","8998.981"
"430","9001.704"
"431","9027.69"
"432","9066.669"
"433","9108.446"
"434","9144.071"
"435","9168.744"
"436","9178.576"
"437","9169.717"
"438","9140.755"
"439","9100.96"
"440","9062.454"
"441","9037.278"
"442","9034.515"
"443","9047.414"
"444","9063.903"
"445","9071.98"
"446","9061.596"
"447","9035.372"
"448","9001.149"
"449","8966.728"
"450","8939.219"
"451","8920.384"
"452","8909.353"
"453","8905.245"
"454","8907.108"
"455","8913.217"
"456","8921.413"
"457","8929.546"
"458","8935.594"
"459","8938.909"
"460","8939.769"
"461","8938.451"
"462","8935.189"
"463","8929.447"
"464","8920.12"
"465","8906.093"
"466","8886.378"
"467","8861.969"
"468","8835.513"
"469","8809.692"
"470","8787.104"
"471","8769.129"
"472","8756.027"
"473","8748.013"
"474","8745.258"
"475","8746.995"
"476","8751.521"
"477","8757.106"
"478","8762.046"
"479","8765.087"
"480","8765.467"
"481","8762.444"
"482","8755.302"
"483","8743.956"
"484","8729.019"
"485","8711.138"
"486","8690.987"
"487","8670.236"
"488","8651.698"
"489","8638.238"
"490","8632.586"
"491","8633.435"
"492","8634.679"
"493","8629.969"
"494","8613.153"
"495","8583.7"
"496","8547.858"
"497","8512.243"
"498","8483.3"
"499","8463.087"
"500","8448.381"
"501","8435.664"
"502","8421.472"
"503","8403.569"
"504","8381.173"
"505","8353.586"
"506","8320.185"
"507","8282.329"
"508","8243.683"
"509","8208.007"
"510","8178.955"
"511","8157.569"
"512","8142.006"
"513","8130.28"
"514","8120.434"
"515","8111.005"
"516","8101.037"
"517","8089.606"
"518","8075.856"
"519","8060.438"
"520","8045.473"
"521","8033.127"
"522","8025.47"
"523","8022.924"
"524","8024.425"
"525","8028.852"
"526","8034.967"
"527","8039.333"
"528","8036.715"
"529","8021.858"
"530","7990.164"
"531","7945.988"
"532","7900.259"
"533","7863.992"
"534","7847.193"
"535","7848.444"
"536","7858.917"
"537","7869.706"
"538","7872.744"
"539","7867.807"
"540","7859.119"
"541","7850.925"
"542","7847.009"
"543","7847.483"
"544","7850.69"
"545","7854.961"
"546","7858.703"
"547","7860.739"
"548","7860.068"
"549","7855.691"
"550","7846.85"
"551","7834.06"
"552","7818.26"
"553","7800.389"
"554","7781.684"
"555","7764.738"
"556","7752.506"
"557","7747.924"
"558","7752.702"
"559","7764.31"
"560","7779.299"
"561","7794.246"
"562","7806.127"
"563","7813.017"
"564","7813.184"
"565","7804.915"
"566","7788.383"
"567","7767.81"
"568","7747.928"
"569","7733.406"
"570","7726.062"
"571","7722.927"
"572","7720.595"
"573","7715.715"
"574","7706.622"
"575","7693.841"
"576","7678.042"
"577","7659.917"
"578","7640.859"
"579","7622.95"
"580","7608.294"
"581","7598.879"
"582","7595.073"
"583","7596.016"
"584","7600.822"
"585","7608.568"
"586","7617.924"
"587","7627.331"
"588","7635.235"
"589","7640.417"
"590","7643.887"
"591","7647.568"
"592","7653.378"
"593","7662.418"
"594","7672.026"
"595","7678.448"
"596","7677.951"
"597","7668.838"
"598","7655.939"
"599","7645.376"
"600","7643.221"
"601","7652.042"
"602","7666.652"
"603","7680.848"
"604","7688.504"
"605","7686.702"
"606","7677.447"
"607","7663.148"
"608","7646.193"
"609","7628.56"
"610","7611.791"
"611","7597.402"
"612","7586.805"
"613","7580.043"
"614","7576.165"
"615","7574.195"
"616","7573.355"
"617","7574.475"
"618","7579.166"
"619","7589.047"
"620","7604.419"
"621","7618.866"
"622","7623.843"
"623","7610.843"
"624","7576.648"
"625","7534.932"
"626","7502.699"
"627","7496.808"
"628","7522.76"
"629","7563.212"
"630","7598.128"
"631","7607.981"
"632","7590.069"
"633","7563.362"
"634","7548.21"
"635","7563.606"
"636","7607.012"
"637","7658.144"
"638","7696.248"
"639","7703.011"
"640","7680.949"
"641","7643.33"
"642","7603.466"
"643","7572.876"
"644","7554.305"
"645","7547.772"
"646","7553.311"
"647","7569.417"
"648","7590.243"
"649","7609.17"
"650","7619.657"
"651","7618.73"
"652","7609.442"
"653","7595.423"
"654","7580.213"
"655","7565.693"
"656","7552.057"
"657","7539.418"
"658","7528.014"
"659","7519.338"
"660","7515.642"
"661","7519.183"
"662","7531.439"
"663","7549.629"
"664","7569.527"
"665","7586.913"
"666","7598.557"
"667","7604.12"
"668","7603.805"
"669","7597.83"
"670","7588.065"
"671","7579.078"
"672","7575.681"
"673","7582.336"
"674","7596.755"
"675","7610.354"
"676","7614.333"
"677","7601.494"
"678","7578.556"
"679","7559.465"
"680","7558.183"
"681","7584.744"
"682","7632.101"
"683","7688.552"
"684","7742.449"
"685","7784.745"
"686","7812.198"
"687","7822.36"
"688","7812.962"
"689","7787.344"
"690","7755.547"
"691","7727.984"
"692","7714.058"
"693","7711.765"
"694","7711.782"
"695","7704.693"
"696","7683.947"
"697","7657.962"
"698","7640.029"
"699","7643.397"
"700","7672.649"
"701","7710.492"
"702","7736.245"
"703","7729.764"
"704","7689.089"
"705","7635.558"
"706","7591.985"
"707","7579.167"
"708","7594.248"
"709","7618.831"
"710","7634.275"
"711","7626.318"
"712","7603.003"
"713","7579.492"
"714","7570.891"
"715","7585.384"
"716","7614.834"
"717","7648.76"
"718","7676.917"
"719","7695.577"
"720","7708.497"
"721","7719.839"
"722","7733.166"
"723","7746.203"
"724","7753.403"
"725","7749.182"
"726","7730.314"
"727","7703.198"
"728","7676.692"
"729","7659.586"
"730","7656.154"
"731","7662.362"
"732","7673.304"
"733","7684.188"
"734","7692.302"
"735","7696.722"
"736","7696.592"
"737","7691.654"
"738","7685.547"
"739","7683.464"
"740","7690.584"
"741","7709.024"
"742","7732.608"
"743","7753.77"
"744","7765.162"
"745","7765.795"
"746","7762.393"
"747","7762.129"
"748","7771.419"
"749","7789.665"
"750","7812.414"
"751","7835.182"
"752","7853.838"
"753","7865.514"
"754","7867.636"
"755","7857.728"
"756","7838.601"
"757","7821.182"
"758","7817.072"
"759","7836.616"
"760","7874.675"
"761","7915.62"
"762","7943.65"
"763","7947.216"
"764","7933.69"
"765","7915.706"
"766","7905.821"
"767","7910.317"
"768","7924.379"
"769","7942.047"
"770","7957.689"
"771","7970.374"
"772","7982.729"
"773","7997.469"
"774","8016.604"
"775","8038.721"
"776","8061.357"
"777","8082.056"
"778","8098.374"
"779","8107.895"
"780","8108.209"
"781","8097.366"
"782","8080.355"
"783","8067.522"
"784","8069.34"
"785","8092.813"
"786","8128.185"
"787","8160.659"
"788","8175.556"
"789","8167.695"
"790","8148.922"
"791","8132.842"
"792","8132.03"
"793","8145.29"
"794","8161.525"
"795","8169.43"
"796","8161.59"
"797","8147.323"
"798","8140.434"
"799","8154.527"
"800","8191.589"
"801","8235.421"
"802","8268.258"
"803","8274.118"
"804","8256.236"
"805","8229.579"
"806","8209.261"
"807","8206.087"
"808","8215.96"
"809","8231.571"
"810","8245.745"
"811","8255.98"
"812","8265.629"
"813","8278.408"
"814","8297.139"
"815","8317.648"
"816","8332.466"
"817","8334.122"
"818","8320.12"
"819","8300.567"
"820","8287.527"
"821","8292.431"
"822","8314.185"
"823","8340.145"
"824","8357.251"
"825","8355.3"
"826","8339.031"
"827","8318.055"
"828","8301.922"
"829","8295.992"
"830","8298.411"
"831","8306.614"
"832","8318.141"
"833","8331.695"
"834","8346.693"
"835","8362.567"
"836","8378.825"
"837","8395.238"
"838","8411.627"
"839","8427.737"
"840","8441.348"
"841","8448.079"
"842","8443.447"
"843","8424.649"
"844","8399.007"
"845","8377.616"
"846","8371.528"
"847","8386.115"
"848","8416.214"
"849","8455.511"
"850","8497.665"
"851","8535.901"
"852","8563.181"
"853","8572.462"
"854","8560.521"
"855","8536.178"
"856","8510.624"
"857","8494.796"
"858","8493.585"
"859","8505.696"
"860","8529.56"
"861","8562.754"
"862","8598.331"
"863","8627.863"
"864","8643.018"
"865","8641.627"
"866","8631.289"
"867","8620.46"
"868","8617.085"
"869","8624.668"
"870","8644.415"
"871","8677.501"
"872","8722.209"
"873","8769.883"
"874","8810.848"
"875","8835.88"
"876","8842.445"
"877","8833.113"
"878","8810.582"
"879","8779.095"
"880","8748.451"
"881","8729.695"
"882","8733.414"
"883","8758.143"
"884","8789.446"
"885","8812.244"
"886","8814.952"
"887","8804.224"
"888","8792.652"
"889","8792.685"
"890","8808.682"
"891","8833.167"
"892","8857.711"
"893","8875.22"
"894","8888.436"
"895","8904.514"
"896","8930.586"
"897","8968.323"
"898","9008.768"
"899","9041.736"
"900","9058.011"
"901","9058.237"
"902","9048.864"
"903","9036.4"
"904","9026.547"
"905","9022.952"
"906","9028.948"
"907","9047.502"
"908","9076.462"
"909","9109.909"
"910","9141.831"
"911","9167.393"
"912","9185.455"
"913","9195.608"
"914","9197.489"
"915","9191.603"
"916","9179.221"
"917","9161.646"
"918","9140.208"
"919","9116.357"
"920","9091.571"
"921","9067.481"
"922","9049.607"
"923","9047.497"
"924","9070.883"
"925","9125.199"
"926","9196.509"
"927","9265.435"
"928","9312.923"
"929","9330.235"
"930","9320.737"
"931","9288.471"
"932","9238.948"
"933","9185.082"
"934","9142.133"
"935","9125.053"
"936","9136.748"
"937","9164.706"
"938","9195.405"
"939","9216.98"
"940","9226.794"
"941","9225.367"
"942","9213.318"
"943","9195.228"
"944","9181.031"
"945","9181.06"
"946","9202.755"
"947","9236.828"
"948","9267.979"
"949","9281.127"
"950","9271.8"
"951","9250.285"
"952","9227.961"
"953","9214.913"
"954","9213.627"
"955","9223.835"
"956","9245.161"
"957","9272.613"
"958","9294.833"
"959","9299.984"
"960","9279.751"
"961","9245.834"
"962","9217.027"
"963","9211.768"
"964","9233.271"
"965","9264.557"
"966","9287.233"
"967","9286.922"
"968","9270.71"
"969","9252.839"
"970","9247.259"
"971","9257.323"
"972","9273.258"
"973","9284.471"
"974","9282.375"
"975","9268.115"
"976","9245.793"
"977","9219.564"
"978","9195.109"
"979","9179.82"
"980","9181.185"
"981","9203.866"
"982","9240.508"
"983","9280.564"
"984","9313.688"
"985","9334.094"
"986","9340.503"
"987","9331.812"
"988","9309.243"
"989","9282.353"
"990","9262.578"
"991","9260.771"
"992","9277.782"
"993","9306.063"
"994","9337.802"
"995","9366.829"
"996","9391.837"
"997","9412.407"
"998","9428.154"
"999","9439.089"
"1000","9445.488"
"1001","9447.644"
"1002","9446.975"
"1003","9447.566"
"1004","9453.893"
"1005","9470.422"
"1006","9499.908"
"1007","9533.521"
"1008","9557.641"
"1009","9558.858"
"1010","9534.763"
"1011","9498.717"
"1012","9465.318"
"1013","9446.717"
"1014","9441.726"
"1015","9444.651"
"1016","9449.903"
"1017","9455.265"
"1018","9462.481"
"1019","9473.531"
"1020","9489.875"
"1021","9510.799"
"1022","9535.01"
"1023","9561.101"
"1024","9585.226"
"1025","9601.299"
"1026","9603.14"
"1027","9587.483"
"1028","9560.246"
"1029","9529.147"
"1030","9501.778"
"1031","9483.955"
"1032","9480.251"
"1033","9495.194"
"1034","9528.616"
"1035","9569.665"
"1036","9606.012"
"1037","9627.15"
"1038","9638.241"
"1039","9652.376"
"1040","9682.545"
"1041","9729.841"
"1042","9776.367"
"1043","9802.509"
"1044","9793.522"
"1045","9761.764"
"1046","9728.949"
"1047","9716.223"
"1048","9728.542"
"1049","9753.11"
"1050","9776.223"
"1051","9788.369"
"1052","9794.917"
"1053","9804.499"
"1054","9824.84"
"1055","9850.928"
"1056","9868.521"
"1057","9863.214"
"1058","9831.068"
"1059","9791.046"
"1060","9765.157"
"1061","9772.145"
"1062","9806.176"
"1063","9850.229"
"1064","9887.442"
"1065","9910.545"
"1066","9925.153"
"1067","9937.8"
"1068","9953.288"
"1069","9969.115"
"1070","9980.862"
"1071","9984.347"
"1072","9979.456"
"1073","9969.355"
"1074","9957.313"
"1075","9946.914"
"1076","9942.483"
"1077","9948.457"
"1078","9967.841"
"1079","9992.721"
"1080","10010.16"
"1081","10007.52"
"1082","9985.745"
"1083","9963.393"
"1084","9960.196"
"1085","9988.594"
"1086","10033.02"
"1087","10071.22"
"1088","10082.53"
"1089","10068.25"
"1090","10045.17"
"1091","10030.33"
"1092","10032.26"
"1093","10042.99"
"1094","10052.67"
"1095","10053.15"
"1096","10046.1"
"1097","10036.74"
"1098","10030.07"
"1099","10025.93"
"1100","10019.14"
"1101","10004.27"
"1102","9980.157"
"1103","9956.972"
"1104","9946.747"
"1105","9959.144"
"1106","9984.602"
"1107","10004.27"
"1108","9999.676"
"1109","9969.22"
"1110","9932.483"
"1111","9910.418"
"1112","9917.167"
"1113","9943.737"
"1114","9976.24"
"1115","10001.5"
"1116","10013.98"
"1117","10012.56"
"1118","9996.353"
"1119","9971.656"
"1120","9955.396"
"1121","9965.361"
"1122","10011.22"
"1123","10070.58"
"1124","10113.13"
"1125","10111.5"
"1126","10073.27"
"1127","10028.87"
"1128","10008.83"
"1129","10023.4"
"1130","10050.54"
"1131","10065.28"
"1132","10050.09"
"1133","10018.26"
"1134","9991.129"
"1135","9988.406"
"1136","10009.89"
"1137","10042.15"
"1138","10071.58"
"1139","10090.72"
"1140","10101.73"
"1141","10107.66"
"1142","10110.4"
"1143","10107.37"
"1144","10094.84"
"1145","10069.82"
"1146","10037.07"
"1147","10006.22"
"1148","9986.909"
"1149","9985.233"
"1150","10002.23"
"1151","10038.54"
"1152","10091.64"
"1153","10148.01"
"1154","10191.75"
"1155","10208.85"
"1156","10202.42"
"1157","10184.68"
"1158","10167.83"
"1159","10160.07"
"1160","10164.82"
"1161","10185.21"
"1162","10219.85"
"1163","10255.06"
"1164","10275.01"
"1165","10267.54"
"1166","10245.4"
"1167","10231.66"
"1168","10248.13"
"1169","10290.72"
"1170","10331.35"
"1171","10341.16"
"1172","10310.38"
"1173","10267.6"
"1174","10246.01"
"1175","10269.04"
"1176","10314.36"
"1177","10346.28"
"1178","10332.46"
"1179","10280.48"
"1180","10223.95"
"1181","10196.45"
"1182","10208.42"
"1183","10238.62"
"1184","10263.47"
"1185","10267.94"
"1186","10262.26"
"1187","10261.32"
"1188","10277.43"
"1189","10305.42"
"1190","10332.78"
"1191","10347.55"
"1192","10347.98"
"1193","10341.24"
"1194","10334.77"
"1195","10335.21"
"1196","10347.83"
"1197","10377.76"
"1198","10425.43"
"1199","10473.54"
"1200","10500.67"
"1201","10489.01"
"1202","10451.59"
"1203","10416.95"
"1204","10412.73"
"1205","10442.68"
"1206","10486.77"
"1207","10523.97"
"1208","10541.18"
"1209","10540.77"
"1210","10526.96"
"1211","10503.98"
"1212","10476.37"
"1213","10448.71"
"1214","10425.55"
"1215","10411.18"
"1216","10409.7"
"1217","10424.83"
"1218","10451.31"
"1219","10474.96"
"1220","10481.34"
"1221","10468.28"
"1222","10456.59"
"1223","10469.58"
"1224","10520"
"1225","10581.53"
"1226","10618.85"
"1227","10602.99"
"1228","10553.35"
"1229","10511.39"
"1230","10516.35"
"1231","10566.41"
"1232","10624.91"
"1233","10654.48"
"1234","10642.52"
"1235","10614.42"
"1236","10598.85"
"1237","10614.28"
"1238","10650.03"
"1239","10690.25"
"1240","10720.41"
"1241","10733.1"
"1242","10723.43"
"1243","10688.24"
"1244","10644.13"
"1245","10620.12"
"1246","10644.26"
"1247","10713.02"
"1248","10788.11"
"1249","10829.64"
"1250","10820.04"
"1251","10784.53"
"1252","10753.16"
"1253","10746.83"
"1254","10754.55"
"1255","10758.45"
"1256","10744.15"
"1257","10719.59"
"1258","10701.54"
"1259","10705.28"
"1260","10727.45"
"1261","10751.98"
"1262","10762.94"
"1263","10756.65"
"1264","10743.35"
"1265","10733.99"
"1266","10734.87"
"1267","10743.49"
"1268","10756.32"
"1269","10769.94"
"1270","10781.14"
"1271","10786.79"
"1272","10785.05"
"1273","10781.66"
"1274","10785.01"
"1275","10802.26"
"1276","10827.73"
"1277","10848.18"
"1278","10850.88"
"1279","10835.89"
"1280","10815.31"
"1281","10801.57"
"1282","10799.28"
"1283","10801.3"
"1284","10799.53"
"1285","10789.01"
"1286","10772.36"
"1287","10753.27"
"1288","10735.97"
"1289","10726.64"
"1290","10731.98"
"1291","10756.17"
"1292","10786.97"
"1293","10805.61"
"1294","10795.95"
"1295","10771.79"
"1296","10765.67"
"1297","10808.52"
"1298","10890.91"
"1299","10965.04"
"1300","10982.27"
"1301","10931.08"
"1302","10852.9"
"1303","10793.17"
"1304","10777.45"
"1305","10788.44"
"1306","10803.2"
"1307","10805.88"
"1308","10803.94"
"1309","10809.7"
"1310","10832.37"
"1311","10865.3"
"1312","10896.75"
"1313","10916.33"
"1314","10924.5"
"1315","10926.92"
"1316","10928.75"
"1317","10928.22"
"1318","10918.66"
"1319","10893.87"
"1320","10859.99"
"1321","10835.5"
"1322","10839.02"
"1323","10872.37"
"1324","10913.71"
"1325","10939.48"
"1326","10939.1"
"1327","10927.87"
"1328","10924.12"
"1329","10940.31"
"1330","10972.16"
"1331","11012.43"
"1332","11053.15"
"1333","11083.41"
"1334","11091.58"
"1335","11070.31"
"1336","11037.7"
"1337","11021.03"
"1338","11043.72"
"1339","11096.24"
"1340","11152.51"
"1341","11188.06"
"1342","11200.32"
"1343","11201.61"
"1344","11203.89"
"1345","11206.87"
"1346","11199.15"
"1347","11169.28"
"1348","11117.53"
"1349","11058.16"
"1350","11006.13"
"1351","10970.64"
"1352","10951.84"
"1353","10949.06"
"1354","10959.41"
"1355","10975.42"
"1356","10989.1"
"1357","10992.56"
"1358","10978.3"
"1359","10938.88"
"1360","10874.63"
"1361","10813.21"
"1362","10788.28"
"1363","10822.83"
"1364","10890.51"
"1365","10950.77"
"1366","10969.98"
"1367","10955.92"
"1368","10931.74"
"1369","10917.89"
"1370","10913.81"
"1371","10909.09"
"1372","10894.77"
"1373","10876.92"
"1374","10870.38"
"1375","10888.38"
"1376","10921.02"
"1377","10941.92"
"1378","10925.98"
"1379","10878.07"
"1380","10828.96"
"1381","10809.12"
"1382","10818.98"
"1383","10827.88"
"1384","10804.62"
"1385","10750.31"
"1386","10705.96"
"1387","10714.38"
"1388","10782.34"
"1389","10863.96"
"1390","10909.55"
"1391","10897.58"
"1392","10854.91"
"1393","10813.06"
"1394","10792.69"
"1395","10792.75"
"1396","10809.53"
"1397","10836.39"
"1398","10859.83"
"1399","10865.37"
"1400","10846.28"
"1401","10816.67"
"1402","10794.12"
"1403","10789.79"
"1404","10795.02"
"1405","10797.38"
"1406","10788.7"
"1407","10775.97"
"1408","10769.49"
"1409","10776.4"
"1410","10791.26"
"1411","10805.47"
"1412","10812.21"
"1413","10812.55"
"1414","10809.75"
"1415","10806.46"
"1416","10802.34"
"1417","10796.16"
"1418","10786.91"
"1419","10775.05"
"1420","10761.53"
"1421","10747.41"
"1422","10734.47"
"1423","10724.75"
"1424","10721.04"
"1425","10730.9"
"1426","10763.81"
"1427","10824.9"
"1428","10889.64"
"1429","10921.03"
"1430","10889.87"
"1431","10823.91"
"1432","10776.14"
"1433","10791.51"
"1434","10852.73"
"1435","10913.71"
"1436","10933.73"
"1437","10916.15"
"1438","10885.39"
"1439","10863.95"
"1440","10857.33"
"1441","10862.7"
"1442","10876.6"
"1443","10890.43"
"1444","10893.06"
"1445","10875.52"
"1446","10847.22"
"1447","10826.8"
"1448","10830.25"
"1449","10850.36"
"1450","10868.23"
"1451","10867.38"
"1452","10852.07"
"1453","10836.86"
"1454","10834.46"
"1455","10841.22"
"1456","10845.57"
"1457","10837.71"
"1458","10822.73"
"1459","10812.79"
"1460","10817.86"
"1461","10831.14"
"1462","10838.05"
"1463","10825.9"
"1464","10795.59"
"1465","10754.09"
"1466","10708.57"
"1467","10667.83"
"1468","10641.29"
"1469","10635.46"
"1470","10638.11"
"1471","10629.64"
"1472","10595.19"
"1473","10547.77"
"1474","10510.59"
"1475","10502.12"
"1476","10515.3"
"1477","10534.51"
"1478","10545.71"
"1479","10542.72"
"1480","10521.79"
"1481","10482.25"
"1482","10437.1"
"1483","10403.11"
"1484","10393.03"
"1485","10403.55"
"1486","10427.45"
"1487","10455.36"
"1488","10470.65"
"1489","10455.04"
"1490","10401.4"
"1491","10336.81"
"1492","10294.89"
"1493","10295.8"
"1494","10323.49"
"1495","10355.9"
"1496","10376.07"
"1497","10378.94"
"1498","10361.18"
"1499","10327.38"
"1500","10298.1"
"1501","10295.59"
"1502","10324.92"
"1503","10361.51"
"1504","10378.19"
"1505","10366.63"
"1506","10346.34"
"1507","10338.59"
"1508","10346.77"
"1509","10351.91"
"1510","10334.49"
"1511","10297.73"
"1512","10268.79"
"1513","10274.33"
"1514","10309.25"
"1515","10340.43"
"1516","10336.13"
"1517","10297.86"
"1518","10251.58"
"1519","10221.77"
"1520","10210.99"
"1521","10208.64"
"1522","10205.12"
"1523","10200.36"
"1524","10199"
"1525","10204.24"
"1526","10210.14"
"1527","10207.18"
"1528","10189.05"
"1529","10165.29"
"1530","10150.26"
"1531","10155.69"
"1532","10183.19"
"1533","10232"
"1534","10294.87"
"1535","10345.79"
"1536","10355.42"
"1537","10313.86"
"1538","10254.57"
"1539","10216.62"
"1540","10216.29"
"1541","10230.62"
"1542","10233.22"
"1543","10214.8"
"1544","10188.68"
"1545","10169.25"
"1546","10158.38"
"1547","10145.29"
"1548","10119.71"
"1549","10087.81"
"1550","10068.5"
"1551","10078.34"
"1552","10106.58"
"1553","10126.62"
"1554","10115.9"
"1555","10082.08"
"1556","10045.77"
"1557","10023.48"
"1558","10010.95"
"1559","9997.525"
"1560","9974.655"
"1561","9941.292"
"1562","9898.039"
"1563","9850.835"
"1564","9818.815"
"1565","9822.931"
"1566","9866.035"
"1567","9919.061"
"1568","9950.18"
"1569","9947.044"
"1570","9921.946"
"1571","9888.64"
"1572","9858.266"
"1573","9839.609"
"1574","9840.257"
"1575","9854.891"
"1576","9869.903"
"1577","9873.317"
"1578","9866.195"
"1579","9855.41"
"1580","9846.558"
"1581","9838.899"
"1582","9829.808"
"1583","9819.826"
"1584","9819.56"
"1585","9841.516"
"1586","9883.88"
"1587","9914.666"
"1588","9898.773"
"1589","9836.093"
"1590","9776.243"
"1591","9770.29"
"1592","9817.83"
"1593","9868.865"
"1594","9875.604"
"1595","9840.224"
"1596","9797.24"
"1597","9777.552"
"1598","9782.969"
"1599","9802.955"
"1600","9827.934"
"1601","9852.637"
"1602","9872.948"
"1603","9884.057"
"1604","9879.321"
"1605","9851.934"
"1606","9806.563"
"1607","9767.367"
"1608","9759.585"
"1609","9785.564"
"1610","9822.553"
"1611","9847.547"
"1612","9851.494"
"1613","9835.163"
"1614","9801.836"
"1615","9771.524"
"1616","9771.658"
"1617","9818.27"
"1618","9878.63"
"1619","9907.049"
"1620","9881.681"
"1621","9840.938"
"1622","9832.081"
"1623","9868.739"
"1624","9912.774"
"1625","9923.445"
"1626","9898.988"
"1627","9874.722"
"1628","9883.262"
"1629","9914.386"
"1630","9932.909"
"1631","9912.057"
"1632","9873.335"
"1633","9854.837"
"1634","9876.255"
"1635","9900.005"
"1636","9877.756"
"1637","9797.803"
"1638","9714.164"
"1639","9685.873"
"1640","9722.582"
"1641","9781.399"
"1642","9820.081"
"1643","9833.089"
"1644","9837.955"
"1645","9849.373"
"1646","9863.45"
"1647","9869.632"
"1648","9860.911"
"1649","9841.368"
"1650","9817.225"
"1651","9793.826"
"1652","9774.996"
"1653","9764.415"
"1654","9765.848"
"1655","9783.141"
"1656","9818.303"
"1657","9855.532"
"1658","9868.99"
"1659","9841.235"
"1660","9796.32"
"1661","9770.898"
"1662","9783.646"
"1663","9807.554"
"1664","9809.059"
"1665","9782.434"
"1666","9760.395"
"1667","9775.75"
"1668","9820.238"
"1669","9854.13"
"1670","9844.647"
"1671","9811.447"
"1672","9795.789"
"1673","9821.303"
"1674","9852.479"
"1675","9841.837"
"1676","9773.925"
"1677","9688.437"
"1678","9628.929"
"1679","9605.925"
"1680","9599.461"
"1681","9591.498"
"1682","9589.271"
"1683","9612.342"
"1684","9667.954"
"1685","9715.393"
"1686","9702.639"
"1687","9614.96"
"1688","9508.845"
"1689","9446.749"
"1690","9442.685"
"1691","9462.673"
"1692","9474.5"
"1693","9479.208"
"1694","9494.777"
"1695","9529.195"
"1696","9550.686"
"1697","9517.99"
"1698","9424.088"
"1699","9326.251"
"1700","9286.24"
"1701","9309.349"
"1702","9347.35"
"1703","9355.467"
"1704","9333.178"
"1705","9300.827"
"1706","9275.489"
"1707","9262.316"
"1708","9263.805"
"1709","9278.17"
"1710","9296.609"
"1711","9309.777"
"1712","9310.342"
"1713","9292.598"
"1714","9253.43"
"1715","9205.611"
"1716","9168.048"
"1717","9151.662"
"1718","9145.419"
"1719","9134.961"
"1720","9121.645"
"1721","9126.954"
"1722","9170.148"
"1723","9231.604"
"1724","9267.816"
"1725","9249.197"
"1726","9209.103"
"1727","9198.003"
"1728","9235.396"
"1729","9281.238"
"1730","9290.472"
"1731","9252.897"
"1732","9189.552"
"1733","9122.912"
"1734","9077.338"
"1735","9077.989"
"1736","9133.155"
"1737","9204.67"
"1738","9247.232"
"1739","9245.326"
"1740","9219.919"
"1741","9192.81"
"1742","9172.043"
"1743","9158.011"
"1744","9150.835"
"1745","9149.911"
"1746","9154.459"
"1747","9163.057"
"1748","9173.277"
"1749","9182.44"
"1750","9185.835"
"1751","9177.313"
"1752","9153.154"
"1753","9121.362"
"1754","9093.394"
"1755","9077.492"
"1756","9075.76"
"1757","9089.445"
"1758","9117.271"
"1759","9155.854"
"1760","9200.621"
"1761","9240.78"
"1762","9263.37"
"1763","9259.368"
"1764","9228.383"
"1765","9171.896"
"1766","9106.001"
"1767","9060.286"
"1768","9059.082"
"1769","9090.684"
"1770","9129.611"
"1771","9156.768"
"1772","9168.137"
"1773","9162.193"
"1774","9145.182"
"1775","9130.82"
"1776","9130.352"
"1777","9137.118"
"1778","9137.471"
"1779","9122.686"
"1780","9095.646"
"1781","9061.238"
"1782","9031.521"
"1783","9025.32"
"1784","9055.435"
"1785","9096.293"
"1786","9107.992"
"1787","9073.609"
"1788","9026.729"
"1789","9005.684"
"1790","9011.954"
"1791","9014.834"
"1792","8991.61"
"1793","8968.664"
"1794","8988.621"
"1795","9061.388"
"1796","9133.678"
"1797","9149.102"
"1798","9112.97"
"1799","9077.338"
"1800","9081.158"
"1801","9099.197"
"1802","9088.77"
"1803","9043.132"
"1804","9013.029"
"1805","9047.163"
"1806","9114.061"
"1807","9132.738"
"1808","9054.245"
"1809","8943.725"
"1810","8889.489"
"1811","8917.936"
"1812","8977.921"
"1813","9018.411"
"1814","9028.319"
"1815","9015.292"
"1816","8987.126"
"1817","8951.645"
"1818","8916.923"
"1819","8895.234"
"1820","8902.761"
"1821","8948.791"
"1822","9005.159"
"1823","9031.545"
"1824","9011.486"
"1825","8970.657"
"1826","8937.927"
"1827","8928.657"
"1828","8949.539"
"1829","8997.172"
"1830","9034.113"
"1831","9017.008"
"1832","8947.817"
"1833","8881.681"
"1834","8867.769"
"1835","8893.617"
"1836","8921.332"
"1837","8928.655"
"1838","8926.568"
"1839","8929.65"
"1840","8943.411"
"1841","8966.646"
"1842","8994.869"
"1843","9011.578"
"1844","8998.031"
"1845","8961.369"
"1846","8941.379"
"1847","8971.734"
"1848","9027.374"
"1849","9057.977"
"1850","9041.353"
"1851","9015.408"
"1852","9022.038"
"1853","9051.67"
"1854","9057.554"
"1855","9010.271"
"1856","8946.233"
"1857","8915.5"
"1858","8928.063"
"1859","8947.721"
"1860","8942.729"
"1861","8924.774"
"1862","8921.806"
"1863","8945.94"
"1864","8980.617"
"1865","9007.163"
"1866","9016.891"
"1867","9007.053"
"1868","8979.054"
"1869","8945.793"
"1870","8921.714"
"1871","8911.705"
"1872","8912.073"
"1873","8919.205"
"1874","8931.168"
"1875","8946.497"
"1876","8964.153"
"1877","8983.654"
"1878","9002.23"
"1879","9001.509"
"1880","8956.902"
"1881","8873.285"
"1882","8810.802"
"1883","8828.854"
"1884","8914.335"
"1885","9011.229"
"1886","9072.052"
"1887","9073.836"
"1888","9000.681"
"1889","8887.064"
"1890","8808.494"
"1891","8817.316"
"1892","8874.275"
"1893","8919.909"
"1894","8929.853"
"1895","8917.873"
"1896","8898.725"
"1897","8882.254"
"1898","8876.529"
"1899","8879.003"
"1900","8872.117"
"1901","8842.053"
"1902","8809.063"
"1903","8807.575"
"1904","8846.49"
"1905","8888.431"
"1906","8895.398"
"1907","8869.321"
"1908","8833.574"
"1909","8807.245"
"1910","8799.129"
"1911","8815.459"
"1912","8848.384"
"1913","8880.712"
"1914","8896.387"
"1915","8883.092"
"1916","8831.236"
"1917","8764.13"
"1918","8731.139"
"1919","8762.431"
"1920","8821.262"
"1921","8858.382"
"1922","8856.307"
"1923","8826.809"
"1924","8784.47"
"1925","8750.47"
"1926","8746.703"
"1927","8771.021"
"1928","8796.121"
"1929","8799.647"
"1930","8786.994"
"1931","8771.088"
"1932","8757.245"
"1933","8741.953"
"1934","8722.583"
"1935","8703.373"
"1936","8690.6"
"1937","8686.803"
"1938","8689.832"
"1939","8697.189"
"1940","8706.127"
"1941","8713.923"
"1942","8722.582"
"1943","8740.372"
"1944","8771.361"
"1945","8793.492"
"1946","8776.308"
"1947","8724.528"
"1948","8690.821"
"1949","8717.185"
"1950","8763.59"
"1951","8761.729"
"1952","8692.402"
"1953","8603.863"
"1954","8541.47"
"1955","8505.411"
"1956","8480.242"
"1957","8466.392"
"1958","8485.674"
"1959","8551.55"
"1960","8622.938"
"1961","8641.132"
"1962","8592.424"
"1963","8521.174"
"1964","8470.202"
"1965","8453.797"
"1966","8476.411"
"1967","8520"
"1968","8539.394"
"1969","8500.227"
"1970","8427.364"
"1971","8362.548"
"1972","8328.462"
"1973","8326.771"
"1974","8352.661"
"1975","8378.679"
"1976","8372.837"
"1977","8336.852"
"1978","8305.612"
"1979","8305.062"
"1980","8323.176"
"1981","8339.552"
"1982","8338.942"
"1983","8310.519"
"1984","8255.649"
"1985","8212.725"
"1986","8223.438"
"1987","8275.439"
"1988","8316.954"
"1989","8312.445"
"1990","8270.185"
"1991","8205.865"
"1992","8141.024"
"1993","8100.711"
"1994","8099.668"
"1995","8131.242"
"1996","8182.609"
"1997","8212.502"
"1998","8166.52"
"1999","8048.271"
"2000","7956.494"
"2001","7975.645"
"2002","8046.549"
"2003","8057.721"
"2004","7988.463"
"2005","7934.465"
"2006","7972.359"
"2007","8055.703"
"2008","8105.139"
"2009","8094.66"
"2010","8050.652"
"2011","7997.309"
"2012","7943.963"
"2013","7897.349"
"2014","7870.283"
"2015","7880.045"
"2016","7929.271"
"2017","7985.362"
"2018","8012.021"
"2019","7987.448"
"2020","7898.09"
"2021","7774.042"
"2022","7719.326"
"2023","7813.068"
"2024","7938.983"
"2025","7912.742"
"2026","7722.893"
"2027","7565.21"
"2028","7588.815"
"2029","7705.724"
"2030","7775.294"
"2031","7771.509"
"2032","7763.336"
"2033","7792.077"
"2034","7819.199"
"2035","7799.72"
"2036","7751.061"
"2037","7725.01"
"2038","7738.902"
"2039","7750.793"
"2040","7723.659"
"2041","7682.769"
"2042","7673.939"
"2043","7692.979"
"2044","7680.273"
"2045","7602.983"
"2046","7532.093"
"2047","7553.848"
"2048","7653.492"
"2049","7744.906"
"2050","7767.994"
"2051","7721.082"
"2052","7615.794"
"2053","7505.693"
"2054","7460.994"
"2055","7485.997"
"2056","7500.071"
"2057","7444.433"
"2058","7371.277"
"2059","7356"
"2060","7400.316"
"2061","7448.652"
"2062","7467.754"
"2063","7478.567"
"2064","7504.71"
"2065","7533.575"
"2066","7536.621"
"2067","7506.202"
"2068","7461.996"
"2069","7421.123"
"2070","7383.125"
"2071","7344.044"
"2072","7311.802"
"2073","7303.13"
"2074","7325.678"
"2075","7367.499"
"2076","7413.173"
"2077","7441.027"
"2078","7428.002"
"2079","7387.803"
"2080","7376.431"
"2081","7426.113"
"2082","7482.099"
"2083","7477.937"
"2084","7419.276"
"2085","7356.456"
"2086","7322.339"
"2087","7318.866"
"2088","7340.625"
"2089","7360.165"
"2090","7344.809"
"2091","7296.11"
"2092","7245.976"
"2093","7215.986"
"2094","7200.025"
"2095","7189.468"
"2096","7187.542"
"2097","7202.263"
"2098","7224.436"
"2099","7224.149"
"2100","7182.036"
"2101","7118.095"
"2102","7059.216"
"2103","7017.911"
"2104","6998.206"
"2105","7006.822"
"2106","7054.831"
"2107","7141.927"
"2108","7216.485"
"2109","7217.091"
"2110","7145.98"
"2111","7053.007"
"2112","6978.698"
"2113","6943.129"
"2114","6957.469"
"2115","6996.561"
"2116","7023.8"
"2117","7021.412"
"2118","6988.512"
"2119","6933.165"
"2120","6882.525"
"2121","6861.228"
"2122","6859.683"
"2123","6855.616"
"2124","6850.445"
"2125","6869.707"
"2126","6916.724"
"2127","6934.451"
"2128","6870.354"
"2129","6776.785"
"2130","6749.403"
"2131","6788.245"
"2132","6787.263"
"2133","6692.674"
"2134","6612.573"
"2135","6659.202"
"2136","6755.597"
"2137","6740.61"
"2138","6600.521"
"2139","6491.604"
"2140","6511.409"
"2141","6561.801"
"2142","6529.337"
"2143","6456.141"
"2144","6454.534"
"2145","6533.966"
"2146","6586.247"
"2147","6546.3"
"2148","6487.576"
"2149","6492.986"
"2150","6535.1"
"2151","6538.513"
"2152","6484.237"
"2153","6414.389"
"2154","6361.146"
"2155","6322.963"
"2156","6294.215"
"2157","6277.873"
"2158","6280.195"
"2159","6301.173"
"2160","6334.663"
"2161","6374.368"
"2162","6414.264"
"2163","6444.949"
"2164","6437.574"
"2165","6359.938"
"2166","6244.017"
"2167","6175.603"
"2168","6188.227"
"2169","6211.389"
"2170","6182.991"
"2171","6137.45"
"2172","6132.924"
"2173","6164.613"
"2174","6184.186"
"2175","6169.949"
"2176","6143.167"
"2177","6125.485"
"2178","6125.99"
"2179","6147.184"
"2180","6156.51"
"2181","6104.078"
"2182","6006.563"
"2183","5961.514"
"2184","6019.568"
"2185","6089.438"
"2186","6070.151"
"2187","5958.621"
"2188","5794.147"
"2189","5661.564"
"2190","5685.99"
"2191","5882.282"
"2192","6045.785"
"2193","6005.395"
"2194","5863.029"
"2195","5785.728"
"2196","5787.744"
"2197","5786.308"
"2198","5761.548"
"2199","5781.992"
"2200","5876.972"
"2201","5938.226"
"2202","5857.093"
"2203","5708.455"
"2204","5640.054"
"2205","5660.568"
"2206","5650.461"
"2207","5559.137"
"2208","5479.189"
"2209","5491.951"
"2210","5557.801"
"2211","5607.307"
"2212","5603.168"
"2213","5528.825"
"2214","5426.616"
"2215","5410.376"
"2216","5524.303"
"2217","5622.593"
"2218","5566.627"
"2219","5433.962"
"2220","5369.711"
"2221","5380.851"
"2222","5372.264"
"2223","5308.862"
"2224","5249.625"
"2225","5245.064"
"2226","5294.02"
"2227","5375.039"
"2228","5396.079"
"2229","5245.011"
"2230","4996.851"
"2231","4887.084"
"2232","4994.909"
"2233","5121.359"
"2234","5106.36"
"2235","5029.024"
"2236","5006.958"
"2237","5037.711"
"2238","5063.489"
"2239","5055.603"
"2240","5012.981"
"2241","4945.694"
"2242","4882.188"
"2243","4846.043"
"2244","4834.982"
"2245","4839.682"
"2246","4842.876"
"2247","4823.835"
"2248","4770.854"
"2249","4681.007"
"2250","4579.818"
"2251","4543.055"
"2252","4610"
"2253","4669.649"
"2254","4600.164"
"2255","4455.576"
"2256","4364.964"
"2257","4358.966"
"2258","4382.216"
"2259","4391.244"
"2260","4366.865"
"2261","4296.607"
"2262","4182.481"
"2263","4037.59"
"2264","3927.813"
"2265","3933.151"
"2266","4029.559"
"2267","4115.139"
"2268","4125.02"
"2269","4048.606"
"2270","3899.221"
"2271","3742.124"
"2272","3633.838"
"2273","3541.664"
"2274","3413.249"
"2275","3293.234"
"2276","3281.283"
"2277","3367.216"
"2278","3419.568"
"2279","3366.896"
"2280","3270.453"
"2281","3191.025"
"2282","3127.289"
"2283","3067.124"
"2284","3027.2"
"2285","3033.224"
"2286","3046.438"
"2287","2977.205"
"2288","2817.151"
"2289","2676.767"
"2290","2628.507"
"2291","2621.699"
"2292","2596.867"
"2293","2548.734"
"2294","2487.65"
"2295","2415.547"
"2296","2329.497"
"2297","2222.752"
"2298","2085.33"
"2299","1939.84"
"2300","1864.005"
