,"Scan 00870"
"400","15632.13"
"401","15616.83"
"402","15591.03"
"403","15567.12"
"404","15557.34"
"405","15571.8"
"406","15602.51"
"407","15632.4"
"408","15644.42"
"409","15623.13"
"410","15572.24"
"411","15508.77"
"412","15449.86"
"413","15412"
"414","15399.96"
"415","15407.65"
"416","15428.6"
"417","15456.45"
"418","15487.66"
"419","15522.11"
"420","15559.88"
"421","15601.02"
"422","15641.48"
"423","15670.71"
"424","15677.62"
"425","15651.24"
"426","15590.5"
"427","15514.8"
"428","15446.04"
"429","15405.92"
"430","15406.88"
"431","15436.67"
"432","15478.99"
"433","15517.68"
"434","15540.34"
"435","15547.46"
"436","15542.27"
"437","15527.99"
"438","15507.7"
"439","15484.05"
"440","15459.52"
"441","15436.59"
"442","15417.83"
"443","15406.35"
"444","15405.46"
"445","15418.42"
"446","15446.89"
"447","15481.73"
"448","15509.36"
"449","15516.31"
"450","15491.41"
"451","15442.14"
"452","15385.13"
"453","15336.92"
"454","15312.27"
"455","15308.78"
"456","15314.2"
"457","15316.23"
"458","15303.76"
"459","15278.89"
"460","15252.45"
"461","15235.37"
"462","15237.46"
"463","15253.65"
"464","15267.72"
"465","15263.32"
"466","15225.25"
"467","15156.89"
"468","15077.06"
"469","15004.96"
"470","14958.92"
"471","14943.05"
"472","14948.42"
"473","14965.65"
"474","14985.73"
"475","15005.83"
"476","15029.32"
"477","15059.79"
"478","15100.46"
"479","15145.17"
"480","15177.77"
"481","15181.77"
"482","15141.44"
"483","15061.65"
"484","14970.19"
"485","14895.88"
"486","14866.57"
"487","14884.58"
"488","14922.54"
"489","14951.6"
"490","14943.76"
"491","14893.47"
"492","14821.95"
"493","14751.86"
"494","14705.23"
"495","14686.83"
"496","14680.63"
"497","14669.45"
"498","14636.63"
"499","14579.18"
"500","14510.58"
"501","14445.26"
"502","14397.19"
"503","14370.09"
"504","14355.42"
"505","14343.99"
"506","14326.89"
"507","14301.85"
"508","14274.27"
"509","14249.96"
"510","14234.46"
"511","14226.77"
"512","14218.69"
"513","14201.69"
"514","14167.63"
"515","14117.47"
"516","14061.72"
"517","14011.25"
"518","13976.46"
"519","13958.78"
"520","13950.84"
"521","13944.93"
"522","13933.69"
"523","13915.29"
"524","13892.93"
"525","13869.99"
"526","13849.6"
"527","13831.5"
"528","13812.68"
"529","13790.03"
"530","13760.83"
"531","13727.38"
"532","13695.65"
"533","13671.65"
"534","13660.91"
"535","13663.24"
"536","13674.77"
"537","13691.59"
"538","13709.53"
"539","13721.83"
"540","13720.27"
"541","13696.65"
"542","13645"
"543","13577.11"
"544","13513.34"
"545","13474.04"
"546","13475.5"
"547","13507.72"
"548","13549.98"
"549","13581.61"
"550","13585.99"
"551","13567.9"
"552","13539.32"
"553","13512.16"
"554","13496.27"
"555","13492.46"
"556","13499.09"
"557","13514.53"
"558","13535.45"
"559","13552.47"
"560","13554.98"
"561","13532.4"
"562","13481.37"
"563","13418.26"
"564","13362.72"
"565","13334.27"
"566","13341.91"
"567","13372.16"
"568","13408.68"
"569","13435.29"
"570","13443.84"
"571","13439.47"
"572","13428.59"
"573","13417.47"
"574","13407.63"
"575","13394.47"
"576","13372.97"
"577","13338.56"
"578","13295.62"
"579","13257.54"
"580","13238.03"
"581","13249.49"
"582","13285.89"
"583","13327.19"
"584","13353.1"
"585","13345.89"
"586","13311.99"
"587","13271.52"
"588","13244.68"
"589","13247.91"
"590","13272.98"
"591","13301.54"
"592","13315.27"
"593","13300.68"
"594","13266.52"
"595","13227.94"
"596","13200.03"
"597","13192.77"
"598","13199.75"
"599","13211.33"
"600","13217.92"
"601","13213.55"
"602","13200.24"
"603","13181.05"
"604","13159.03"
"605","13136.77"
"606","13116.14"
"607","13098.94"
"608","13086.92"
"609","13080.93"
"610","13080.84"
"611","13086.45"
"612","13097.47"
"613","13111.96"
"614","13126.76"
"615","13138.72"
"616","13144.99"
"617","13145.2"
"618","13140.24"
"619","13131"
"620","13118.38"
"621","13103.51"
"622","13087.57"
"623","13071.73"
"624","13056.75"
"625","13042.07"
"626","13026.83"
"627","13010.21"
"628","12992.69"
"629","12977.38"
"630","12967.68"
"631","12966.9"
"632","12974.73"
"633","12986.16"
"634","12995.91"
"635","12998.91"
"636","12993.65"
"637","12981.56"
"638","12964.14"
"639","12943.2"
"640","12923.33"
"641","12910.54"
"642","12910.83"
"643","12928.14"
"644","12956.2"
"645","12985.6"
"646","13006.98"
"647","13013.88"
"648","13008.18"
"649","12993.26"
"650","12972.47"
"651","12950.12"
"652","12932.08"
"653","12924.38"
"654","12932.65"
"655","12953.78"
"656","12975.81"
"657","12986.42"
"658","12975.14"
"659","12951.01"
"660","12934.78"
"661","12947.29"
"662","13002.86"
"663","13080.06"
"664","13145.25"
"665","13164.93"
"666","13121.03"
"667","13041.11"
"668","12961.12"
"669","12916.58"
"670","12921.15"
"671","12952.6"
"672","12985.47"
"673","12995.32"
"674","12977.83"
"675","12947.39"
"676","12919.07"
"677","12906.39"
"678","12909.66"
"679","12922.28"
"680","12937.62"
"681","12950.45"
"682","12961.45"
"683","12972.94"
"684","12987.22"
"685","13004.39"
"686","13019.61"
"687","13027.39"
"688","13022.45"
"689","13006.59"
"690","12990.02"
"691","12983.45"
"692","12996.23"
"693","13022.94"
"694","13048.61"
"695","13058.16"
"696","13040.31"
"697","13003.59"
"698","12962.98"
"699","12933.44"
"700","12924.57"
"701","12932.58"
"702","12951.56"
"703","12975.71"
"704","13000.95"
"705","13025.53"
"706","13047.82"
"707","13066.09"
"708","13077.19"
"709","13077.05"
"710","13061.59"
"711","13029.25"
"712","12991.33"
"713","12963.27"
"714","12960.42"
"715","12988.91"
"716","13033.09"
"717","13074.16"
"718","13093.92"
"719","13089.57"
"720","13076.07"
"721","13069.36"
"722","13083.3"
"723","13112.09"
"724","13138.83"
"725","13146.54"
"726","13123.86"
"727","13082.4"
"728","13039.64"
"729","13012.96"
"730","13010.86"
"731","13025.61"
"732","13047.77"
"733","13068.27"
"734","13084.61"
"735","13100.01"
"736","13117.87"
"737","13140.38"
"738","13161.88"
"739","13173.56"
"740","13166.65"
"741","13137.95"
"742","13099.41"
"743","13065.48"
"744","13050.28"
"745","13057.67"
"746","13079.12"
"747","13105.35"
"748","13127.72"
"749","13143.29"
"750","13152.24"
"751","13154.82"
"752","13151.95"
"753","13147.16"
"754","13144.54"
"755","13148.18"
"756","13159.67"
"757","13176.9"
"758","13197.42"
"759","13218.99"
"760","13242.09"
"761","13269.02"
"762","13302.07"
"763","13341.71"
"764","13380.01"
"765","13406.72"
"766","13411.69"
"767","13391.5"
"768","13354.77"
"769","13311.33"
"770","13270.88"
"771","13241.12"
"772","13228.29"
"773","13238.58"
"774","13275.44"
"775","13328.92"
"776","13384.97"
"777","13429.63"
"778","13456"
"779","13470.33"
"780","13480.32"
"781","13493.42"
"782","13513.59"
"783","13542.09"
"784","13580.11"
"785","13626.63"
"786","13670.11"
"787","13695.78"
"788","13689.05"
"789","13646.46"
"790","13584.52"
"791","13521.81"
"792","13476.09"
"793","13454.12"
"794","13454.78"
"795","13476.76"
"796","13516.78"
"797","13563.04"
"798","13601.45"
"799","13618.09"
"800","13609.78"
"801","13590.09"
"802","13574.04"
"803","13575.42"
"804","13594.7"
"805","13624.27"
"806","13656.4"
"807","13684.03"
"808","13702.46"
"809","13707.47"
"810","13695.12"
"811","13670.26"
"812","13648.85"
"813","13647.5"
"814","13679.64"
"815","13733.95"
"816","13787.43"
"817","13817.06"
"818","13810.22"
"819","13780.66"
"820","13746.21"
"821","13724.15"
"822","13720.89"
"823","13732.79"
"824","13755.85"
"825","13785.63"
"826","13815.34"
"827","13837.43"
"828","13844.42"
"829","13834.05"
"830","13813.12"
"831","13789.27"
"832","13769.96"
"833","13760.47"
"834","13764.73"
"835","13786.64"
"836","13826.39"
"837","13872.19"
"838","13909.83"
"839","13925.63"
"840","13919.32"
"841","13905.28"
"842","13898.65"
"843","13911.17"
"844","13934.31"
"845","13952"
"846","13948.25"
"847","13919.33"
"848","13884.27"
"849","13864.55"
"850","13879.56"
"851","13924.58"
"852","13979.54"
"853","14024.11"
"854","14044"
"855","14043.98"
"856","14032.56"
"857","14018.09"
"858","14005.22"
"859","13994.77"
"860","13987.42"
"861","13983.95"
"862","13985.84"
"863","13994.78"
"864","14012.43"
"865","14037.98"
"866","14066.7"
"867","14093.54"
"868","14114.06"
"869","14129.43"
"870","14143.69"
"871","14160.92"
"872","14183.56"
"873","14210.14"
"874","14238.66"
"875","14267.12"
"876","14294.5"
"877","14320.48"
"878","14344.75"
"879","14366.73"
"880","14384.78"
"881","14397.03"
"882","14401.72"
"883","14400.09"
"884","14396.6"
"885","14395.87"
"886","14401.46"
"887","14411.45"
"888","14422.14"
"889","14429.92"
"890","14436.94"
"891","14453.71"
"892","14491.47"
"893","14558.07"
"894","14636.82"
"895","14699.94"
"896","14719.81"
"897","14688.47"
"898","14636.3"
"899","14598.07"
"900","14604.81"
"901","14649.07"
"902","14700.8"
"903","14729.69"
"904","14718.7"
"905","14684.2"
"906","14647.7"
"907","14629.52"
"908","14633.36"
"909","14650.6"
"910","14672.39"
"911","14691.81"
"912","14708.26"
"913","14722.34"
"914","14734.67"
"915","14746.4"
"916","14759.16"
"917","14774.54"
"918","14791.99"
"919","14802.64"
"920","14795.57"
"921","14760.61"
"922","14705.17"
"923","14654.93"
"924","14636.38"
"925","14668.42"
"926","14735.49"
"927","14812.35"
"928","14874.22"
"929","14910.36"
"930","14926.5"
"931","14929.27"
"932","14924.13"
"933","14910.38"
"934","14885.38"
"935","14846.68"
"936","14799.34"
"937","14758.03"
"938","14738.04"
"939","14750.7"
"940","14785.5"
"941","14824.41"
"942","14849.63"
"943","14854.8"
"944","14848.93"
"945","14842.19"
"946","14843.21"
"947","14851.72"
"948","14864.3"
"949","14877.51"
"950","14887.44"
"951","14889.6"
"952","14879.44"
"953","14854.55"
"954","14825.15"
"955","14806"
"956","14811.6"
"957","14842.8"
"958","14881.65"
"959","14908.81"
"960","14908.74"
"961","14887.62"
"962","14859.29"
"963","14837.45"
"964","14828.54"
"965","14829.41"
"966","14836.24"
"967","14845.71"
"968","14857.13"
"969","14870.71"
"970","14886.61"
"971","14903.6"
"972","14918.68"
"973","14928.76"
"974","14931.01"
"975","14924.09"
"976","14907.05"
"977","14879.12"
"978","14844.27"
"979","14811.78"
"980","14791.2"
"981","14789.56"
"982","14803.07"
"983","14825.1"
"984","14848.99"
"985","14868.31"
"986","14876.86"
"987","14868.42"
"988","14840.97"
"989","14807.63"
"990","14784.91"
"991","14788.43"
"992","14818.51"
"993","14862.58"
"994","14907.7"
"995","14943.62"
"996","14968.09"
"997","14980.35"
"998","14980.07"
"999","14972.81"
"1000","14968.17"
"1001","14975.82"
"1002","15000.44"
"1003","15034.92"
"1004","15070.45"
"1005","15098.21"
"1006","15110.75"
"1007","15109.82"
"1008","15100.98"
"1009","15089.72"
"1010","15078.34"
"1011","15064.56"
"1012","15045.71"
"1013","15021.12"
"1014","15000.82"
"1015","14998.49"
"1016","15027.28"
"1017","15084.18"
"1018","15147.14"
"1019","15193.04"
"1020","15205.51"
"1021","15196.94"
"1022","15187.27"
"1023","15195.69"
"1024","15225.5"
"1025","15265.29"
"1026","15303.07"
"1027","15329.72"
"1028","15345.01"
"1029","15350.52"
"1030","15347.9"
"1031","15340.61"
"1032","15333.29"
"1033","15330.61"
"1034","15333.94"
"1035","15337.17"
"1036","15333.14"
"1037","15316.52"
"1038","15297.69"
"1039","15294.95"
"1040","15326.44"
"1041","15393.17"
"1042","15468.75"
"1043","15524.31"
"1044","15537.08"
"1045","15518.15"
"1046","15490.3"
"1047","15475.8"
"1048","15482.15"
"1049","15500.71"
"1050","15521.97"
"1051","15538.21"
"1052","15547.97"
"1053","15551.18"
"1054","15547.91"
"1055","15540.54"
"1056","15533.1"
"1057","15529.65"
"1058","15532.55"
"1059","15540.49"
"1060","15551.66"
"1061","15564.41"
"1062","15578.32"
"1063","15593.53"
"1064","15610.16"
"1065","15627.84"
"1066","15645.55"
"1067","15662.21"
"1068","15677.48"
"1069","15694.1"
"1070","15715.65"
"1071","15745.23"
"1072","15778.48"
"1073","15804.98"
"1074","15814.15"
"1075","15800.79"
"1076","15772.22"
"1077","15737.57"
"1078","15705.86"
"1079","15685.43"
"1080","15684.3"
"1081","15710.12"
"1082","15756.68"
"1083","15799.71"
"1084","15813.74"
"1085","15782.92"
"1086","15728.31"
"1087","15679.8"
"1088","15665.22"
"1089","15684.72"
"1090","15718.83"
"1091","15747.71"
"1092","15758.97"
"1093","15754.54"
"1094","15737.99"
"1095","15713.18"
"1096","15685.79"
"1097","15662.11"
"1098","15648.2"
"1099","15644.49"
"1100","15645.88"
"1101","15647.02"
"1102","15644.84"
"1103","15642.37"
"1104","15643.64"
"1105","15651.93"
"1106","15664.59"
"1107","15676.09"
"1108","15680.99"
"1109","15678.22"
"1110","15672.17"
"1111","15667.6"
"1112","15668.09"
"1113","15673.28"
"1114","15681.94"
"1115","15692.8"
"1116","15704.07"
"1117","15713.67"
"1118","15719.54"
"1119","15721.26"
"1120","15720.91"
"1121","15720.75"
"1122","15721.82"
"1123","15720.4"
"1124","15711.6"
"1125","15691.52"
"1126","15668.51"
"1127","15658.85"
"1128","15678.71"
"1129","15725.1"
"1130","15764.59"
"1131","15760.94"
"1132","15692.16"
"1133","15595.32"
"1134","15522.86"
"1135","15522.69"
"1136","15587.33"
"1137","15672.4"
"1138","15733.27"
"1139","15750.33"
"1140","15743.56"
"1141","15736.44"
"1142","15745.43"
"1143","15759"
"1144","15758.67"
"1145","15728.37"
"1146","15678.77"
"1147","15637.22"
"1148","15630.84"
"1149","15664.1"
"1150","15708.91"
"1151","15734.66"
"1152","15722.41"
"1153","15693.6"
"1154","15678.44"
"1155","15702.91"
"1156","15754.65"
"1157","15800.89"
"1158","15809.58"
"1159","15779.55"
"1160","15746.6"
"1161","15748.74"
"1162","15804.84"
"1163","15881.19"
"1164","15935.13"
"1165","15931.85"
"1166","15890.24"
"1167","15851.45"
"1168","15854.69"
"1169","15897.68"
"1170","15939.81"
"1171","15939.21"
"1172","15882.7"
"1173","15814.73"
"1174","15786.66"
"1175","15835.13"
"1176","15927.81"
"1177","16012.21"
"1178","16039.98"
"1179","16012.19"
"1180","15962.17"
"1181","15923.39"
"1182","15911.44"
"1183","15917.28"
"1184","15930.11"
"1185","15941.62"
"1186","15950.86"
"1187","15958.25"
"1188","15964.38"
"1189","15970.82"
"1190","15979.6"
"1191","15992.6"
"1192","16009.03"
"1193","16025.79"
"1194","16039.77"
"1195","16052.01"
"1196","16070.91"
"1197","16105.63"
"1198","16158.74"
"1199","16207.97"
"1200","16225.2"
"1201","16187.73"
"1202","16118.67"
"1203","16064.16"
"1204","16068.48"
"1205","16128.92"
"1206","16195.95"
"1207","16218.23"
"1208","16174.46"
"1209","16102.26"
"1210","16046.09"
"1211","16039.56"
"1212","16072.12"
"1213","16122.06"
"1214","16168.65"
"1215","16199.94"
"1216","16208.52"
"1217","16187.69"
"1218","16146.19"
"1219","16107.99"
"1220","16097.59"
"1221","16123.13"
"1222","16162.14"
"1223","16188.8"
"1224","16185.85"
"1225","16167.63"
"1226","16155.79"
"1227","16168.48"
"1228","16197.39"
"1229","16222.11"
"1230","16223.44"
"1231","16204.35"
"1232","16186.65"
"1233","16192.47"
"1234","16228.1"
"1235","16275.5"
"1236","16314.54"
"1237","16331.86"
"1238","16333.48"
"1239","16328.88"
"1240","16326.59"
"1241","16329.94"
"1242","16340.49"
"1243","16359.56"
"1244","16386.04"
"1245","16417.32"
"1246","16450.64"
"1247","16480.55"
"1248","16498.67"
"1249","16496.54"
"1250","16474.97"
"1251","16452.59"
"1252","16450.06"
"1253","16479.42"
"1254","16522.93"
"1255","16556.36"
"1256","16559.99"
"1257","16542.83"
"1258","16525.21"
"1259","16525.96"
"1260","16544.7"
"1261","16567.95"
"1262","16582.25"
"1263","16582.67"
"1264","16573.98"
"1265","16561.48"
"1266","16550.51"
"1267","16546.55"
"1268","16555.08"
"1269","16577.42"
"1270","16601.34"
"1271","16611.82"
"1272","16596.91"
"1273","16561.83"
"1274","16517.89"
"1275","16476.37"
"1276","16447.61"
"1277","16441.45"
"1278","16466.94"
"1279","16516.61"
"1280","16567.39"
"1281","16595.84"
"1282","16592.14"
"1283","16566.93"
"1284","16532.48"
"1285","16497.89"
"1286","16464.51"
"1287","16432.58"
"1288","16403.94"
"1289","16386.73"
"1290","16390.63"
"1291","16422.4"
"1292","16469.6"
"1293","16512.15"
"1294","16532.23"
"1295","16537.97"
"1296","16553.74"
"1297","16602.81"
"1298","16679.61"
"1299","16751.21"
"1300","16783.99"
"1301","16767.36"
"1302","16723.6"
"1303","16677.49"
"1304","16647.34"
"1305","16637.51"
"1306","16650.53"
"1307","16684.76"
"1308","16724.78"
"1309","16752.27"
"1310","16752.84"
"1311","16732.14"
"1312","16702.2"
"1313","16674.71"
"1314","16658.11"
"1315","16659.35"
"1316","16683.74"
"1317","16715.56"
"1318","16724.41"
"1319","16681.34"
"1320","16597.58"
"1321","16524.39"
"1322","16513.86"
"1323","16574.77"
"1324","16654.98"
"1325","16697.95"
"1326","16674.65"
"1327","16610.92"
"1328","16539.1"
"1329","16486.38"
"1330","16465.27"
"1331","16485.68"
"1332","16549.47"
"1333","16625.46"
"1334","16674.04"
"1335","16663.67"
"1336","16610.06"
"1337","16546.03"
"1338","16500.66"
"1339","16471.17"
"1340","16438.74"
"1341","16386.78"
"1342","16328.06"
"1343","16295.35"
"1344","16319.8"
"1345","16393.84"
"1346","16474.83"
"1347","16519.74"
"1348","16514.94"
"1349","16481.89"
"1350","16444.02"
"1351","16418.82"
"1352","16414.48"
"1353","16438.38"
"1354","16489.51"
"1355","16549.83"
"1356","16599.21"
"1357","16621.7"
"1358","16612.74"
"1359","16569.62"
"1360","16496.51"
"1361","16421.72"
"1362","16378.92"
"1363","16391.13"
"1364","16432.38"
"1365","16462.65"
"1366","16450.5"
"1367","16416.35"
"1368","16399.76"
"1369","16432.96"
"1370","16490.5"
"1371","16519.99"
"1372","16475.71"
"1373","16381.96"
"1374","16303.8"
"1375","16301.67"
"1376","16367.08"
"1377","16442.32"
"1378","16471.33"
"1379","16447.38"
"1380","16406.37"
"1381","16384.51"
"1382","16390.75"
"1383","16405.71"
"1384","16409.13"
"1385","16396.3"
"1386","16381.7"
"1387","16380.71"
"1388","16393.99"
"1389","16400.76"
"1390","16378.73"
"1391","16325.18"
"1392","16270.96"
"1393","16250.05"
"1394","16275.66"
"1395","16319.36"
"1396","16347.79"
"1397","16343.8"
"1398","16327.89"
"1399","16325.91"
"1400","16350.42"
"1401","16378.12"
"1402","16379.8"
"1403","16338.65"
"1404","16276.17"
"1405","16221.26"
"1406","16194.35"
"1407","16186.16"
"1408","16180.89"
"1409","16166.11"
"1410","16142.9"
"1411","16115.66"
"1412","16090.88"
"1413","16084.25"
"1414","16114.05"
"1415","16190.29"
"1416","16282.27"
"1417","16346.76"
"1418","16350.03"
"1419","16310.25"
"1420","16263.17"
"1421","16238.9"
"1422","16234.24"
"1423","16233.76"
"1424","16225.68"
"1425","16221.88"
"1426","16243.54"
"1427","16305.97"
"1428","16384.1"
"1429","16435.91"
"1430","16427.8"
"1431","16388.19"
"1432","16372.9"
"1433","16429.22"
"1434","16537.88"
"1435","16648.84"
"1436","16717.04"
"1437","16738.28"
"1438","16727.93"
"1439","16701.25"
"1440","16671.68"
"1441","16651.79"
"1442","16652.29"
"1443","16668.7"
"1444","16688.87"
"1445","16701.64"
"1446","16704.54"
"1447","16699.42"
"1448","16687.95"
"1449","16669.93"
"1450","16644.22"
"1451","16610.29"
"1452","16572.77"
"1453","16538.91"
"1454","16515.01"
"1455","16499.64"
"1456","16487.59"
"1457","16473.52"
"1458","16451.48"
"1459","16415.19"
"1460","16360.88"
"1461","16303.94"
"1462","16268.55"
"1463","16272.9"
"1464","16291.4"
"1465","16279.18"
"1466","16200.56"
"1467","16083.12"
"1468","15980.85"
"1469","15938.67"
"1470","15942.99"
"1471","15957.37"
"1472","15949.94"
"1473","15916.31"
"1474","15862.12"
"1475","15796.43"
"1476","15746.78"
"1477","15746.92"
"1478","15815.35"
"1479","15895.74"
"1480","15908.86"
"1481","15802.65"
"1482","15645.46"
"1483","15538.94"
"1484","15553.71"
"1485","15637.51"
"1486","15707.75"
"1487","15706.09"
"1488","15659.24"
"1489","15612.51"
"1490","15596.6"
"1491","15597.17"
"1492","15591.29"
"1493","15564.85"
"1494","15527.43"
"1495","15492.56"
"1496","15469.45"
"1497","15457.2"
"1498","15453.48"
"1499","15455.03"
"1500","15456.72"
"1501","15453.19"
"1502","15441.18"
"1503","15421.01"
"1504","15393.46"
"1505","15365.98"
"1506","15355.8"
"1507","15380.37"
"1508","15435.67"
"1509","15490.84"
"1510","15514.21"
"1511","15498.1"
"1512","15460.15"
"1513","15418.71"
"1514","15383.55"
"1515","15356.73"
"1516","15340.13"
"1517","15335.99"
"1518","15346.84"
"1519","15373.79"
"1520","15402.85"
"1521","15410.87"
"1522","15379.05"
"1523","15325.01"
"1524","15284.17"
"1525","15284.7"
"1526","15307.95"
"1527","15317"
"1528","15283.13"
"1529","15217.99"
"1530","15145.59"
"1531","15086.85"
"1532","15050.92"
"1533","15044.19"
"1534","15066.43"
"1535","15098.38"
"1536","15117.33"
"1537","15110.12"
"1538","15084.86"
"1539","15052.58"
"1540","15024.78"
"1541","15013.76"
"1542","15031.48"
"1543","15072.34"
"1544","15107.48"
"1545","15107.72"
"1546","15074.16"
"1547","15038.68"
"1548","15032.32"
"1549","15052.72"
"1550","15071.71"
"1551","15064.26"
"1552","15044.13"
"1553","15047.68"
"1554","15103.74"
"1555","15186.14"
"1556","15245.08"
"1557","15241.51"
"1558","15190.37"
"1559","15123.29"
"1560","15065.47"
"1561","15019.41"
"1562","14982.65"
"1563","14953.29"
"1564","14930.83"
"1565","14914.95"
"1566","14906.86"
"1567","14910.42"
"1568","14929.61"
"1569","14963.86"
"1570","15006.79"
"1571","15051.32"
"1572","15084.59"
"1573","15088.48"
"1574","15047.72"
"1575","14982.49"
"1576","14935.7"
"1577","14943.38"
"1578","14987.74"
"1579","15027.04"
"1580","15028.25"
"1581","15000.92"
"1582","14967.4"
"1583","14944.11"
"1584","14928.65"
"1585","14914.92"
"1586","14901.03"
"1587","14893.87"
"1588","14901.3"
"1589","14923.78"
"1590","14951.17"
"1591","14972.7"
"1592","14980.87"
"1593","14971.37"
"1594","14941.56"
"1595","14906.68"
"1596","14893.61"
"1597","14923.06"
"1598","14971.72"
"1599","14997.59"
"1600","14970.7"
"1601","14913.25"
"1602","14861.42"
"1603","14840.64"
"1604","14847.53"
"1605","14873.92"
"1606","14907.69"
"1607","14930.14"
"1608","14922.85"
"1609","14894.31"
"1610","14882.39"
"1611","14922.58"
"1612","14997.96"
"1613","15054.69"
"1614","15047.65"
"1615","15000.99"
"1616","14969.58"
"1617","14991.76"
"1618","15034.83"
"1619","15047.2"
"1620","15001.65"
"1621","14932.54"
"1622","14883.46"
"1623","14871.6"
"1624","14873.68"
"1625","14864.06"
"1626","14841.99"
"1627","14830.29"
"1628","14850.5"
"1629","14900.73"
"1630","14965.5"
"1631","15028.49"
"1632","15069.9"
"1633","15068.73"
"1634","15016"
"1635","14940.16"
"1636","14876.79"
"1637","14848.04"
"1638","14851.86"
"1639","14883.44"
"1640","14931.93"
"1641","14979.98"
"1642","15011.02"
"1643","15021.15"
"1644","15014.36"
"1645","14996.56"
"1646","14983.85"
"1647","14995.99"
"1648","15040.86"
"1649","15089.38"
"1650","15105.53"
"1651","15077.17"
"1652","15033.38"
"1653","15006.32"
"1654","15004.67"
"1655","15013.81"
"1656","15019.69"
"1657","15023.66"
"1658","15035.7"
"1659","15059.4"
"1660","15066.81"
"1661","15020.37"
"1662","14908.83"
"1663","14787.68"
"1664","14721.85"
"1665","14728.56"
"1666","14759.09"
"1667","14762.76"
"1668","14732.08"
"1669","14692.64"
"1670","14668.65"
"1671","14669.16"
"1672","14696.93"
"1673","14744.34"
"1674","14769.07"
"1675","14722.08"
"1676","14600.8"
"1677","14482.67"
"1678","14449.08"
"1679","14500.75"
"1680","14563.85"
"1681","14570.94"
"1682","14530.26"
"1683","14486.92"
"1684","14473.12"
"1685","14470.03"
"1686","14446.67"
"1687","14392.91"
"1688","14338.51"
"1689","14316.29"
"1690","14325.73"
"1691","14333.29"
"1692","14308.17"
"1693","14255.76"
"1694","14199.9"
"1695","14158.6"
"1696","14126.39"
"1697","14092.13"
"1698","14055.34"
"1699","14035.51"
"1700","14053.19"
"1701","14104.12"
"1702","14160.47"
"1703","14196.03"
"1704","14204.88"
"1705","14190.61"
"1706","14157.85"
"1707","14114.55"
"1708","14069.44"
"1709","14034.44"
"1710","14026.77"
"1711","14062.15"
"1712","14124.5"
"1713","14171.97"
"1714","14169.41"
"1715","14128.33"
"1716","14078.24"
"1717","14040.1"
"1718","14011.33"
"1719","13985.68"
"1720","13968.72"
"1721","13981.23"
"1722","14040.7"
"1723","14117.77"
"1724","14154.31"
"1725","14110.5"
"1726","14029.38"
"1727","13976.53"
"1728","13986.35"
"1729","14033.2"
"1730","14084.9"
"1731","14115.36"
"1732","14103.99"
"1733","14038.34"
"1734","13959.25"
"1735","13929.38"
"1736","13979.69"
"1737","14053.71"
"1738","14081.43"
"1739","14042.78"
"1740","13978.96"
"1741","13931.8"
"1742","13912.76"
"1743","13916.37"
"1744","13936.3"
"1745","13963.72"
"1746","13989.22"
"1747","14003.39"
"1748","13996.92"
"1749","13962.45"
"1750","13918.57"
"1751","13902.17"
"1752","13938.92"
"1753","13999.26"
"1754","14037.43"
"1755","14027.76"
"1756","13983.17"
"1757","13921.14"
"1758","13862.82"
"1759","13832.39"
"1760","13847.48"
"1761","13888.24"
"1762","13921.77"
"1763","13927.29"
"1764","13910.71"
"1765","13881.34"
"1766","13847.42"
"1767","13816.09"
"1768","13792.39"
"1769","13768.23"
"1770","13730.59"
"1771","13681.75"
"1772","13659.88"
"1773","13705.74"
"1774","13804.86"
"1775","13889.49"
"1776","13901.72"
"1777","13860.68"
"1778","13815.66"
"1779","13798.78"
"1780","13801.69"
"1781","13810.59"
"1782","13818.83"
"1783","13826.48"
"1784","13833.59"
"1785","13838.53"
"1786","13839"
"1787","13837.56"
"1788","13847.4"
"1789","13881.29"
"1790","13918.66"
"1791","13909.89"
"1792","13822.03"
"1793","13717.79"
"1794","13691.59"
"1795","13773.79"
"1796","13871.16"
"1797","13883.28"
"1798","13814.33"
"1799","13747.67"
"1800","13746.03"
"1801","13770.32"
"1802","13753.65"
"1803","13679.36"
"1804","13611.15"
"1805","13613.54"
"1806","13679.63"
"1807","13758.4"
"1808","13810.91"
"1809","13842.74"
"1810","13868.79"
"1811","13890.62"
"1812","13893.14"
"1813","13862.37"
"1814","13801.64"
"1815","13722.43"
"1816","13641.75"
"1817","13590.45"
"1818","13599.53"
"1819","13657.91"
"1820","13715.56"
"1821","13731.33"
"1822","13719.74"
"1823","13713.44"
"1824","13723.62"
"1825","13723.5"
"1826","13685.96"
"1827","13624.91"
"1828","13580.75"
"1829","13582.24"
"1830","13616.51"
"1831","13661.72"
"1832","13695.13"
"1833","13692.9"
"1834","13638.79"
"1835","13568.57"
"1836","13539.45"
"1837","13575.01"
"1838","13627.79"
"1839","13644.84"
"1840","13624.47"
"1841","13602.95"
"1842","13606.51"
"1843","13618.8"
"1844","13613.86"
"1845","13592.18"
"1846","13587.56"
"1847","13627.16"
"1848","13675.59"
"1849","13670.57"
"1850","13593.1"
"1851","13516.42"
"1852","13518.9"
"1853","13586.24"
"1854","13637.15"
"1855","13615.99"
"1856","13565.52"
"1857","13549.22"
"1858","13581.06"
"1859","13618"
"1860","13621.53"
"1861","13601.08"
"1862","13584.07"
"1863","13587.18"
"1864","13607.58"
"1865","13638.93"
"1866","13659.79"
"1867","13639.7"
"1868","13568.03"
"1869","13490.51"
"1870","13460.49"
"1871","13486.27"
"1872","13535.75"
"1873","13578.37"
"1874","13597.01"
"1875","13578.77"
"1876","13532.85"
"1877","13497.37"
"1878","13505.64"
"1879","13544.5"
"1880","13581.75"
"1881","13598.91"
"1882","13603.42"
"1883","13604.98"
"1884","13606.63"
"1885","13607.51"
"1886","13606.93"
"1887","13604.87"
"1888","13601.47"
"1889","13598.16"
"1890","13597.42"
"1891","13596.21"
"1892","13570.82"
"1893","13494.54"
"1894","13392.03"
"1895","13343.63"
"1896","13408.96"
"1897","13525.65"
"1898","13593.5"
"1899","13577.02"
"1900","13532.41"
"1901","13514.52"
"1902","13519.91"
"1903","13520.64"
"1904","13506.48"
"1905","13499.41"
"1906","13520.16"
"1907","13546.71"
"1908","13534.15"
"1909","13466.4"
"1910","13393.3"
"1911","13369.79"
"1912","13401.21"
"1913","13460.06"
"1914","13518.38"
"1915","13548.65"
"1916","13525.91"
"1917","13464.93"
"1918","13411.94"
"1919","13399.47"
"1920","13410.96"
"1921","13420.16"
"1922","13412.8"
"1923","13385.61"
"1924","13341.12"
"1925","13302.9"
"1926","13298.38"
"1927","13320.33"
"1928","13325.27"
"1929","13284.17"
"1930","13240.73"
"1931","13256.86"
"1932","13324.7"
"1933","13355.59"
"1934","13284.52"
"1935","13187.5"
"1936","13181.76"
"1937","13285.39"
"1938","13392.19"
"1939","13408.62"
"1940","13352.79"
"1941","13279.79"
"1942","13230.01"
"1943","13224.15"
"1944","13271.69"
"1945","13325.94"
"1946","13321.66"
"1947","13249.28"
"1948","13175.06"
"1949","13159.11"
"1950","13193.42"
"1951","13245.82"
"1952","13292.15"
"1953","13319.35"
"1954","13317.37"
"1955","13289.24"
"1956","13242.65"
"1957","13188.63"
"1958","13142.58"
"1959","13116.6"
"1960","13102.65"
"1961","13086.11"
"1962","13065.24"
"1963","13054.93"
"1964","13064.93"
"1965","13072.53"
"1966","13045.78"
"1967","12995.86"
"1968","12985.93"
"1969","13058.95"
"1970","13147"
"1971","13152.54"
"1972","13069.8"
"1973","12994.16"
"1974","12997.84"
"1975","13032.81"
"1976","13022.24"
"1977","12954.92"
"1978","12884.18"
"1979","12853.36"
"1980","12858.84"
"1981","12886.06"
"1982","12915.75"
"1983","12924.55"
"1984","12900.94"
"1985","12870.33"
"1986","12862.68"
"1987","12872.74"
"1988","12869.56"
"1989","12839.49"
"1990","12814.49"
"1991","12828.69"
"1992","12862.5"
"1993","12864.04"
"1994","12816.19"
"1995","12774.33"
"1996","12792.63"
"1997","12841.5"
"1998","12850.96"
"1999","12789.22"
"2000","12687.54"
"2001","12581.68"
"2002","12498.58"
"2003","12461.34"
"2004","12470.13"
"2005","12495.87"
"2006","12513.71"
"2007","12527.29"
"2008","12547.5"
"2009","12563.83"
"2010","12544.83"
"2011","12475.64"
"2012","12399.78"
"2013","12369.19"
"2014","12382.05"
"2015","12397.02"
"2016","12388.12"
"2017","12368.48"
"2018","12355.89"
"2019","12358.21"
"2020","12377.89"
"2021","12410.63"
"2022","12440.68"
"2023","12454.84"
"2024","12462.31"
"2025","12479.78"
"2026","12493.83"
"2027","12455.07"
"2028","12337.89"
"2029","12220.48"
"2030","12200.48"
"2031","12262.44"
"2032","12297.26"
"2033","12240.29"
"2034","12150.65"
"2035","12100.64"
"2036","12096.38"
"2037","12107.27"
"2038","12114.91"
"2039","12122.4"
"2040","12132.09"
"2041","12130.15"
"2042","12097.9"
"2043","12045.35"
"2044","12014.27"
"2045","12029.4"
"2046","12050.07"
"2047","12026.11"
"2048","11972.06"
"2049","11948.04"
"2050","11977.88"
"2051","12006.64"
"2052","11979.3"
"2053","11912.7"
"2054","11854.43"
"2055","11831.29"
"2056","11843.17"
"2057","11879.62"
"2058","11896.06"
"2059","11844.13"
"2060","11751.3"
"2061","11703.91"
"2062","11742.07"
"2063","11797.47"
"2064","11799.57"
"2065","11774.5"
"2066","11791.07"
"2067","11870.39"
"2068","11971.17"
"2069","12055.98"
"2070","12119.87"
"2071","12165.34"
"2072","12187.54"
"2073","12176.11"
"2074","12122.42"
"2075","12021.74"
"2076","11875.88"
"2077","11726.68"
"2078","11630.84"
"2079","11596.89"
"2080","11577.88"
"2081","11538.3"
"2082","11491.13"
"2083","11458.26"
"2084","11448.18"
"2085","11460.94"
"2086","11483.99"
"2087","11483.64"
"2088","11431.48"
"2089","11336.66"
"2090","11220.6"
"2091","11111.77"
"2092","11044.88"
"2093","11038.34"
"2094","11070.54"
"2095","11116.16"
"2096","11166.59"
"2097","11219.95"
"2098","11248.89"
"2099","11195.44"
"2100","11040.72"
"2101","10902.04"
"2102","10908.66"
"2103","11014.89"
"2104","11072.02"
"2105","11020.6"
"2106","10942.5"
"2107","10913.16"
"2108","10925.56"
"2109","10949.9"
"2110","10953.51"
"2111","10901.82"
"2112","10797.41"
"2113","10714.63"
"2114","10718.48"
"2115","10776.85"
"2116","10825.68"
"2117","10823.95"
"2118","10751.41"
"2119","10619.95"
"2120","10513.3"
"2121","10508.35"
"2122","10570.79"
"2123","10623.57"
"2124","10631.35"
"2125","10601.37"
"2126","10548.26"
"2127","10500.7"
"2128","10483.43"
"2129","10475.04"
"2130","10435.47"
"2131","10376.67"
"2132","10368.27"
"2133","10439.63"
"2134","10499.08"
"2135","10448.99"
"2136","10311.58"
"2137","10164.9"
"2138","10071.08"
"2139","10073.55"
"2140","10174.15"
"2141","10258.9"
"2142","10214.59"
"2143","10099.24"
"2144","10048.78"
"2145","10102.79"
"2146","10190.5"
"2147","10240.6"
"2148","10197.74"
"2149","10028.11"
"2150","9839.904"
"2151","9799.843"
"2152","9910.066"
"2153","9995.037"
"2154","9941.186"
"2155","9818.614"
"2156","9717.226"
"2157","9661.35"
"2158","9648.177"
"2159","9672.977"
"2160","9729.162"
"2161","9797.488"
"2162","9830.207"
"2163","9788.842"
"2164","9712.372"
"2165","9664.594"
"2166","9655.35"
"2167","9649.061"
"2168","9630.029"
"2169","9623.655"
"2170","9644.935"
"2171","9637.593"
"2172","9533.253"
"2173","9381.722"
"2174","9313.945"
"2175","9370.174"
"2176","9446.575"
"2177","9459.173"
"2178","9443.839"
"2179","9457.121"
"2180","9489.939"
"2181","9497.794"
"2182","9458.375"
"2183","9376.771"
"2184","9265.646"
"2185","9153.778"
"2186","9070.277"
"2187","9027.327"
"2188","9028.852"
"2189","9051.858"
"2190","9049.259"
"2191","9005.335"
"2192","8967.785"
"2193","8972.811"
"2194","8969.816"
"2195","8893.344"
"2196","8794.792"
"2197","8798.284"
"2198","8908.487"
"2199","8964.766"
"2200","8864.866"
"2201","8719.623"
"2202","8659.646"
"2203","8668.87"
"2204","8670.472"
"2205","8644.575"
"2206","8623.941"
"2207","8613.822"
"2208","8562.339"
"2209","8439.859"
"2210","8341.837"
"2211","8381.12"
"2212","8495.793"
"2213","8523.685"
"2214","8429.051"
"2215","8332.341"
"2216","8309.092"
"2217","8294.767"
"2218","8222.573"
"2219","8140.701"
"2220","8130.888"
"2221","8167.213"
"2222","8144.947"
"2223","8050.264"
"2224","8008.936"
"2225","8094.846"
"2226","8181.274"
"2227","8130.113"
"2228","8002.988"
"2229","7939.508"
"2230","7940.884"
"2231","7889.094"
"2232","7745.184"
"2233","7613.086"
"2234","7581.132"
"2235","7630.348"
"2236","7715.067"
"2237","7769.275"
"2238","7721.945"
"2239","7600.287"
"2240","7522.648"
"2241","7538.062"
"2242","7562.583"
"2243","7522.319"
"2244","7434.722"
"2245","7333.934"
"2246","7216.314"
"2247","7063.13"
"2248","6919.724"
"2249","6890.592"
"2250","6993.155"
"2251","7084.586"
"2252","7055.264"
"2253","6976.061"
"2254","6944.904"
"2255","6956.299"
"2256","6959.269"
"2257","6934.438"
"2258","6889.744"
"2259","6803.365"
"2260","6603.491"
"2261","6280.223"
"2262","6035.34"
"2263","6063.573"
"2264","6236.883"
"2265","6311.198"
"2266","6233.264"
"2267","6093.514"
"2268","5954.341"
"2269","5834.166"
"2270","5733.157"
"2271","5612.189"
"2272","5441.606"
"2273","5273.547"
"2274","5180.329"
"2275","5167.05"
"2276","5197.983"
"2277","5238.042"
"2278","5253.558"
"2279","5221.031"
"2280","5137.299"
"2281","5003.762"
"2282","4830.008"
"2283","4632.322"
"2284","4461.796"
"2285","4379.65"
"2286","4354.08"
"2287","4279.337"
"2288","4138.668"
"2289","4046.225"
"2290","4056.869"
"2291","4044.998"
"2292","3897.936"
"2293","3709.261"
"2294","3618.376"
"2295","3597.135"
"2296","3528.559"
"2297","3396.551"
"2298","3283.545"
"2299","3225.558"
"2300","3173.24"
