,"Scan 00885"
"400","11084.35"
"401","11012.08"
"402","10970.29"
"403","10958.43"
"404","10975.98"
"405","11020.86"
"406","11077.77"
"407","11124.77"
"408","11140.03"
"409","11104.35"
"410","11030.79"
"411","10954.81"
"412","10912.04"
"413","10936.19"
"414","11025.89"
"415","11147.09"
"416","11264.75"
"417","11344.69"
"418","11374"
"419","11365.93"
"420","11335.27"
"421","11296.61"
"422","11259.72"
"423","11226.68"
"424","11198.83"
"425","11177.52"
"426","11163.51"
"427","11156.37"
"428","11155.51"
"429","11160.38"
"430","11170.02"
"431","11182.48"
"432","11195.66"
"433","11207.45"
"434","11216.25"
"435","11222.08"
"436","11225.32"
"437","11226.33"
"438","11225.42"
"439","11222.57"
"440","11217.68"
"441","11210.66"
"442","11201.36"
"443","11189.44"
"444","11174.49"
"445","11156.1"
"446","11134.49"
"447","11114.08"
"448","11101.04"
"449","11101.49"
"450","11120.12"
"451","11150.17"
"452","11179.26"
"453","11195.06"
"454","11186.68"
"455","11157.03"
"456","11116.91"
"457","11077.16"
"458","11047.78"
"459","11029.65"
"460","11017.63"
"461","11006.5"
"462","10991.35"
"463","10971.53"
"464","10949.55"
"465","10927.98"
"466","10909.41"
"467","10896.76"
"468","10893.29"
"469","10902.22"
"470","10926.32"
"471","10959.35"
"472","10986.84"
"473","10994.13"
"474","10967.44"
"475","10912"
"476","10851.85"
"477","10811.7"
"478","10815.13"
"479","10860.91"
"480","10921.55"
"481","10968.42"
"482","10973.89"
"483","10934.05"
"484","10871.42"
"485","10809.82"
"486","10772.37"
"487","10765.76"
"488","10777.64"
"489","10794.6"
"490","10803.61"
"491","10799.5"
"492","10786.55"
"493","10769.56"
"494","10753.16"
"495","10736.98"
"496","10714.58"
"497","10679.26"
"498","10624.61"
"499","10554.96"
"500","10487.45"
"501","10439.94"
"502","10429.57"
"503","10454.49"
"504","10490.33"
"505","10511.51"
"506","10493.38"
"507","10434.54"
"508","10360.44"
"509","10297.86"
"510","10272.66"
"511","10288.68"
"512","10325.39"
"513","10361.15"
"514","10374.96"
"515","10359.74"
"516","10323.01"
"517","10272.92"
"518","10217.6"
"519","10165.91"
"520","10127.4"
"521","10111.58"
"522","10127.18"
"523","10168.51"
"524","10216.91"
"525","10253.34"
"526","10259.91"
"527","10235.62"
"528","10193.43"
"529","10146.58"
"530","10107.64"
"531","10080.32"
"532","10061.81"
"533","10049.17"
"534","10039.63"
"535","10032.55"
"536","10028.68"
"537","10028.75"
"538","10033.09"
"539","10037.68"
"540","10036.11"
"541","10021.94"
"542","9990.246"
"543","9948.038"
"544","9908.093"
"545","9883.16"
"546","9883.479"
"547","9902.866"
"548","9928.458"
"549","9947.428"
"550","9948.901"
"551","9932.316"
"552","9900.585"
"553","9856.616"
"554","9805.006"
"555","9757.834"
"556","9729.176"
"557","9733.046"
"558","9776.269"
"559","9840.761"
"560","9903.093"
"561","9939.964"
"562","9938.112"
"563","9911.701"
"564","9879.497"
"565","9860.134"
"566","9864.46"
"567","9886.684"
"568","9918.874"
"569","9953.14"
"570","9981.699"
"571","9996.926"
"572","9991.241"
"573","9957.345"
"574","9897.716"
"575","9827.53"
"576","9762.744"
"577","9718.795"
"578","9700.644"
"579","9702.778"
"580","9719.261"
"581","9744.168"
"582","9771.474"
"583","9795.079"
"584","9808.909"
"585","9807.669"
"586","9793.513"
"587","9772.793"
"588","9751.893"
"589","9736.555"
"590","9728.423"
"591","9727.452"
"592","9733.591"
"593","9746.011"
"594","9760.283"
"595","9770.94"
"596","9772.535"
"597","9762.324"
"598","9746.18"
"599","9731.679"
"600","9726.348"
"601","9733.712"
"602","9748.467"
"603","9764.145"
"604","9774.359"
"605","9776.009"
"606","9771.021"
"607","9761.743"
"608","9750.533"
"609","9740.136"
"610","9733.719"
"611","9734.457"
"612","9745.129"
"613","9763.12"
"614","9781.873"
"615","9794.756"
"616","9795.956"
"617","9786.186"
"618","9769.38"
"619","9749.482"
"620","9729.937"
"621","9711.703"
"622","9694.944"
"623","9679.819"
"624","9666.114"
"625","9652.392"
"626","9636.979"
"627","9618.23"
"628","9597.268"
"629","9580.803"
"630","9576.195"
"631","9590.543"
"632","9621.915"
"633","9656.727"
"634","9680.675"
"635","9680.42"
"636","9657.972"
"637","9628.001"
"638","9605.509"
"639","9603.593"
"640","9619.073"
"641","9640.36"
"642","9655.835"
"643","9656.03"
"644","9642.002"
"645","9618.065"
"646","9588.524"
"647","9558.637"
"648","9536.422"
"649","9530.374"
"650","9548.822"
"651","9589.71"
"652","9633.44"
"653","9658.787"
"654","9645.551"
"655","9596.494"
"656","9537.659"
"657","9496.04"
"658","9495.975"
"659","9534.287"
"660","9591.249"
"661","9646.956"
"662","9683.93"
"663","9697.783"
"664","9688.61"
"665","9656.513"
"666","9606.145"
"667","9555.646"
"668","9525.609"
"669","9536.311"
"670","9589.94"
"671","9658.999"
"672","9713.313"
"673","9724.139"
"674","9690.549"
"675","9637.49"
"676","9590.843"
"677","9573.665"
"678","9584.797"
"679","9610.496"
"680","9636.95"
"681","9652.771"
"682","9657.069"
"683","9651.808"
"684","9638.956"
"685","9620.744"
"686","9600.02"
"687","9579.701"
"688","9562.725"
"689","9552.705"
"690","9554.076"
"691","9571.311"
"692","9607.881"
"693","9655.854"
"694","9699.978"
"695","9724.922"
"696","9719.181"
"697","9691.2"
"698","9655.926"
"699","9628.266"
"700","9618.039"
"701","9622.243"
"702","9635.876"
"703","9653.991"
"704","9673.057"
"705","9691.357"
"706","9707.296"
"707","9719.287"
"708","9725.803"
"709","9725.356"
"710","9716.463"
"711","9698.619"
"712","9676.36"
"713","9655.821"
"714","9643.12"
"715","9641.313"
"716","9646.269"
"717","9652.82"
"718","9655.95"
"719","9654.797"
"720","9653.281"
"721","9655.582"
"722","9664.856"
"723","9674.401"
"724","9671.964"
"725","9645.252"
"726","9588.764"
"727","9524.817"
"728","9482.827"
"729","9491.932"
"730","9559.701"
"731","9654.121"
"732","9738.999"
"733","9780.021"
"734","9775.884"
"735","9753.947"
"736","9742.489"
"737","9764.261"
"738","9806.366"
"739","9841.704"
"740","9843.199"
"741","9797.42"
"742","9727.826"
"743","9664.016"
"744","9634.873"
"745","9646.782"
"746","9678.939"
"747","9708.938"
"748","9716.708"
"749","9703.902"
"750","9684.091"
"751","9670.942"
"752","9674.212"
"753","9689.365"
"754","9708.604"
"755","9724.254"
"756","9734.726"
"757","9747.776"
"758","9771.945"
"759","9814.563"
"760","9868.094"
"761","9914.933"
"762","9937.303"
"763","9923.221"
"764","9886.452"
"765","9847.932"
"766","9828.421"
"767","9835.941"
"768","9855.893"
"769","9871.367"
"770","9866.687"
"771","9843.912"
"772","9818.548"
"773","9806.414"
"774","9819.607"
"775","9852.08"
"776","9892.242"
"777","9928.552"
"778","9953.945"
"779","9969.706"
"780","9978.035"
"781","9981.048"
"782","9979.619"
"783","9973.672"
"784","9963.102"
"785","9948.642"
"786","9935.066"
"787","9928.37"
"788","9934.481"
"789","9953.528"
"790","9975.255"
"791","9988.341"
"792","9982.549"
"793","9962.23"
"794","9942.226"
"795","9937.589"
"796","9958.73"
"797","9996.097"
"798","10034.78"
"799","10060.01"
"800","10066"
"801","10060.93"
"802","10054.19"
"803","10054.34"
"804","10060.7"
"805","10067"
"806","10066.9"
"807","10056.71"
"808","10042.04"
"809","10030.49"
"810","10029.53"
"811","10042.06"
"812","10065.35"
"813","10096.27"
"814","10131.4"
"815","10164.83"
"816","10189.54"
"817","10198.48"
"818","10188.55"
"819","10166.64"
"820","10141.18"
"821","10120.31"
"822","10106.6"
"823","10097.44"
"824","10090.05"
"825","10082.29"
"826","10075.57"
"827","10072.37"
"828","10075.2"
"829","10082.94"
"830","10088.38"
"831","10083.68"
"832","10062.39"
"833","10033.28"
"834","10014.52"
"835","10024.4"
"836","10072.53"
"837","10140.38"
"838","10203.8"
"839","10239.3"
"840","10240.75"
"841","10220.97"
"842","10193.76"
"843","10171.26"
"844","10155.76"
"845","10145.9"
"846","10140.33"
"847","10140.25"
"848","10151.67"
"849","10181.11"
"850","10233.73"
"851","10299.05"
"852","10356.64"
"853","10385.9"
"854","10375.01"
"855","10339.79"
"856","10301.51"
"857","10280.75"
"858","10282.62"
"859","10296.3"
"860","10310.29"
"861","10315.51"
"862","10315.63"
"863","10318.56"
"864","10332.13"
"865","10358.46"
"866","10390.66"
"867","10421.05"
"868","10442.74"
"869","10455.66"
"870","10463.28"
"871","10469.12"
"872","10475.28"
"873","10480.55"
"874","10483.22"
"875","10481.89"
"876","10479.55"
"877","10482.56"
"878","10497.38"
"879","10526.09"
"880","10555.24"
"881","10567.85"
"882","10547.74"
"883","10499.33"
"884","10449.22"
"885","10425.11"
"886","10447.31"
"887","10497.57"
"888","10545.08"
"889","10559.44"
"890","10533.5"
"891","10494.17"
"892","10471.06"
"893","10489.22"
"894","10539.76"
"895","10598.57"
"896","10641.57"
"897","10656.04"
"898","10651.31"
"899","10639.27"
"900","10631.09"
"901","10630.71"
"902","10637.8"
"903","10651.96"
"904","10671.39"
"905","10690.67"
"906","10703.84"
"907","10705.48"
"908","10698.01"
"909","10689.55"
"910","10688.41"
"911","10699.57"
"912","10717.64"
"913","10735.18"
"914","10745.11"
"915","10747.06"
"916","10746.64"
"917","10749.64"
"918","10759.69"
"919","10771.96"
"920","10779.6"
"921","10776.07"
"922","10762.22"
"923","10746.57"
"924","10738.04"
"925","10743.84"
"926","10763.72"
"927","10795.31"
"928","10836.05"
"929","10876.87"
"930","10901.17"
"931","10891.87"
"932","10838.32"
"933","10762.42"
"934","10696.4"
"935","10671.84"
"936","10696.34"
"937","10746.72"
"938","10797.8"
"939","10828.35"
"940","10838.98"
"941","10837.84"
"942","10832.96"
"943","10828.72"
"944","10824.42"
"945","10819.02"
"946","10811.48"
"947","10800.61"
"948","10785.2"
"949","10764.12"
"950","10739.4"
"951","10717.53"
"952","10705.33"
"953","10708.33"
"954","10724.5"
"955","10749.1"
"956","10777.36"
"957","10805.03"
"958","10828.51"
"959","10844.25"
"960","10848.86"
"961","10839.8"
"962","10814.83"
"963","10771.91"
"964","10717.76"
"965","10670.7"
"966","10649.86"
"967","10669.24"
"968","10715.45"
"969","10765.95"
"970","10798.58"
"971","10805.2"
"972","10795.04"
"973","10778.4"
"974","10764.61"
"975","10758.28"
"976","10762.56"
"977","10780.36"
"978","10807.24"
"979","10830.47"
"980","10836.92"
"981","10818.39"
"982","10787.73"
"983","10763.41"
"984","10763.06"
"985","10785.83"
"986","10812.64"
"987","10823.61"
"988","10806.42"
"989","10775.93"
"990","10753.07"
"991","10757.53"
"992","10786.91"
"993","10820.32"
"994","10836.29"
"995","10822.56"
"996","10794.1"
"997","10770.9"
"998","10771.31"
"999","10792.78"
"1000","10818.25"
"1001","10830.39"
"1002","10820.5"
"1003","10800.28"
"1004","10784.36"
"1005","10787.41"
"1006","10820.4"
"1007","10869.68"
"1008","10911.44"
"1009","10922.22"
"1010","10897.8"
"1011","10861.63"
"1012","10839.3"
"1013","10850.86"
"1014","10886.21"
"1015","10925.05"
"1016","10947.51"
"1017","10947.21"
"1018","10933.65"
"1019","10917.25"
"1020","10907.52"
"1021","10910.12"
"1022","10929.69"
"1023","10970.39"
"1024","11026.28"
"1025","11082.08"
"1026","11122.12"
"1027","11135.89"
"1028","11129.11"
"1029","11110.63"
"1030","11089.05"
"1031","11068.85"
"1032","11051.68"
"1033","11039.14"
"1034","11033.11"
"1035","11036.22"
"1036","11051.2"
"1037","11079.39"
"1038","11110.41"
"1039","11127.95"
"1040","11115.88"
"1041","11074.67"
"1042","11031.33"
"1043","11015.26"
"1044","11048.27"
"1045","11109.86"
"1046","11164.93"
"1047","11179.4"
"1048","11147.89"
"1049","11096.51"
"1050","11052.98"
"1051","11038.49"
"1052","11051.2"
"1053","11084.16"
"1054","11130.16"
"1055","11178.16"
"1056","11214.33"
"1057","11224.84"
"1058","11206.97"
"1059","11182.34"
"1060","11175.78"
"1061","11207.91"
"1062","11267.53"
"1063","11328.97"
"1064","11366.86"
"1065","11371.85"
"1066","11356.2"
"1067","11333.71"
"1068","11316.22"
"1069","11307.5"
"1070","11309.14"
"1071","11322.49"
"1072","11344.96"
"1073","11370.75"
"1074","11393.94"
"1075","11408.88"
"1076","11410.55"
"1077","11393.97"
"1078","11356.11"
"1079","11308.67"
"1080","11270.11"
"1081","11258.56"
"1082","11276.9"
"1083","11308.22"
"1084","11334.26"
"1085","11341.43"
"1086","11333.96"
"1087","11320.31"
"1088","11308.35"
"1089","11297.27"
"1090","11280.17"
"1091","11250.08"
"1092","11208.57"
"1093","11173.69"
"1094","11165.35"
"1095","11197.97"
"1096","11253.88"
"1097","11303.86"
"1098","11319.81"
"1099","11298.74"
"1100","11262.44"
"1101","11233.76"
"1102","11227.03"
"1103","11233.87"
"1104","11242.17"
"1105","11241.3"
"1106","11232.92"
"1107","11224.57"
"1108","11223.7"
"1109","11231.76"
"1110","11242.69"
"1111","11249.96"
"1112","11249.45"
"1113","11245.43"
"1114","11243.91"
"1115","11249.97"
"1116","11259.03"
"1117","11260.81"
"1118","11245.15"
"1119","11211.37"
"1120","11172.79"
"1121","11143.89"
"1122","11135.6"
"1123","11144.94"
"1124","11165.49"
"1125","11190.95"
"1126","11216.74"
"1127","11239.38"
"1128","11255.41"
"1129","11263.2"
"1130","11263.91"
"1131","11259"
"1132","11249.13"
"1133","11231.79"
"1134","11203.61"
"1135","11162.02"
"1136","11113.81"
"1137","11072.04"
"1138","11049.81"
"1139","11055.92"
"1140","11092.38"
"1141","11160.6"
"1142","11254.59"
"1143","11339.06"
"1144","11371.38"
"1145","11314.72"
"1146","11196.45"
"1147","11083.88"
"1148","11044"
"1149","11095.43"
"1150","11187.39"
"1151","11263.72"
"1152","11285.33"
"1153","11272.22"
"1154","11257.19"
"1155","11269.12"
"1156","11301.51"
"1157","11328.93"
"1158","11326.54"
"1159","11293.54"
"1160","11258.02"
"1161","11249.75"
"1162","11283.86"
"1163","11335.18"
"1164","11371.68"
"1165","11367.19"
"1166","11335.58"
"1167","11307.32"
"1168","11311.33"
"1169","11343.84"
"1170","11370.92"
"1171","11357.63"
"1172","11294.43"
"1173","11222.81"
"1174","11190.38"
"1175","11231.42"
"1176","11317.78"
"1177","11403.07"
"1178","11444.14"
"1179","11436.58"
"1180","11401.24"
"1181","11359.27"
"1182","11323.12"
"1183","11293.43"
"1184","11269.97"
"1185","11253.77"
"1186","11249.61"
"1187","11262.94"
"1188","11296.48"
"1189","11334.14"
"1190","11351.99"
"1191","11327.97"
"1192","11274.36"
"1193","11233.33"
"1194","11247.7"
"1195","11327.3"
"1196","11423.76"
"1197","11482.75"
"1198","11467.97"
"1199","11411.03"
"1200","11359.5"
"1201","11355.26"
"1202","11391.88"
"1203","11438.68"
"1204","11465.66"
"1205","11463.83"
"1206","11445.11"
"1207","11422.3"
"1208","11404.86"
"1209","11395.69"
"1210","11396.94"
"1211","11408.14"
"1212","11418.37"
"1213","11414"
"1214","11384.3"
"1215","11343.67"
"1216","11319.55"
"1217","11338.05"
"1218","11393.19"
"1219","11447.19"
"1220","11461.19"
"1221","11423.33"
"1222","11372.29"
"1223","11352.34"
"1224","11391.17"
"1225","11455.4"
"1226","11497.51"
"1227","11477.98"
"1228","11417.88"
"1229","11365.93"
"1230","11368.33"
"1231","11424.11"
"1232","11492.27"
"1233","11531.02"
"1234","11525.27"
"1235","11501.02"
"1236","11487.79"
"1237","11503.07"
"1238","11529.94"
"1239","11545.35"
"1240","11532.38"
"1241","11508.03"
"1242","11500.92"
"1243","11536.21"
"1244","11599.87"
"1245","11653.3"
"1246","11658.78"
"1247","11613.89"
"1248","11555"
"1249","11520.32"
"1250","11528.12"
"1251","11558.46"
"1252","11587.03"
"1253","11594.64"
"1254","11579.79"
"1255","11544.78"
"1256","11494.05"
"1257","11445.58"
"1258","11422.67"
"1259","11446.54"
"1260","11511.5"
"1261","11593.57"
"1262","11668.71"
"1263","11721.6"
"1264","11746.87"
"1265","11739.78"
"1266","11703.44"
"1267","11655.95"
"1268","11617.09"
"1269","11600.38"
"1270","11598.88"
"1271","11601.52"
"1272","11598.57"
"1273","11587.92"
"1274","11570.18"
"1275","11546.89"
"1276","11529.15"
"1277","11533.61"
"1278","11575.7"
"1279","11642.39"
"1280","11693.82"
"1281","11689.65"
"1282","11622.04"
"1283","11531.84"
"1284","11463.83"
"1285","11446.1"
"1286","11466.57"
"1287","11507.27"
"1288","11551.36"
"1289","11586.57"
"1290","11601.75"
"1291","11588.85"
"1292","11560.2"
"1293","11536.24"
"1294","11535.85"
"1295","11559.83"
"1296","11597.62"
"1297","11638.56"
"1298","11672.68"
"1299","11690.69"
"1300","11683.56"
"1301","11652.88"
"1302","11615.49"
"1303","11589.32"
"1304","11584.19"
"1305","11592.31"
"1306","11603.6"
"1307","11610.16"
"1308","11611.26"
"1309","11607.69"
"1310","11600.13"
"1311","11588.71"
"1312","11573.44"
"1313","11554.88"
"1314","11538.18"
"1315","11530.7"
"1316","11538.82"
"1317","11555.74"
"1318","11565.46"
"1319","11552.58"
"1320","11519.54"
"1321","11486.54"
"1322","11474.26"
"1323","11490.11"
"1324","11522.8"
"1325","11559.61"
"1326","11589.5"
"1327","11604.75"
"1328","11598.03"
"1329","11568.47"
"1330","11533.67"
"1331","11514.42"
"1332","11525.02"
"1333","11552.97"
"1334","11578.96"
"1335","11586.52"
"1336","11576.05"
"1337","11554.04"
"1338","11527.27"
"1339","11504.79"
"1340","11496.8"
"1341","11511.86"
"1342","11537.86"
"1343","11548.61"
"1344","11519.39"
"1345","11459.41"
"1346","11408.59"
"1347","11406.78"
"1348","11454.55"
"1349","11505.61"
"1350","11511.47"
"1351","11459.36"
"1352","11392.29"
"1353","11358.04"
"1354","11379.74"
"1355","11430.12"
"1356","11475.74"
"1357","11492.45"
"1358","11481.01"
"1359","11446.36"
"1360","11396.12"
"1361","11347.41"
"1362","11319.48"
"1363","11326.61"
"1364","11360.24"
"1365","11405.27"
"1366","11447.32"
"1367","11476.5"
"1368","11484.59"
"1369","11465.66"
"1370","11431.53"
"1371","11402.34"
"1372","11396.18"
"1373","11409.67"
"1374","11426.91"
"1375","11432.55"
"1376","11420.58"
"1377","11391.63"
"1378","11347.03"
"1379","11298.19"
"1380","11265.21"
"1381","11267.56"
"1382","11301.82"
"1383","11340.83"
"1384","11356.86"
"1385","11341.6"
"1386","11310.77"
"1387","11281.47"
"1388","11265.54"
"1389","11267.17"
"1390","11289.86"
"1391","11328.92"
"1392","11365.74"
"1393","11380.34"
"1394","11360.76"
"1395","11310.99"
"1396","11236.98"
"1397","11153.27"
"1398","11094.36"
"1399","11097.55"
"1400","11175.89"
"1401","11277.09"
"1402","11338.03"
"1403","11320.01"
"1404","11259.74"
"1405","11208.47"
"1406","11203.2"
"1407","11230.84"
"1408","11267.27"
"1409","11291.55"
"1410","11295.28"
"1411","11273.19"
"1412","11224.65"
"1413","11169.65"
"1414","11133.93"
"1415","11137.24"
"1416","11169.66"
"1417","11212.11"
"1418","11246.86"
"1419","11263.57"
"1420","11254.36"
"1421","11215.38"
"1422","11166.67"
"1423","11137.04"
"1424","11149.51"
"1425","11190.08"
"1426","11230.16"
"1427","11245.67"
"1428","11244.02"
"1429","11245.8"
"1430","11268.91"
"1431","11311.17"
"1432","11361.53"
"1433","11408.73"
"1434","11440.23"
"1435","11442.93"
"1436","11407.61"
"1437","11356.17"
"1438","11325.4"
"1439","11346.59"
"1440","11404.89"
"1441","11462.89"
"1442","11487.14"
"1443","11479.28"
"1444","11458.39"
"1445","11442.09"
"1446","11434.37"
"1447","11432.38"
"1448","11433.34"
"1449","11435.58"
"1450","11438.02"
"1451","11438.9"
"1452","11430.88"
"1453","11403.88"
"1454","11350.38"
"1455","11284.2"
"1456","11229.6"
"1457","11207.4"
"1458","11210.4"
"1459","11218.1"
"1460","11212.75"
"1461","11198.54"
"1462","11189.71"
"1463","11196.93"
"1464","11204.39"
"1465","11184.65"
"1466","11117.45"
"1467","11031.85"
"1468","10977.49"
"1469","10992.95"
"1470","11045.9"
"1471","11076.22"
"1472","11036.12"
"1473","10951.06"
"1474","10873.15"
"1475","10845.24"
"1476","10859.9"
"1477","10892.78"
"1478","10921.85"
"1479","10936.51"
"1480","10929.67"
"1481","10898.27"
"1482","10857.16"
"1483","10826.18"
"1484","10819.36"
"1485","10827.96"
"1486","10837.6"
"1487","10837.34"
"1488","10828.35"
"1489","10814.47"
"1490","10799.15"
"1491","10784.83"
"1492","10773.72"
"1493","10765.99"
"1494","10756.32"
"1495","10738.46"
"1496","10711.45"
"1497","10686.49"
"1498","10676.48"
"1499","10685.67"
"1500","10700.96"
"1501","10707.23"
"1502","10697.9"
"1503","10681.12"
"1504","10666.42"
"1505","10659.53"
"1506","10660.56"
"1507","10669.03"
"1508","10679.8"
"1509","10681.92"
"1510","10664.7"
"1511","10634.08"
"1512","10613.55"
"1513","10626.06"
"1514","10668.38"
"1515","10714.15"
"1516","10737.71"
"1517","10734.46"
"1518","10715.27"
"1519","10690.56"
"1520","10662.52"
"1521","10628.3"
"1522","10586.86"
"1523","10551.99"
"1524","10544.8"
"1525","10580.15"
"1526","10633.26"
"1527","10663.89"
"1528","10641.26"
"1529","10581.26"
"1530","10514.06"
"1531","10465.1"
"1532","10441.78"
"1533","10447.29"
"1534","10477.06"
"1535","10504.21"
"1536","10497.86"
"1537","10446.97"
"1538","10384.8"
"1539","10350.35"
"1540","10360.91"
"1541","10396.46"
"1542","10433.54"
"1543","10458.94"
"1544","10473.05"
"1545","10477.15"
"1546","10471.91"
"1547","10457.42"
"1548","10433.91"
"1549","10404.04"
"1550","10372.41"
"1551","10344.45"
"1552","10333.31"
"1553","10356.69"
"1554","10426.17"
"1555","10509.79"
"1556","10556.94"
"1557","10530.53"
"1558","10461.14"
"1559","10400.35"
"1560","10384.69"
"1561","10397.89"
"1562","10412.16"
"1563","10407.53"
"1564","10383.47"
"1565","10342.43"
"1566","10290.58"
"1567","10240.6"
"1568","10205.68"
"1569","10191.27"
"1570","10193.08"
"1571","10206.47"
"1572","10232.72"
"1573","10278.42"
"1574","10348.41"
"1575","10425.25"
"1576","10477.16"
"1577","10476.89"
"1578","10432.3"
"1579","10366.93"
"1580","10303.03"
"1581","10256.22"
"1582","10240.15"
"1583","10260.5"
"1584","10297.71"
"1585","10327.3"
"1586","10333.13"
"1587","10316.68"
"1588","10281.87"
"1589","10239.95"
"1590","10212.69"
"1591","10221.34"
"1592","10258.7"
"1593","10290.14"
"1594","10283.18"
"1595","10243.45"
"1596","10201.28"
"1597","10183.54"
"1598","10189.85"
"1599","10208.3"
"1600","10228.86"
"1601","10249.93"
"1602","10272.12"
"1603","10293.77"
"1604","10307.05"
"1605","10303.21"
"1606","10279.75"
"1607","10244.88"
"1608","10207.93"
"1609","10180.39"
"1610","10176.14"
"1611","10207.26"
"1612","10260.31"
"1613","10303.89"
"1614","10311.4"
"1615","10294.37"
"1616","10281.19"
"1617","10292.22"
"1618","10313.15"
"1619","10320.47"
"1620","10300.91"
"1621","10267.18"
"1622","10235.88"
"1623","10214.94"
"1624","10198.91"
"1625","10181.9"
"1626","10172.98"
"1627","10195.41"
"1628","10268.24"
"1629","10361.45"
"1630","10416.44"
"1631","10389.25"
"1632","10319.06"
"1633","10273.56"
"1634","10295.43"
"1635","10349.38"
"1636","10385.24"
"1637","10377.94"
"1638","10347.52"
"1639","10318.3"
"1640","10303.02"
"1641","10302.1"
"1642","10315.08"
"1643","10338.57"
"1644","10367.28"
"1645","10395.42"
"1646","10414.37"
"1647","10414.47"
"1648","10391"
"1649","10354.52"
"1650","10318.57"
"1651","10294.39"
"1652","10289.33"
"1653","10309.68"
"1654","10347.47"
"1655","10380.54"
"1656","10388.63"
"1657","10375.96"
"1658","10360.46"
"1659","10355.42"
"1660","10350.47"
"1661","10328.06"
"1662","10281.64"
"1663","10232.49"
"1664","10205.83"
"1665","10206.03"
"1666","10208.68"
"1667","10189.15"
"1668","10151.37"
"1669","10121.12"
"1670","10119.69"
"1671","10133.97"
"1672","10136.71"
"1673","10110.44"
"1674","10070.5"
"1675","10038.98"
"1676","10027.36"
"1677","10028.95"
"1678","10035.12"
"1679","10034.86"
"1680","10015.01"
"1681","9966.651"
"1682","9916.518"
"1683","9908.745"
"1684","9967.581"
"1685","10039.9"
"1686","10054.21"
"1687","9984.845"
"1688","9893.688"
"1689","9850.056"
"1690","9866.451"
"1691","9899.079"
"1692","9905.869"
"1693","9880.762"
"1694","9836.045"
"1695","9784.464"
"1696","9739.895"
"1697","9716.44"
"1698","9720.593"
"1699","9744.528"
"1700","9778.596"
"1701","9808.258"
"1702","9814.344"
"1703","9782.624"
"1704","9739.236"
"1705","9729.386"
"1706","9779.311"
"1707","9848.482"
"1708","9882.257"
"1709","9861.547"
"1710","9825.657"
"1711","9816.566"
"1712","9830.894"
"1713","9828.576"
"1714","9778.814"
"1715","9715.53"
"1716","9697.583"
"1717","9751.324"
"1718","9813.811"
"1719","9808.602"
"1720","9725.808"
"1721","9640.808"
"1722","9627.649"
"1723","9683.912"
"1724","9760.248"
"1725","9814.568"
"1726","9840.081"
"1727","9839.708"
"1728","9819.383"
"1729","9790.819"
"1730","9765.864"
"1731","9745.921"
"1732","9723.027"
"1733","9691.417"
"1734","9662.212"
"1735","9653.44"
"1736","9674.449"
"1737","9710.577"
"1738","9743.204"
"1739","9759.004"
"1740","9751.169"
"1741","9715.327"
"1742","9666.904"
"1743","9632.361"
"1744","9630.064"
"1745","9647.568"
"1746","9665.376"
"1747","9673.867"
"1748","9679.014"
"1749","9687.344"
"1750","9694.576"
"1751","9688.804"
"1752","9663.59"
"1753","9639.188"
"1754","9643.625"
"1755","9684.614"
"1756","9731.027"
"1757","9748.899"
"1758","9731.636"
"1759","9695.4"
"1760","9657.633"
"1761","9638.836"
"1762","9660.492"
"1763","9720.054"
"1764","9762.54"
"1765","9729.129"
"1766","9624.95"
"1767","9514.188"
"1768","9454.959"
"1769","9453.269"
"1770","9495.191"
"1771","9564.752"
"1772","9641.358"
"1773","9703.956"
"1774","9736.861"
"1775","9729.563"
"1776","9676.878"
"1777","9606.222"
"1778","9557.769"
"1779","9554.992"
"1780","9582.124"
"1781","9618.256"
"1782","9652.846"
"1783","9685.134"
"1784","9712.945"
"1785","9723.209"
"1786","9698.821"
"1787","9639.175"
"1788","9579.854"
"1789","9559.083"
"1790","9574.323"
"1791","9587.473"
"1792","9569.417"
"1793","9546.315"
"1794","9562.636"
"1795","9628.442"
"1796","9687.357"
"1797","9679.949"
"1798","9614.582"
"1799","9550.999"
"1800","9535.137"
"1801","9545.029"
"1802","9540.17"
"1803","9511.84"
"1804","9502.199"
"1805","9552.229"
"1806","9638.962"
"1807","9699.936"
"1808","9692.848"
"1809","9647.68"
"1810","9609.588"
"1811","9603.06"
"1812","9626.689"
"1813","9673.665"
"1814","9707.863"
"1815","9679.407"
"1816","9571.946"
"1817","9454.354"
"1818","9405.775"
"1819","9441.227"
"1820","9516.314"
"1821","9587.283"
"1822","9626.271"
"1823","9610.918"
"1824","9547.114"
"1825","9490.528"
"1826","9495.868"
"1827","9546.442"
"1828","9579.58"
"1829","9556.651"
"1830","9524.249"
"1831","9545.288"
"1832","9619.68"
"1833","9673.43"
"1834","9643.532"
"1835","9570.748"
"1836","9538.565"
"1837","9579.886"
"1838","9620.554"
"1839","9580.167"
"1840","9484.179"
"1841","9436.471"
"1842","9505.633"
"1843","9616.278"
"1844","9660.304"
"1845","9610.921"
"1846","9544.001"
"1847","9531.05"
"1848","9564.986"
"1849","9604.81"
"1850","9620.167"
"1851","9603.713"
"1852","9552.563"
"1853","9484.624"
"1854","9432.839"
"1855","9421.707"
"1856","9443.798"
"1857","9484.226"
"1858","9521.873"
"1859","9528.426"
"1860","9484.063"
"1861","9423.613"
"1862","9402.285"
"1863","9440.215"
"1864","9494.084"
"1865","9518.033"
"1866","9510.487"
"1867","9496.273"
"1868","9493.13"
"1869","9497.679"
"1870","9503.052"
"1871","9506.498"
"1872","9508.966"
"1873","9509.262"
"1874","9496.266"
"1875","9456.802"
"1876","9405.421"
"1877","9392.93"
"1878","9459.839"
"1879","9559.979"
"1880","9611.71"
"1881","9580.945"
"1882","9523.13"
"1883","9498.35"
"1884","9511.009"
"1885","9532.603"
"1886","9538.044"
"1887","9512.671"
"1888","9445.985"
"1889","9367.986"
"1890","9341.65"
"1891","9402.59"
"1892","9480.171"
"1893","9482.401"
"1894","9415.47"
"1895","9392.188"
"1896","9497.971"
"1897","9648.723"
"1898","9707.88"
"1899","9636.381"
"1900","9533.266"
"1901","9492.554"
"1902","9499.347"
"1903","9493.036"
"1904","9448.049"
"1905","9402.524"
"1906","9396.315"
"1907","9422.499"
"1908","9449.052"
"1909","9454.615"
"1910","9442.672"
"1911","9420.964"
"1912","9407.235"
"1913","9425.858"
"1914","9484.378"
"1915","9543.146"
"1916","9557.148"
"1917","9526.838"
"1918","9488.628"
"1919","9470.727"
"1920","9470.273"
"1921","9477.623"
"1922","9477.375"
"1923","9448.819"
"1924","9385.687"
"1925","9339.223"
"1926","9371.703"
"1927","9464.759"
"1928","9515.708"
"1929","9451.582"
"1930","9351.28"
"1931","9333.076"
"1932","9412.571"
"1933","9486.377"
"1934","9470.595"
"1935","9412.525"
"1936","9398.438"
"1937","9447.943"
"1938","9497.054"
"1939","9488.84"
"1940","9433.554"
"1941","9363.864"
"1942","9309.64"
"1943","9296.975"
"1944","9342.614"
"1945","9411.66"
"1946","9451.872"
"1947","9447.568"
"1948","9432.945"
"1949","9437.635"
"1950","9443.814"
"1951","9417.436"
"1952","9357.675"
"1953","9309.32"
"1954","9310.813"
"1955","9344.828"
"1956","9374.78"
"1957","9387.154"
"1958","9399.55"
"1959","9425.614"
"1960","9444.896"
"1961","9426.004"
"1962","9367.9"
"1963","9308.695"
"1964","9282.86"
"1965","9292.027"
"1966","9327.077"
"1967","9372.953"
"1968","9407.469"
"1969","9411.678"
"1970","9384.282"
"1971","9329.758"
"1972","9268.141"
"1973","9236.596"
"1974","9255.952"
"1975","9274.333"
"1976","9224.446"
"1977","9124.9"
"1978","9078.855"
"1979","9153.431"
"1980","9270.801"
"1981","9324.761"
"1982","9294.947"
"1983","9234.635"
"1984","9187.458"
"1985","9159.702"
"1986","9150.313"
"1987","9155.287"
"1988","9168.452"
"1989","9184.57"
"1990","9200.925"
"1991","9214.958"
"1992","9221.708"
"1993","9214.803"
"1994","9194.064"
"1995","9172.119"
"1996","9162.324"
"1997","9170.809"
"1998","9200.002"
"1999","9239.116"
"2000","9255.792"
"2001","9221.622"
"2002","9145.438"
"2003","9050.542"
"2004","8971.655"
"2005","8958.014"
"2006","9038.58"
"2007","9144.783"
"2008","9183.203"
"2009","9132.901"
"2010","9044.102"
"2011","8963.08"
"2012","8912.462"
"2013","8908.8"
"2014","8951.122"
"2015","9025.533"
"2016","9106.396"
"2017","9140.971"
"2018","9082.905"
"2019","8981.84"
"2020","8937.928"
"2021","8980.27"
"2022","9016.265"
"2023","8966.554"
"2024","8904.681"
"2025","8957.313"
"2026","9113.969"
"2027","9199.814"
"2028","9089.853"
"2029","8898.508"
"2030","8792.436"
"2031","8805.01"
"2032","8859.136"
"2033","8897.022"
"2034","8920.31"
"2035","8939.174"
"2036","8954.108"
"2037","8960.28"
"2038","8958.499"
"2039","8959.245"
"2040","8969.879"
"2041","8974.151"
"2042","8947.97"
"2043","8885.295"
"2044","8800.097"
"2045","8714.359"
"2046","8674.097"
"2047","8724.932"
"2048","8835.751"
"2049","8921.263"
"2050","8930.688"
"2051","8888.729"
"2052","8828.282"
"2053","8771.842"
"2054","8737.107"
"2055","8728.791"
"2056","8734.884"
"2057","8742.84"
"2058","8742.502"
"2059","8725.2"
"2060","8696.158"
"2061","8671.385"
"2062","8657"
"2063","8636.04"
"2064","8594.016"
"2065","8559.063"
"2066","8577.327"
"2067","8640.681"
"2068","8670.174"
"2069","8613.296"
"2070","8541.346"
"2071","8548.374"
"2072","8613.814"
"2073","8631.91"
"2074","8557.786"
"2075","8479.12"
"2076","8481.677"
"2077","8525.245"
"2078","8520.555"
"2079","8452.934"
"2080","8393.698"
"2081","8396.96"
"2082","8443.346"
"2083","8498.818"
"2084","8536.333"
"2085","8533.438"
"2086","8491.466"
"2087","8451.959"
"2088","8448.587"
"2089","8454.802"
"2090","8427.173"
"2091","8363.794"
"2092","8299.587"
"2093","8258.381"
"2094","8233.928"
"2095","8218.754"
"2096","8229.313"
"2097","8291.219"
"2098","8377.645"
"2099","8398.684"
"2100","8302.524"
"2101","8176.982"
"2102","8129.788"
"2103","8170.094"
"2104","8248.231"
"2105","8312.403"
"2106","8308.909"
"2107","8210.838"
"2108","8109.649"
"2109","8119.142"
"2110","8204.79"
"2111","8221.624"
"2112","8113.118"
"2113","7998.868"
"2114","7990.153"
"2115","8040.995"
"2116","8056.042"
"2117","8020.173"
"2118","7990.007"
"2119","8002.611"
"2120","8044.252"
"2121","8092.7"
"2122","8116.936"
"2123","8084.655"
"2124","8018.724"
"2125","7998.125"
"2126","8058.585"
"2127","8116.93"
"2128","8085.772"
"2129","7988.146"
"2130","7894.939"
"2131","7841.852"
"2132","7825.319"
"2133","7831.313"
"2134","7822.389"
"2135","7763.943"
"2136","7676.341"
"2137","7605.107"
"2138","7573.815"
"2139","7580.623"
"2140","7619.104"
"2141","7673.795"
"2142","7726.622"
"2143","7752.268"
"2144","7722.935"
"2145","7640.975"
"2146","7543.107"
"2147","7467.91"
"2148","7453.526"
"2149","7526.745"
"2150","7629.013"
"2151","7665.896"
"2152","7622.652"
"2153","7570.639"
"2154","7554.379"
"2155","7537.772"
"2156","7481.512"
"2157","7412.075"
"2158","7381.451"
"2159","7401.565"
"2160","7445.155"
"2161","7488.071"
"2162","7517.159"
"2163","7520.186"
"2164","7481.918"
"2165","7388.034"
"2166","7259.473"
"2167","7146.843"
"2168","7084.408"
"2169","7072.976"
"2170","7102.213"
"2171","7127.272"
"2172","7098.621"
"2173","7040.199"
"2174","7026.314"
"2175","7071.289"
"2176","7094.304"
"2177","7039.287"
"2178","6972.077"
"2179","6975.625"
"2180","7028.096"
"2181","7051.689"
"2182","7023.592"
"2183","6988.396"
"2184","6974.268"
"2185","6953.213"
"2186","6894.571"
"2187","6813.829"
"2188","6744.868"
"2189","6711.309"
"2190","6727.235"
"2191","6782.114"
"2192","6817.756"
"2193","6786.118"
"2194","6711.741"
"2195","6638.948"
"2196","6599.939"
"2197","6618.053"
"2198","6667.414"
"2199","6655.022"
"2200","6542.655"
"2201","6472.217"
"2202","6582.85"
"2203","6750.211"
"2204","6745.933"
"2205","6553.875"
"2206","6353.899"
"2207","6264.386"
"2208","6269.65"
"2209","6335.085"
"2210","6410.871"
"2211","6446.153"
"2212","6424.524"
"2213","6350.481"
"2214","6244.693"
"2215","6147.257"
"2216","6097.877"
"2217","6131.797"
"2218","6259.751"
"2219","6355.728"
"2220","6260.091"
"2221","6034.623"
"2222","5904.146"
"2223","5960.297"
"2224","6088.188"
"2225","6172.327"
"2226","6150.229"
"2227","5992.631"
"2228","5831.374"
"2229","5854.302"
"2230","6008.762"
"2231","6035.485"
"2232","5847.936"
"2233","5668.633"
"2234","5671.102"
"2235","5742.486"
"2236","5727.25"
"2237","5640.899"
"2238","5575.863"
"2239","5543.093"
"2240","5477.484"
"2241","5361.279"
"2242","5268.437"
"2243","5252.852"
"2244","5256.337"
"2245","5206.756"
"2246","5132.244"
"2247","5106.478"
"2248","5142.295"
"2249","5195.231"
"2250","5214.971"
"2251","5144.912"
"2252","4963.113"
"2253","4774.819"
"2254","4695.671"
"2255","4701.272"
"2256","4706.282"
"2257","4681.065"
"2258","4644.573"
"2259","4599.418"
"2260","4518.876"
"2261","4395.203"
"2262","4289.702"
"2263","4264.324"
"2264","4294.89"
"2265","4323.394"
"2266","4300.973"
"2267","4187.277"
"2268","4014.225"
"2269","3913.529"
"2270","3948.922"
"2271","3987.098"
"2272","3898.883"
"2273","3741.987"
"2274","3625.237"
"2275","3560.577"
"2276","3502.036"
"2277","3429.311"
"2278","3351.228"
"2279","3275.424"
"2280","3204.143"
"2281","3144.456"
"2282","3123.94"
"2283","3161.907"
"2284","3179.705"
"2285","3063.501"
"2286","2849.65"
"2287","2694.658"
"2288","2646.073"
"2289","2589.832"
"2290","2457.005"
"2291","2328.7"
"2292","2286.915"
"2293","2299.34"
"2294","2300.488"
"2295","2242.699"
"2296","2091.937"
"2297","1897.157"
"2298","1786.67"
"2299","1788.456"
"2300","1755.479"
