,"Scan 00882"
"400","9178.779"
"401","9024.868"
"402","8756.429"
"403","8395.624"
"404","7964.47"
"405","7485.821"
"406","6990.925"
"407","6515.169"
"408","6093.712"
"409","5761.128"
"410","5547.527"
"411","5479.859"
"412","5584.81"
"413","5886.221"
"414","6353.174"
"415","6903.759"
"416","7454.688"
"417","7924.702"
"418","8283.102"
"419","8561.296"
"420","8794.32"
"421","9016.658"
"422","9242.985"
"423","9456.217"
"424","9636.506"
"425","9764.225"
"426","9832.548"
"427","9861.252"
"428","9873.326"
"429","9891.574"
"430","9928.852"
"431","9971.443"
"432","10001.3"
"433","10000.5"
"434","9960.004"
"435","9901.181"
"436","9851.818"
"437","9839.523"
"438","9882.644"
"439","9959.663"
"440","10038.31"
"441","10086.55"
"442","10079.5"
"443","10030.68"
"444","9966.497"
"445","9913.221"
"446","9893.802"
"447","9909.864"
"448","9954.25"
"449","10019.81"
"450","10098.93"
"451","10179.58"
"452","10247.66"
"453","10289.11"
"454","10291.41"
"455","10256.35"
"456","10193.95"
"457","10114.24"
"458","10027.5"
"459","9947.38"
"460","9889.742"
"461","9870.389"
"462","9903.339"
"463","9978.354"
"464","10067.08"
"465","10140.92"
"466","10172.81"
"467","10159.03"
"468","10115.34"
"469","10057.96"
"470","10002.82"
"471","9961.894"
"472","9943.464"
"473","9955.649"
"474","10005.77"
"475","10084.23"
"476","10164.64"
"477","10220.06"
"478","10224.6"
"479","10175.89"
"480","10096.47"
"481","10009.93"
"482","9939.304"
"483","9895.956"
"484","9878.193"
"485","9883.649"
"486","9909.727"
"487","9946.307"
"488","9974.528"
"489","9975.144"
"490","9929.675"
"491","9841.087"
"492","9737.899"
"493","9649.971"
"494","9606.294"
"495","9612.821"
"496","9647.721"
"497","9687.623"
"498","9709.661"
"499","9703.218"
"500","9672.415"
"501","9622.234"
"502","9557.656"
"503","9484.702"
"504","9410.622"
"505","9342.709"
"506","9288.139"
"507","9252.041"
"508","9237.19"
"509","9246.211"
"510","9281.324"
"511","9333.718"
"512","9382.382"
"513","9405.779"
"514","9383.312"
"515","9314.932"
"516","9222.103"
"517","9127.192"
"518","9051.583"
"519","8997.433"
"520","8948.119"
"521","8886.313"
"522","8795.747"
"523","8678.931"
"524","8555.268"
"525","8444.667"
"526","8366.283"
"527","8328.312"
"528","8329.978"
"529","8370.246"
"530","8447.327"
"531","8548.758"
"532","8654.25"
"533","8743.439"
"534","8797.873"
"535","8820.485"
"536","8828.094"
"537","8837.673"
"538","8863.836"
"539","8898.755"
"540","8921.937"
"541","8912.839"
"542","8855.215"
"543","8767.03"
"544","8682.787"
"545","8636.919"
"546","8657.231"
"547","8728.143"
"548","8816.424"
"549","8888.954"
"550","8918.417"
"551","8908.346"
"552","8872.66"
"553","8825.221"
"554","8778.202"
"555","8736.594"
"556","8703.41"
"557","8681.652"
"558","8673.072"
"559","8675.119"
"560","8684.312"
"561","8697.192"
"562","8711.235"
"563","8726.463"
"564","8743.336"
"565","8762.309"
"566","8784.306"
"567","8811.256"
"568","8845.215"
"569","8888.139"
"570","8935.124"
"571","8969.782"
"572","8974.693"
"573","8933.076"
"574","8850.224"
"575","8760.097"
"576","8698.432"
"577","8699.254"
"578","8760.472"
"579","8843.941"
"580","8910.109"
"581","8922.25"
"582","8882.841"
"583","8824.075"
"584","8778.75"
"585","8776.071"
"586","8811.218"
"587","8860.134"
"588","8898.655"
"589","8905.782"
"590","8881.296"
"591","8833.526"
"592","8770.789"
"593","8701.898"
"594","8638.138"
"595","8591.467"
"596","8573.792"
"597","8591.283"
"598","8631.762"
"599","8679.423"
"600","8718.555"
"601","8740.088"
"602","8749.58"
"603","8754.532"
"604","8762.287"
"605","8772.68"
"606","8774.036"
"607","8753.742"
"608","8699.974"
"609","8620.239"
"610","8542.664"
"611","8496.278"
"612","8507.489"
"613","8567.52"
"614","8641.813"
"615","8695.34"
"616","8697.742"
"617","8656.373"
"618","8597.145"
"619","8546.005"
"620","8523.795"
"621","8525.569"
"622","8538.169"
"623","8548.478"
"624","8545.116"
"625","8522.126"
"626","8474.655"
"627","8397.901"
"628","8291.882"
"629","8166.339"
"630","8032.141"
"631","7900.105"
"632","7780.285"
"633","7681.769"
"634","7613.552"
"635","7584.255"
"636","7596.663"
"637","7648.753"
"638","7738.368"
"639","7861.986"
"640","8004.087"
"641","8142.979"
"642","8256.983"
"643","8328.479"
"644","8359.705"
"645","8359.043"
"646","8334.852"
"647","8297.793"
"648","8265.202"
"649","8255.549"
"650","8287.013"
"651","8359.439"
"652","8441.747"
"653","8499.959"
"654","8501.555"
"655","8446.218"
"656","8366.268"
"657","8295.379"
"658","8264.39"
"659","8274.947"
"660","8311.132"
"661","8356.82"
"662","8397.698"
"663","8429.179"
"664","8450.006"
"665","8458.94"
"666","8458.014"
"667","8458.97"
"668","8475.319"
"669","8520.32"
"670","8592.348"
"671","8665.326"
"672","8710.986"
"673","8702.253"
"674","8634.973"
"675","8526.336"
"676","8394.307"
"677","8255.089"
"678","8109.843"
"679","7951.91"
"680","7774.581"
"681","7575.737"
"682","7373.262"
"683","7190.468"
"684","7050.564"
"685","6968.278"
"686","6939.431"
"687","6957.275"
"688","7015.175"
"689","7109.116"
"690","7238.225"
"691","7401.815"
"692","7597.857"
"693","7808.782"
"694","8007.059"
"695","8165.062"
"696","8261.835"
"697","8311.183"
"698","8338.249"
"699","8368.097"
"700","8414.946"
"701","8465.662"
"702","8502.866"
"703","8509.643"
"704","8484.976"
"705","8448.218"
"706","8420.018"
"707","8419.351"
"708","8445.727"
"709","8485.852"
"710","8526.233"
"711","8555.75"
"712","8575.328"
"713","8589.748"
"714","8603.774"
"715","8618.718"
"716","8627.769"
"717","8622.951"
"718","8596.678"
"719","8552.438"
"720","8506.468"
"721","8475.677"
"722","8474.998"
"723","8500.391"
"724","8537.125"
"725","8570.39"
"726","8588.317"
"727","8591.123"
"728","8582.113"
"729","8564.599"
"730","8544.228"
"731","8530.912"
"732","8535.012"
"733","8566.049"
"734","8618.803"
"735","8675.238"
"736","8716.932"
"737","8728.692"
"738","8716.229"
"739","8693.587"
"740","8674.795"
"741","8667.104"
"742","8659.438"
"743","8637.658"
"744","8588.207"
"745","8515.998"
"746","8448.273"
"747","8413.565"
"748","8436.354"
"749","8503.171"
"750","8579.736"
"751","8631.61"
"752","8636.014"
"753","8612.735"
"754","8591.26"
"755","8600.683"
"756","8648.916"
"757","8711.407"
"758","8760.882"
"759","8772.411"
"760","8749.786"
"761","8716.244"
"762","8695.362"
"763","8705.101"
"764","8738.451"
"765","8781.446"
"766","8820.188"
"767","8844.665"
"768","8851.77"
"769","8839.106"
"770","8805.178"
"771","8761.647"
"772","8730.135"
"773","8732.489"
"774","8783.21"
"775","8860.891"
"776","8933.174"
"777","8967.906"
"778","8951.103"
"779","8902.74"
"780","8846.501"
"781","8805.081"
"782","8786.729"
"783","8788.54"
"784","8807.313"
"785","8838.275"
"786","8869.006"
"787","8884.788"
"788","8871.081"
"789","8827.711"
"790","8780.253"
"791","8756.939"
"792","8783.529"
"793","8852.604"
"794","8932.896"
"795","8992.628"
"796","9007.528"
"797","8985.433"
"798","8942.816"
"799","8896.093"
"800","8858.841"
"801","8840.225"
"802","8849.015"
"803","8892.385"
"804","8960.305"
"805","9032.256"
"806","9087.584"
"807","9112.429"
"808","9116.404"
"809","9114.188"
"810","9120.071"
"811","9134.71"
"812","9141.703"
"813","9123.578"
"814","9067.063"
"815","8991.746"
"816","8932.66"
"817","8924.857"
"818","8983.338"
"819","9072.322"
"820","9148.126"
"821","9169.047"
"822","9132.48"
"823","9071.852"
"824","9021.915"
"825","9010.709"
"826","9031.219"
"827","9065.014"
"828","9093.779"
"829","9107.656"
"830","9111.358"
"831","9111.029"
"832","9112.157"
"833","9113.007"
"834","9107.373"
"835","9088.979"
"836","9055.93"
"837","9020.411"
"838","8997.439"
"839","9001.549"
"840","9034.396"
"841","9083.608"
"842","9136.092"
"843","9179.912"
"844","9210.05"
"845","9224.071"
"846","9219.581"
"847","9198.631"
"848","9171.511"
"849","9149.412"
"850","9142.855"
"851","9154.706"
"852","9182.945"
"853","9225.482"
"854","9276.679"
"855","9319.718"
"856","9335.585"
"857","9306.297"
"858","9238.487"
"859","9163.968"
"860","9115.67"
"861","9118.779"
"862","9157.379"
"863","9202.008"
"864","9223.502"
"865","9211.446"
"866","9185.106"
"867","9166.353"
"868","9174.229"
"869","9202.984"
"870","9234.03"
"871","9248.711"
"872","9238.101"
"873","9216.628"
"874","9202.154"
"875","9211.679"
"876","9249.53"
"877","9310.354"
"878","9388.557"
"879","9476.076"
"880","9555.99"
"881","9609.384"
"882","9618.129"
"883","9584.55"
"884","9533.003"
"885","9488.931"
"886","9472.463"
"887","9475.951"
"888","9482.716"
"889","9476.346"
"890","9455.17"
"891","9439.132"
"892","9449.901"
"893","9504.74"
"894","9588.339"
"895","9670.774"
"896","9722.194"
"897","9728.325"
"898","9705.232"
"899","9672.477"
"900","9648.277"
"901","9637.122"
"902","9635.427"
"903","9639.509"
"904","9645.833"
"905","9651.229"
"906","9652.58"
"907","9647.177"
"908","9638.034"
"909","9632.389"
"910","9637.564"
"911","9658.259"
"912","9690.87"
"913","9730.154"
"914","9770.898"
"915","9808.384"
"916","9838.332"
"917","9856.479"
"918","9859.323"
"919","9846.288"
"920","9817.493"
"921","9773.399"
"922","9722.588"
"923","9682.094"
"924","9669.34"
"925","9695.816"
"926","9746.338"
"927","9798.22"
"928","9829.272"
"929","9833.098"
"930","9821.81"
"931","9808.567"
"932","9804.432"
"933","9809.732"
"934","9821.413"
"935","9836.417"
"936","9852.069"
"937","9866.187"
"938","9876.611"
"939","9880.806"
"940","9874.127"
"941","9851.206"
"942","9806.927"
"943","9747.275"
"944","9693.284"
"945","9667.065"
"946","9685.613"
"947","9736.254"
"948","9795.64"
"949","9840.741"
"950","9863.597"
"951","9877.226"
"952","9896.197"
"953","9930.436"
"954","9962.672"
"955","9965.758"
"956","9913.215"
"957","9809.501"
"958","9701.758"
"959","9640.271"
"960","9663.457"
"961","9741.998"
"962","9822.605"
"963","9852.918"
"964","9820.341"
"965","9765.095"
"966","9731.054"
"967","9752.398"
"968","9811.343"
"969","9872.783"
"970","9902.329"
"971","9891.65"
"972","9864.681"
"973","9847.368"
"974","9858"
"975","9877.626"
"976","9876.026"
"977","9823.894"
"978","9718.561"
"979","9587.226"
"980","9458.673"
"981","9357.055"
"982","9286.781"
"983","9247.017"
"984","9236.85"
"985","9253.654"
"986","9293.111"
"987","9350.83"
"988","9422.212"
"989","9501.907"
"990","9584.399"
"991","9664.095"
"992","9734.211"
"993","9786.962"
"994","9814.529"
"995","9814.171"
"996","9798.133"
"997","9781.43"
"998","9778.196"
"999","9791.344"
"1000","9815.982"
"1001","9847.069"
"1002","9879.745"
"1003","9909.596"
"1004","9932.271"
"1005","9943.409"
"1006","9939.849"
"1007","9926.4"
"1008","9911.165"
"1009","9902.144"
"1010","9901.72"
"1011","9904.202"
"1012","9903.275"
"1013","9895.195"
"1014","9890.235"
"1015","9903.406"
"1016","9949.157"
"1017","10023.7"
"1018","10101.8"
"1019","10157.02"
"1020","10169.5"
"1021","10147.33"
"1022","10105.99"
"1023","10060.66"
"1024","10020.91"
"1025","9991.045"
"1026","9975.195"
"1027","9975.701"
"1028","9989.288"
"1029","10011.57"
"1030","10038.32"
"1031","10067.38"
"1032","10098.07"
"1033","10129.72"
"1034","10160.84"
"1035","10188.09"
"1036","10207.9"
"1037","10217.13"
"1038","10216.58"
"1039","10209.06"
"1040","10197.38"
"1041","10183.39"
"1042","10167.37"
"1043","10149.47"
"1044","10130.85"
"1045","10118.28"
"1046","10120.45"
"1047","10145.65"
"1048","10190.37"
"1049","10238.23"
"1050","10272.16"
"1051","10280.66"
"1052","10271.91"
"1053","10258.41"
"1054","10252.18"
"1055","10258.04"
"1056","10275.67"
"1057","10304.57"
"1058","10341.87"
"1059","10379.44"
"1060","10408.44"
"1061","10421.4"
"1062","10421.33"
"1063","10415.93"
"1064","10412.83"
"1065","10413.3"
"1066","10410.11"
"1067","10395.4"
"1068","10365.04"
"1069","10330.5"
"1070","10307.38"
"1071","10310.39"
"1072","10339.96"
"1073","10385"
"1074","10434.03"
"1075","10476.46"
"1076","10503.65"
"1077","10507.25"
"1078","10481.13"
"1079","10436.13"
"1080","10390.91"
"1081","10363.88"
"1082","10361.68"
"1083","10375.67"
"1084","10396.16"
"1085","10414.59"
"1086","10426.57"
"1087","10428.74"
"1088","10418.23"
"1089","10399.09"
"1090","10380.2"
"1091","10370.55"
"1092","10374.77"
"1093","10389.11"
"1094","10408.86"
"1095","10429.71"
"1096","10449.72"
"1097","10467.8"
"1098","10482.72"
"1099","10489.65"
"1100","10480.24"
"1101","10446.01"
"1102","10387.29"
"1103","10327.89"
"1104","10295.52"
"1105","10313.35"
"1106","10368"
"1107","10428.4"
"1108","10463.86"
"1109","10461.06"
"1110","10428.63"
"1111","10376.59"
"1112","10316.88"
"1113","10267.83"
"1114","10249.17"
"1115","10277.63"
"1116","10339.28"
"1117","10402.14"
"1118","10434.42"
"1119","10427.03"
"1120","10404.46"
"1121","10393.9"
"1122","10414.5"
"1123","10453.49"
"1124","10490.27"
"1125","10506.1"
"1126","10504.59"
"1127","10503.91"
"1128","10522.25"
"1129","10559.46"
"1130","10586.24"
"1131","10570.63"
"1132","10494.14"
"1133","10394.17"
"1134","10322.69"
"1135","10326.77"
"1136","10393.47"
"1137","10469.98"
"1138","10503.25"
"1139","10474.57"
"1140","10419.47"
"1141","10378.25"
"1142","10379.42"
"1143","10404.46"
"1144","10423.12"
"1145","10408.32"
"1146","10368.18"
"1147","10332.72"
"1148","10331.89"
"1149","10376.26"
"1150","10448.54"
"1151","10529.26"
"1152","10600.72"
"1153","10651.25"
"1154","10670.46"
"1155","10650.13"
"1156","10601.51"
"1157","10546.22"
"1158","10505.58"
"1159","10487.61"
"1160","10484.32"
"1161","10486.8"
"1162","10490.14"
"1163","10500.47"
"1164","10525.81"
"1165","10570.99"
"1166","10619.46"
"1167","10645.77"
"1168","10625.99"
"1169","10567.85"
"1170","10508.32"
"1171","10485.34"
"1172","10516.54"
"1173","10578.62"
"1174","10643.42"
"1175","10687.28"
"1176","10707.87"
"1177","10709.08"
"1178","10694.83"
"1179","10669.41"
"1180","10637.37"
"1181","10603.21"
"1182","10569.32"
"1183","10535.15"
"1184","10499.99"
"1185","10468.04"
"1186","10458.19"
"1187","10492.04"
"1188","10584.08"
"1189","10700.51"
"1190","10787.36"
"1191","10793.62"
"1192","10724.05"
"1193","10631.88"
"1194","10571.66"
"1195","10570.42"
"1196","10606.57"
"1197","10653.58"
"1198","10688.66"
"1199","10703.32"
"1200","10692.37"
"1201","10653.73"
"1202","10611.43"
"1203","10602.59"
"1204","10662.38"
"1205","10778.18"
"1206","10889.75"
"1207","10935.02"
"1208","10889.75"
"1209","10803.84"
"1210","10735.78"
"1211","10728.62"
"1212","10762.7"
"1213","10802.45"
"1214","10815.99"
"1215","10803.97"
"1216","10783.78"
"1217","10772.44"
"1218","10773.66"
"1219","10778.11"
"1220","10775.95"
"1221","10765.85"
"1222","10762.48"
"1223","10782.22"
"1224","10833.7"
"1225","10896.76"
"1226","10944.63"
"1227","10954.51"
"1228","10933.96"
"1229","10904.39"
"1230","10886.22"
"1231","10881.47"
"1232","10876.55"
"1233","10857.59"
"1234","10823.86"
"1235","10794.85"
"1236","10791.79"
"1237","10825.4"
"1238","10876.5"
"1239","10920.58"
"1240","10936.43"
"1241","10921.37"
"1242","10879.06"
"1243","10814.53"
"1244","10748.13"
"1245","10709.83"
"1246","10728.69"
"1247","10804.62"
"1248","10905.46"
"1249","10997.53"
"1250","11061.49"
"1251","11105.51"
"1252","11140.92"
"1253","11172.95"
"1254","11185.82"
"1255","11159.2"
"1256","11079.93"
"1257","10980.73"
"1258","10912.43"
"1259","10921"
"1260","10990.53"
"1261","11063.02"
"1262","11081.26"
"1263","11037.15"
"1264","10978.46"
"1265","10955.78"
"1266","10988.7"
"1267","11038"
"1268","11057.85"
"1269","11021.56"
"1270","10964.94"
"1271","10936.48"
"1272","10973.21"
"1273","11046.66"
"1274","11105.19"
"1275","11102.96"
"1276","11054.5"
"1277","11009.83"
"1278","11017.2"
"1279","11077.93"
"1280","11149.02"
"1281","11186.21"
"1282","11171.84"
"1283","11128.09"
"1284","11080.4"
"1285","11046.18"
"1286","11023.57"
"1287","11007.86"
"1288","10995.02"
"1289","10983.55"
"1290","10972.6"
"1291","10962.5"
"1292","10961.5"
"1293","10980.95"
"1294","11030.64"
"1295","11102.36"
"1296","11176.61"
"1297","11234.17"
"1298","11265.34"
"1299","11269.44"
"1300","11246.26"
"1301","11201.26"
"1302","11147.91"
"1303","11100.31"
"1304","11069.8"
"1305","11061.76"
"1306","11080.79"
"1307","11126.05"
"1308","11178.63"
"1309","11215.91"
"1310","11219.88"
"1311","11196.34"
"1312","11158.71"
"1313","11119.61"
"1314","11085.27"
"1315","11058.86"
"1316","11043.17"
"1317","11036.37"
"1318","11033.44"
"1319","11029.56"
"1320","11026.49"
"1321","11032.55"
"1322","11056.05"
"1323","11091.4"
"1324","11113.49"
"1325","11095.89"
"1326","11032.7"
"1327","10958.98"
"1328","10914.61"
"1329","10919.85"
"1330","10939.13"
"1331","10927.06"
"1332","10852.69"
"1333","10744.23"
"1334","10644.97"
"1335","10577.9"
"1336","10447.24"
"1337","10114.15"
"1338","9465.81"
"1339","8610.332"
"1340","7766.787"
"1341","7143.365"
"1342","6799.94"
"1343","6695.58"
"1344","6788.172"
"1345","7050.716"
"1346","7469.885"
"1347","8031.533"
"1348","8679.727"
"1349","9308.663"
"1350","9810.579"
"1351","10141.87"
"1352","10359.21"
"1353","10527.91"
"1354","10687.6"
"1355","10825.42"
"1356","10922.09"
"1357","10968.15"
"1358","10980.44"
"1359","10980.21"
"1360","10983.99"
"1361","10991.68"
"1362","10999.55"
"1363","11004.7"
"1364","11008.23"
"1365","11012.36"
"1366","11019.07"
"1367","11028.83"
"1368","11041.57"
"1369","11056.94"
"1370","11072.65"
"1371","11085.49"
"1372","11092.05"
"1373","11087.36"
"1374","11065.49"
"1375","11022.4"
"1376","10979.48"
"1377","10976.28"
"1378","11049.23"
"1379","11171.5"
"1380","11261.56"
"1381","11239.42"
"1382","11108.68"
"1383","10959.71"
"1384","10885.02"
"1385","10909.16"
"1386","10972.75"
"1387","11011.94"
"1388","11000.86"
"1389","10969.09"
"1390","10950.38"
"1391","10959.88"
"1392","10980.83"
"1393","10993.38"
"1394","10987.16"
"1395","10970.87"
"1396","10955.43"
"1397","10946.33"
"1398","10936.35"
"1399","10916.47"
"1400","10884.56"
"1401","10856.92"
"1402","10852.91"
"1403","10880.25"
"1404","10910.6"
"1405","10908.71"
"1406","10856.85"
"1407","10798.99"
"1408","10792.68"
"1409","10873.9"
"1410","10992.87"
"1411","11078.48"
"1412","11079"
"1413","11029.17"
"1414","10987.71"
"1415","10999.16"
"1416","11037.53"
"1417","11055.12"
"1418","11014.02"
"1419","10929.52"
"1420","10834.93"
"1421","10760.87"
"1422","10721.97"
"1423","10727.01"
"1424","10780.46"
"1425","10859.52"
"1426","10930.61"
"1427","10965.21"
"1428","10969.82"
"1429","10965.65"
"1430","10971.74"
"1431","10991.15"
"1432","11019.84"
"1433","11053.53"
"1434","11086.29"
"1435","11111.42"
"1436","11123.22"
"1437","11124.11"
"1438","11120.34"
"1439","11118.09"
"1440","11122.39"
"1441","11137.73"
"1442","11167.24"
"1443","11202.62"
"1444","11229.86"
"1445","11237.01"
"1446","11229.94"
"1447","11223.51"
"1448","11231.38"
"1449","11256.83"
"1450","11297.91"
"1451","11349.91"
"1452","11385.49"
"1453","11365.99"
"1454","11261.03"
"1455","11108.42"
"1456","10979.36"
"1457","10934.62"
"1458","10950.02"
"1459","10960.98"
"1460","10913.65"
"1461","10838.25"
"1462","10803.58"
"1463","10864.04"
"1464","10967.64"
"1465","11015.61"
"1466","10927.05"
"1467","10744.31"
"1468","10561.16"
"1469","10459.92"
"1470","10448.75"
"1471","10506.75"
"1472","10609.06"
"1473","10708.05"
"1474","10747.77"
"1475","10689.13"
"1476","10584.18"
"1477","10515.61"
"1478","10544"
"1479","10621.39"
"1480","10666.54"
"1481","10620.1"
"1482","10519.62"
"1483","10429.43"
"1484","10399.4"
"1485","10422.09"
"1486","10475.93"
"1487","10537.43"
"1488","10576.44"
"1489","10561.33"
"1490","10481.78"
"1491","10392.91"
"1492","10362.38"
"1493","10423.1"
"1494","10514.68"
"1495","10561.31"
"1496","10520.13"
"1497","10425.04"
"1498","10320.85"
"1499","10242.24"
"1500","10203.57"
"1501","10216.57"
"1502","10275.19"
"1503","10342.77"
"1504","10380.08"
"1505","10375.93"
"1506","10360.44"
"1507","10366.25"
"1508","10397.69"
"1509","10423.59"
"1510","10411.81"
"1511","10362.42"
"1512","10309.56"
"1513","10287.36"
"1514","10298.89"
"1515","10319.79"
"1516","10326.28"
"1517","10316.36"
"1518","10303.97"
"1519","10302.4"
"1520","10313.73"
"1521","10333.33"
"1522","10355.24"
"1523","10363.51"
"1524","10337.29"
"1525","10260.15"
"1526","10143.75"
"1527","10010.73"
"1528","9870.07"
"1529","9663.752"
"1530","9313.219"
"1531","8772.462"
"1532","8118.669"
"1533","7458.202"
"1534","6884.641"
"1535","6454.25"
"1536","6216.514"
"1537","6199.257"
"1538","6381.937"
"1539","6737.261"
"1540","7223.196"
"1541","7772.427"
"1542","8315.56"
"1543","8802.959"
"1544","9211.135"
"1545","9519.305"
"1546","9729.065"
"1547","9864.708"
"1548","9950.932"
"1549","10002.76"
"1550","10027.77"
"1551","10034.2"
"1552","10038.87"
"1553","10063.64"
"1554","10124.53"
"1555","10196.02"
"1556","10234.77"
"1557","10209.69"
"1558","10150.76"
"1559","10106.96"
"1560","10110.1"
"1561","10131.96"
"1562","10131.19"
"1563","10085.82"
"1564","10021.83"
"1565","9972.319"
"1566","9954.766"
"1567","9959.007"
"1568","9972.209"
"1569","9987.298"
"1570","10004.46"
"1571","10024.33"
"1572","10046.69"
"1573","10070.64"
"1574","10094.78"
"1575","10112.56"
"1576","10114.15"
"1577","10091.98"
"1578","10055.62"
"1579","10022.3"
"1580","10006.61"
"1581","10010.19"
"1582","10030.81"
"1583","10061.82"
"1584","10082.65"
"1585","10070.08"
"1586","10019.08"
"1587","9962.94"
"1588","9939.304"
"1589","9959.01"
"1590","9994.822"
"1591","10017.79"
"1592","10024.97"
"1593","10038.5"
"1594","10078.59"
"1595","10130.97"
"1596","10159.02"
"1597","10133.2"
"1598","10076.08"
"1599","10032.29"
"1600","10034.84"
"1601","10066.21"
"1602","10095.32"
"1603","10100.36"
"1604","10084.28"
"1605","10054.17"
"1606","10018.48"
"1607","9988.074"
"1608","9973.876"
"1609","9982.343"
"1610","10015.02"
"1611","10071.48"
"1612","10128.92"
"1613","10148.71"
"1614","10101.6"
"1615","10029.18"
"1616","10004.4"
"1617","10072.39"
"1618","10158.97"
"1619","10158.27"
"1620","10023.88"
"1621","9859.669"
"1622","9791.61"
"1623","9862.015"
"1624","9984.478"
"1625","10064.86"
"1626","10079.52"
"1627","10071.9"
"1628","10083.91"
"1629","10114.47"
"1630","10137.45"
"1631","10131.45"
"1632","10102.95"
"1633","10067.98"
"1634","10041.4"
"1635","10034.2"
"1636","10056.52"
"1637","10104.62"
"1638","10149.87"
"1639","10161.9"
"1640","10133.36"
"1641","10081.39"
"1642","10024.1"
"1643","9976.827"
"1644","9953.148"
"1645","9963.099"
"1646","9996.223"
"1647","10034.72"
"1648","10065.24"
"1649","10088.23"
"1650","10106.84"
"1651","10121.39"
"1652","10127.4"
"1653","10120.26"
"1654","10104.24"
"1655","10092.36"
"1656","10095.15"
"1657","10095.21"
"1658","10059.48"
"1659","9969.176"
"1660","9876.089"
"1661","9853.417"
"1662","9931.443"
"1663","10031.42"
"1664","10059.01"
"1665","9990.776"
"1666","9901.19"
"1667","9866.584"
"1668","9882.891"
"1669","9884.47"
"1670","9819.333"
"1671","9738.222"
"1672","9734.228"
"1673","9853.803"
"1674","9987.184"
"1675","9993.193"
"1676","9832.688"
"1677","9642.235"
"1678","9569.413"
"1679","9630.542"
"1680","9720.79"
"1681","9743.822"
"1682","9710.88"
"1683","9685.656"
"1684","9710.227"
"1685","9741.542"
"1686","9716.318"
"1687","9614.247"
"1688","9497.115"
"1689","9433.647"
"1690","9438.091"
"1691","9470.743"
"1692","9492.825"
"1693","9493.906"
"1694","9477.987"
"1695","9451.777"
"1696","9432.136"
"1697","9438.302"
"1698","9475.746"
"1699","9524.063"
"1700","9560.672"
"1701","9577.956"
"1702","9582.481"
"1703","9580.469"
"1704","9571.035"
"1705","9549.943"
"1706","9517.876"
"1707","9492.7"
"1708","9495.785"
"1709","9528.662"
"1710","9560.284"
"1711","9558.46"
"1712","9522.044"
"1713","9475.008"
"1714","9441.361"
"1715","9440.641"
"1716","9490.644"
"1717","9585.922"
"1718","9657.38"
"1719","9627.055"
"1720","9494.505"
"1721","9358.606"
"1722","9315.481"
"1723","9358.873"
"1724","9419.681"
"1725","9441.61"
"1726","9429.1"
"1727","9403.285"
"1728","9384.437"
"1729","9391.105"
"1730","9439.92"
"1731","9513.829"
"1732","9565.597"
"1733","9554.947"
"1734","9495.612"
"1735","9423.412"
"1736","9370.644"
"1737","9359.571"
"1738","9409.681"
"1739","9502.39"
"1740","9572.493"
"1741","9558.932"
"1742","9468.808"
"1743","9347.193"
"1744","9236.934"
"1745","9170.678"
"1746","9178.264"
"1747","9257.749"
"1748","9357.11"
"1749","9423.058"
"1750","9445.145"
"1751","9443.064"
"1752","9432.556"
"1753","9407.465"
"1754","9355.298"
"1755","9279.104"
"1756","9211.685"
"1757","9186.9"
"1758","9198.722"
"1759","9207.92"
"1760","9182.967"
"1761","9141.648"
"1762","9118.912"
"1763","9136.325"
"1764","9186.177"
"1765","9256.116"
"1766","9318.837"
"1767","9333.216"
"1768","9269.242"
"1769","9169.434"
"1770","9104.008"
"1771","9110.726"
"1772","9151.304"
"1773","9178.254"
"1774","9181.04"
"1775","9184.738"
"1776","9210.589"
"1777","9245.953"
"1778","9264.958"
"1779","9254.831"
"1780","9233.574"
"1781","9223.161"
"1782","9235.958"
"1783","9275.234"
"1784","9338.349"
"1785","9389.007"
"1786","9378.399"
"1787","9294.305"
"1788","9204.842"
"1789","9184.48"
"1790","9226.675"
"1791","9254.168"
"1792","9207.564"
"1793","9137.225"
"1794","9129.978"
"1795","9218.44"
"1796","9330.469"
"1797","9386.785"
"1798","9380.801"
"1799","9360.979"
"1800","9362.003"
"1801","9350.438"
"1802","9274.519"
"1803","9133.213"
"1804","9006.659"
"1805","8974.176"
"1806","9024.354"
"1807","9089.767"
"1808","9123.171"
"1809","9150.618"
"1810","9212.756"
"1811","9301.877"
"1812","9349.76"
"1813","9297.401"
"1814","9188.735"
"1815","9116.008"
"1816","9130.056"
"1817","9175.785"
"1818","9184.056"
"1819","9138.074"
"1820","9069.525"
"1821","9010.021"
"1822","8980.653"
"1823","8998.881"
"1824","9064.157"
"1825","9144.21"
"1826","9203.828"
"1827","9212.265"
"1828","9141.604"
"1829","8993.203"
"1830","8868.431"
"1831","8886.287"
"1832","9040.299"
"1833","9176.793"
"1834","9162.846"
"1835","9064.717"
"1836","9030.707"
"1837","9125.319"
"1838","9235.552"
"1839","9235.551"
"1840","9139.532"
"1841","9065.48"
"1842","9093.464"
"1843","9147.069"
"1844","9114.448"
"1845","8975.623"
"1846","8826.6"
"1847","8758.575"
"1848","8774.569"
"1849","8839.506"
"1850","8918.071"
"1851","8974.909"
"1852","8977.537"
"1853","8933.981"
"1854","8881.517"
"1855","8854.86"
"1856","8876.794"
"1857","8965.846"
"1858","9092.046"
"1859","9169.51"
"1860","9129.005"
"1861","9023.263"
"1862","8950.648"
"1863","8955.064"
"1864","8981.77"
"1865","8971.899"
"1866","8933.124"
"1867","8912.807"
"1868","8938.085"
"1869","8977.383"
"1870","8990.567"
"1871","8971.983"
"1872","8946.902"
"1873","8937.521"
"1874","8947.425"
"1875","8974.864"
"1876","9008.666"
"1877","9025.355"
"1878","9006.155"
"1879","8969.978"
"1880","8951.145"
"1881","8963.617"
"1882","8982.996"
"1883","8983.262"
"1884","8965.955"
"1885","8948.923"
"1886","8943.039"
"1887","8939.999"
"1888","8929.457"
"1889","8919.649"
"1890","8933.927"
"1891","8980.16"
"1892","9006.617"
"1893","8950.508"
"1894","8829.819"
"1895","8750.262"
"1896","8796.009"
"1897","8916.73"
"1898","9019.871"
"1899","9060.224"
"1900","9059.705"
"1901","9043.377"
"1902","9022.466"
"1903","9002.267"
"1904","8976.981"
"1905","8920.819"
"1906","8812.594"
"1907","8693.149"
"1908","8636.564"
"1909","8672.889"
"1910","8731.547"
"1911","8735.479"
"1912","8698.797"
"1913","8695.929"
"1914","8766.982"
"1915","8853.253"
"1916","8883.525"
"1917","8860.256"
"1918","8844.189"
"1919","8876.347"
"1920","8926.007"
"1921","8948.986"
"1922","8933.39"
"1923","8897.064"
"1924","8856.604"
"1925","8819.156"
"1926","8789.461"
"1927","8769.318"
"1928","8757.454"
"1929","8751.874"
"1930","8748.056"
"1931","8740.945"
"1932","8731.229"
"1933","8726.261"
"1934","8732.544"
"1935","8750.455"
"1936","8778.266"
"1937","8807.174"
"1938","8819.513"
"1939","8801.696"
"1940","8765.244"
"1941","8729.972"
"1942","8709.926"
"1943","8711.501"
"1944","8739.386"
"1945","8791.502"
"1946","8863.081"
"1947","8935.878"
"1948","8973.316"
"1949","8947.021"
"1950","8883.929"
"1951","8830.078"
"1952","8798.882"
"1953","8758.98"
"1954","8685.624"
"1955","8610.693"
"1956","8585.308"
"1957","8621.176"
"1958","8676.915"
"1959","8710.759"
"1960","8700.199"
"1961","8630.401"
"1962","8530.168"
"1963","8484.512"
"1964","8555.954"
"1965","8670.356"
"1966","8712.001"
"1967","8654.663"
"1968","8580.118"
"1969","8558.419"
"1970","8572.733"
"1971","8581.511"
"1972","8569.732"
"1973","8551.66"
"1974","8541.466"
"1975","8546.433"
"1976","8571.519"
"1977","8609.422"
"1978","8640.781"
"1979","8649.757"
"1980","8635.414"
"1981","8600.827"
"1982","8560.172"
"1983","8537.15"
"1984","8546.041"
"1985","8571.07"
"1986","8591.48"
"1987","8597.941"
"1988","8589.431"
"1989","8561.041"
"1990","8497.56"
"1991","8387.474"
"1992","8276.248"
"1993","8243.64"
"1994","8327.74"
"1995","8479.754"
"1996","8640.084"
"1997","8749.828"
"1998","8751.104"
"1999","8645.365"
"2000","8531.199"
"2001","8498.7"
"2002","8528.58"
"2003","8560.823"
"2004","8568.301"
"2005","8566.111"
"2006","8566.732"
"2007","8557.895"
"2008","8521.148"
"2009","8458.674"
"2010","8392.902"
"2011","8340.773"
"2012","8297.896"
"2013","8255.783"
"2014","8210.869"
"2015","8163.22"
"2016","8121.497"
"2017","8114.607"
"2018","8169.104"
"2019","8262.283"
"2020","8345.237"
"2021","8383.529"
"2022","8367.868"
"2023","8298.248"
"2024","8216.007"
"2025","8176.601"
"2026","8187.707"
"2027","8199.75"
"2028","8175.393"
"2029","8140.167"
"2030","8133.321"
"2031","8159.566"
"2032","8194.961"
"2033","8213.959"
"2034","8189.297"
"2035","8099.898"
"2036","7987.424"
"2037","7928.067"
"2038","7956.592"
"2039","8036.545"
"2040","8124.091"
"2041","8173.636"
"2042","8140.938"
"2043","8041.447"
"2044","7956.689"
"2045","7944.5"
"2046","7967.351"
"2047","7969.822"
"2048","7936.687"
"2049","7881.209"
"2050","7829.077"
"2051","7830.732"
"2052","7922.733"
"2053","8019.36"
"2054","7984.837"
"2055","7809.984"
"2056","7648.831"
"2057","7619.903"
"2058","7654.323"
"2059","7643.972"
"2060","7602.792"
"2061","7639.494"
"2062","7786.412"
"2063","7897.143"
"2064","7828.281"
"2065","7646.752"
"2066","7512.932"
"2067","7504.55"
"2068","7590.905"
"2069","7725.128"
"2070","7825.822"
"2071","7810.91"
"2072","7714.434"
"2073","7656.75"
"2074","7694.765"
"2075","7747.292"
"2076","7731.922"
"2077","7675.87"
"2078","7648.548"
"2079","7640.129"
"2080","7549.541"
"2081","7337.284"
"2082","7185.277"
"2083","7295"
"2084","7569.457"
"2085","7727.705"
"2086","7651.565"
"2087","7504.135"
"2088","7441.851"
"2089","7446.834"
"2090","7448.773"
"2091","7426.393"
"2092","7401.93"
"2093","7390.465"
"2094","7386.04"
"2095","7380.442"
"2096","7371.968"
"2097","7361.702"
"2098","7346.999"
"2099","7320.691"
"2100","7284.019"
"2101","7266.984"
"2102","7300.598"
"2103","7362.789"
"2104","7400.27"
"2105","7389.938"
"2106","7356.41"
"2107","7325.167"
"2108","7307.031"
"2109","7306.697"
"2110","7297.772"
"2111","7230.897"
"2112","7100.625"
"2113","6987.357"
"2114","6966.181"
"2115","7028.112"
"2116","7134.717"
"2117","7231.894"
"2118","7251.646"
"2119","7160.811"
"2120","7007.371"
"2121","6851.904"
"2122","6761.836"
"2123","6803.241"
"2124","6939.403"
"2125","7029.024"
"2126","6990.085"
"2127","6907.083"
"2128","6878.133"
"2129","6903.978"
"2130","6942.841"
"2131","6972.731"
"2132","6993.777"
"2133","6995.501"
"2134","6934.765"
"2135","6779.97"
"2136","6634.457"
"2137","6659.636"
"2138","6848.557"
"2139","7000.381"
"2140","6980.986"
"2141","6878.972"
"2142","6808.163"
"2143","6767.128"
"2144","6701.902"
"2145","6616.495"
"2146","6581.269"
"2147","6634.411"
"2148","6714.074"
"2149","6751.812"
"2150","6761.029"
"2151","6789.581"
"2152","6814.877"
"2153","6738.341"
"2154","6541.916"
"2155","6425.18"
"2156","6570.307"
"2157","6803.338"
"2158","6815.903"
"2159","6599.163"
"2160","6436.681"
"2161","6484.495"
"2162","6579.218"
"2163","6548.161"
"2164","6424.226"
"2165","6311.289"
"2166","6262.688"
"2167","6288.771"
"2168","6367.538"
"2169","6417.441"
"2170","6379.548"
"2171","6334.857"
"2172","6393.675"
"2173","6507.379"
"2174","6518.374"
"2175","6396.159"
"2176","6311.866"
"2177","6387.38"
"2178","6497.872"
"2179","6481.046"
"2180","6359.815"
"2181","6256.966"
"2182","6231.236"
"2183","6262.361"
"2184","6316.149"
"2185","6333.606"
"2186","6265.439"
"2187","6156.335"
"2188","6086.254"
"2189","6071.244"
"2190","6069.499"
"2191","6051.881"
"2192","6018.374"
"2193","5972.55"
"2194","5918.947"
"2195","5863.314"
"2196","5822.006"
"2197","5817.711"
"2198","5849.441"
"2199","5883.626"
"2200","5888.363"
"2201","5844.249"
"2202","5743.362"
"2203","5643.079"
"2204","5625.309"
"2205","5692.442"
"2206","5773.424"
"2207","5813.182"
"2208","5793.25"
"2209","5712.36"
"2210","5625.674"
"2211","5597.581"
"2212","5627.195"
"2213","5675.342"
"2214","5719.524"
"2215","5758.262"
"2216","5778.477"
"2217","5734.273"
"2218","5597.932"
"2219","5476.208"
"2220","5510.642"
"2221","5650.598"
"2222","5703.888"
"2223","5591.917"
"2224","5412.323"
"2225","5263.25"
"2226","5197.581"
"2227","5249.006"
"2228","5377.496"
"2229","5510.943"
"2230","5570.975"
"2231","5475.104"
"2232","5242.355"
"2233","5066.438"
"2234","5084.475"
"2235","5167.64"
"2236","5148.919"
"2237","5032.428"
"2238","4902.673"
"2239","4832.616"
"2240","4883.358"
"2241","5051.836"
"2242","5218.819"
"2243","5276.709"
"2244","5209.194"
"2245","5028.79"
"2246","4808.803"
"2247","4648.746"
"2248","4578.437"
"2249","4562.407"
"2250","4576.141"
"2251","4619.333"
"2252","4675.55"
"2253","4661.796"
"2254","4500.488"
"2255","4269.736"
"2256","4113.197"
"2257","4068.954"
"2258","4083.036"
"2259","4120.756"
"2260","4184.09"
"2261","4261.136"
"2262","4285.36"
"2263","4202.593"
"2264","4110.303"
"2265","4153.435"
"2266","4283.645"
"2267","4309.45"
"2268","4177.102"
"2269","4028.948"
"2270","3968.221"
"2271","3957.647"
"2272","3943.199"
"2273","3901.7"
"2274","3822.408"
"2275","3722.839"
"2276","3636.459"
"2277","3562.564"
"2278","3462.807"
"2279","3328.277"
"2280","3212.726"
"2281","3165.893"
"2282","3193.4"
"2283","3275.263"
"2284","3279.194"
"2285","3041.552"
"2286","2717.893"
"2287","2716.089"
"2288","3068.061"
"2289","3255.321"
"2290","2993.611"
"2291","2719.067"
"2292","2844.156"
"2293","3095.381"
"2294","3040.553"
"2295","2742.78"
"2296","2529.097"
"2297","2458.68"
"2298","2329.082"
"2299","2083.78"
"2300","1930.952"
