,"Scan 00883"
"400","11091.83"
"401","11044.55"
"402","10989.36"
"403","10938.7"
"404","10904.88"
"405","10897.94"
"406","10908.67"
"407","10918.24"
"408","10907.85"
"409","10860.72"
"410","10784.65"
"411","10704.52"
"412","10645.34"
"413","10630.93"
"414","10663.53"
"415","10725.32"
"416","10797.83"
"417","10863.02"
"418","10913.41"
"419","10954.51"
"420","10992.58"
"421","11033.72"
"422","11077.37"
"423","11112.13"
"424","11125.76"
"425","11106.13"
"426","11050.72"
"427","10977"
"428","10904.79"
"429","10853.79"
"430","10837.07"
"431","10850.08"
"432","10885.36"
"433","10935.5"
"434","10993.01"
"435","11049.96"
"436","11098.37"
"437","11130.3"
"438","11139.71"
"439","11128.6"
"440","11101.13"
"441","11061.45"
"442","11014.08"
"443","10965.63"
"444","10923.42"
"445","10894.71"
"446","10885.25"
"447","10890.74"
"448","10902.76"
"449","10912.94"
"450","10913.86"
"451","10905.61"
"452","10891.91"
"453","10876.53"
"454","10862.89"
"455","10851.42"
"456","10840.85"
"457","10829.89"
"458","10817.37"
"459","10803.62"
"460","10789.95"
"461","10777.66"
"462","10767.94"
"463","10759.88"
"464","10751.05"
"465","10739"
"466","10721.55"
"467","10700.93"
"468","10683.08"
"469","10673.95"
"470","10679.05"
"471","10694.66"
"472","10708.64"
"473","10708.62"
"474","10682.95"
"475","10635.06"
"476","10583.33"
"477","10546.64"
"478","10543.06"
"479","10571.91"
"480","10612.7"
"481","10644.08"
"482","10645.5"
"483","10616"
"484","10576.42"
"485","10548.63"
"486","10553.74"
"487","10592.11"
"488","10640.09"
"489","10672.78"
"490","10666.1"
"491","10616.72"
"492","10546.11"
"493","10477.05"
"494","10431.71"
"495","10415.54"
"496","10413.94"
"497","10411.16"
"498","10391.88"
"499","10352.22"
"500","10302.08"
"501","10252.1"
"502","10212.71"
"503","10188.71"
"504","10178.25"
"505","10179.1"
"506","10188.93"
"507","10202.24"
"508","10209.82"
"509","10202.29"
"510","10170.69"
"511","10115.86"
"512","10049.46"
"513","9983.668"
"514","9930.241"
"515","9892.626"
"516","9865.55"
"517","9843.352"
"518","9820.632"
"519","9796.991"
"520","9776.919"
"521","9765.084"
"522","9765.758"
"523","9775.965"
"524","9786.207"
"525","9786.797"
"526","9768.826"
"527","9735.379"
"528","9699.366"
"529","9673.923"
"530","9671.079"
"531","9688.307"
"532","9712.389"
"533","9729.92"
"534","9728.779"
"535","9711.134"
"536","9688.427"
"537","9672.21"
"538","9672.509"
"539","9684.896"
"540","9696.79"
"541","9695.569"
"542","9670.817"
"543","9629.569"
"544","9587.293"
"545","9559.44"
"546","9558.721"
"547","9579.957"
"548","9610.694"
"549","9638.513"
"550","9653.07"
"551","9655.051"
"552","9648.843"
"553","9638.828"
"554","9628.094"
"555","9614.159"
"556","9593.034"
"557","9560.747"
"558","9516.793"
"559","9472.709"
"560","9442.604"
"561","9440.518"
"562","9472.52"
"563","9522.914"
"564","9572.368"
"565","9601.689"
"566","9600.523"
"567","9577.441"
"568","9543.436"
"569","9509.392"
"570","9482.374"
"571","9463.045"
"572","9451.464"
"573","9447.631"
"574","9449.649"
"575","9453.145"
"576","9453.592"
"577","9446.726"
"578","9433.732"
"579","9421.25"
"580","9416.127"
"581","9424.53"
"582","9443.056"
"583","9461.049"
"584","9467.72"
"585","9453.843"
"586","9425.155"
"587","9395.84"
"588","9380.117"
"589","9389.446"
"590","9417.014"
"591","9448.524"
"592","9469.706"
"593","9469.634"
"594","9452.731"
"595","9427.866"
"596","9403.87"
"597","9387.213"
"598","9376.851"
"599","9370.242"
"600","9364.855"
"601","9358.518"
"602","9349.826"
"603","9337.489"
"604","9320.256"
"605","9298.761"
"606","9276.552"
"607","9257.406"
"608","9244.988"
"609","9240.29"
"610","9241.456"
"611","9246.498"
"612","9253.464"
"613","9260.822"
"614","9267.343"
"615","9271.813"
"616","9273.066"
"617","9270.345"
"618","9263.087"
"619","9250.737"
"620","9233.197"
"621","9212.739"
"622","9192.376"
"623","9175.108"
"624","9163.024"
"625","9155.28"
"626","9150.463"
"627","9147.16"
"628","9144.636"
"629","9143.5"
"630","9144.526"
"631","9148.413"
"632","9153.309"
"633","9154.05"
"634","9145.283"
"635","9122.313"
"636","9091.258"
"637","9067.153"
"638","9065.252"
"639","9098.142"
"640","9155.427"
"641","9214.86"
"642","9254.169"
"643","9256.287"
"644","9229.729"
"645","9190.907"
"646","9156.182"
"647","9137.628"
"648","9135.139"
"649","9146.437"
"650","9169.229"
"651","9198.913"
"652","9226.998"
"653","9244.639"
"654","9243.409"
"655","9224.208"
"656","9197.383"
"657","9173.677"
"658","9162.813"
"659","9164.082"
"660","9170.484"
"661","9174.96"
"662","9172.079"
"663","9165.368"
"664","9161.4"
"665","9166.73"
"666","9184.112"
"667","9205.037"
"668","9218.949"
"669","9215.43"
"670","9192.201"
"671","9160.315"
"672","9132.04"
"673","9119.053"
"674","9121.695"
"675","9129.743"
"676","9132.608"
"677","9120.876"
"678","9095.402"
"679","9062.354"
"680","9027.933"
"681","8997.995"
"682","8976.963"
"683","8968.853"
"684","8977.661"
"685","9003.369"
"686","9037.013"
"687","9068.432"
"688","9087.698"
"689","9091.723"
"690","9085.571"
"691","9074.78"
"692","9064.894"
"693","9061.692"
"694","9071.104"
"695","9099.039"
"696","9148.348"
"697","9205.777"
"698","9252.842"
"699","9271.119"
"700","9251.646"
"701","9209.381"
"702","9162.959"
"703","9130.676"
"704","9118.966"
"705","9119.092"
"706","9121.349"
"707","9116.884"
"708","9106.957"
"709","9099.472"
"710","9102.428"
"711","9121.509"
"712","9150.551"
"713","9179.614"
"714","9198.787"
"715","9201.703"
"716","9190.338"
"717","9167.866"
"718","9137.576"
"719","9106.204"
"720","9084.463"
"721","9083.263"
"722","9111.555"
"723","9159.376"
"724","9206.11"
"725","9231.064"
"726","9219.898"
"727","9184.245"
"728","9142.378"
"729","9112.444"
"730","9104.363"
"731","9112.948"
"732","9131.409"
"733","9153.146"
"734","9174.807"
"735","9195.852"
"736","9215.853"
"737","9233.944"
"738","9246.511"
"739","9248.84"
"740","9236.23"
"741","9208.247"
"742","9176"
"743","9152.514"
"744","9150.454"
"745","9171.021"
"746","9201.564"
"747","9228.617"
"748","9240.177"
"749","9237.851"
"750","9230.704"
"751","9227.866"
"752","9235.577"
"753","9249.521"
"754","9262.978"
"755","9269.331"
"756","9267.822"
"757","9266.66"
"758","9274.806"
"759","9300.224"
"760","9338.665"
"761","9377.604"
"762","9404.377"
"763","9409.281"
"764","9395.776"
"765","9370.986"
"766","9342.014"
"767","9314.688"
"768","9292.599"
"769","9279.094"
"770","9277.227"
"771","9285.774"
"772","9300.271"
"773","9316.177"
"774","9329.965"
"775","9343.071"
"776","9358.44"
"777","9378.989"
"778","9404.914"
"779","9431.32"
"780","9452.763"
"781","9464.234"
"782","9467.319"
"783","9468.694"
"784","9475.157"
"785","9491.458"
"786","9512.434"
"787","9529.946"
"788","9535.911"
"789","9526.877"
"790","9507.69"
"791","9484.054"
"792","9461.528"
"793","9443.873"
"794","9433.545"
"795","9432.964"
"796","9443.325"
"797","9460.522"
"798","9479.029"
"799","9493.365"
"800","9500.535"
"801","9501.418"
"802","9497.236"
"803","9489.493"
"804","9482.739"
"805","9483.391"
"806","9497.886"
"807","9529.001"
"808","9566.867"
"809","9598.887"
"810","9612.766"
"811","9606.524"
"812","9591.117"
"813","9578.308"
"814","9578.381"
"815","9590.105"
"816","9606.829"
"817","9621.872"
"818","9630.51"
"819","9632.938"
"820","9630.128"
"821","9623.033"
"822","9612.473"
"823","9599.131"
"824","9583.689"
"825","9567.607"
"826","9556.448"
"827","9557.1"
"828","9576.347"
"829","9612.384"
"830","9648.633"
"831","9667.066"
"832","9652.004"
"833","9613.547"
"834","9577.778"
"835","9570.998"
"836","9608.257"
"837","9668.329"
"838","9722.708"
"839","9743.708"
"840","9725.373"
"841","9685.458"
"842","9642.912"
"843","9614.161"
"844","9600.452"
"845","9597.373"
"846","9600.512"
"847","9606.781"
"848","9615.545"
"849","9626.435"
"850","9639.186"
"851","9654.688"
"852","9674.574"
"853","9700.492"
"854","9732.364"
"855","9764.709"
"856","9790.974"
"857","9804.838"
"858","9805.416"
"859","9797.387"
"860","9785.675"
"861","9774.631"
"862","9765.566"
"863","9758.787"
"864","9754.598"
"865","9752.969"
"866","9753.355"
"867","9755.167"
"868","9757.864"
"869","9761.367"
"870","9765.837"
"871","9771.438"
"872","9780.1"
"873","9797.985"
"874","9831.875"
"875","9887.46"
"876","9954.292"
"877","10009.61"
"878","10030.33"
"879","10002.66"
"880","9946.005"
"881","9887.284"
"882","9852.749"
"883","9851.812"
"884","9875.745"
"885","9914.934"
"886","9959.806"
"887","10001.06"
"888","10029.48"
"889","10036.06"
"890","10022.7"
"891","10007.32"
"892","10009.1"
"893","10043.47"
"894","10097.95"
"895","10147.58"
"896","10167.44"
"897","10148.08"
"898","10110.11"
"899","10077.63"
"900","10072.46"
"901","10093.3"
"902","10125.29"
"903","10153.41"
"904","10167.6"
"905","10170.37"
"906","10166.14"
"907","10159.29"
"908","10153.37"
"909","10151.35"
"910","10156.19"
"911","10168.49"
"912","10181.57"
"913","10187.28"
"914","10177.96"
"915","10155.5"
"916","10130.19"
"917","10112.66"
"918","10110.76"
"919","10121.76"
"920","10140.4"
"921","10161.45"
"922","10181.11"
"923","10197"
"924","10206.82"
"925","10209.31"
"926","10207.81"
"927","10206.99"
"928","10211.35"
"929","10220.37"
"930","10227.65"
"931","10226.47"
"932","10212.48"
"933","10193.54"
"934","10181.34"
"935","10187.32"
"936","10211.77"
"937","10240.77"
"938","10259.47"
"939","10256.18"
"940","10236.81"
"941","10213.32"
"942","10197.51"
"943","10194.5"
"944","10200.33"
"945","10210.4"
"946","10220.61"
"947","10229.85"
"948","10238.12"
"949","10245.35"
"950","10250.26"
"951","10249.81"
"952","10240.84"
"953","10221.51"
"954","10197.85"
"955","10178.71"
"956","10172.82"
"957","10182.06"
"958","10198.97"
"959","10215.34"
"960","10223.92"
"961","10222.76"
"962","10211.75"
"963","10190.9"
"964","10164.13"
"965","10140.56"
"966","10129.67"
"967","10138.34"
"968","10159.45"
"969","10181.23"
"970","10192.17"
"971","10189.88"
"972","10183.26"
"973","10181.95"
"974","10192.87"
"975","10209.82"
"976","10222.64"
"977","10221.48"
"978","10205.53"
"979","10184.09"
"980","10166.99"
"981","10162.32"
"982","10170.57"
"983","10190.25"
"984","10219.65"
"985","10252.26"
"986","10276.89"
"987","10282.13"
"988","10261.68"
"989","10227.65"
"990","10196.28"
"991","10183.02"
"992","10189.58"
"993","10206.09"
"994","10222.36"
"995","10231.54"
"996","10236.73"
"997","10242.83"
"998","10254.28"
"999","10269.11"
"1000","10280.94"
"1001","10283.32"
"1002","10274.17"
"1003","10261.8"
"1004","10256.02"
"1005","10266.63"
"1006","10300.51"
"1007","10344.8"
"1008","10378.5"
"1009","10380.94"
"1010","10349.87"
"1011","10309.44"
"1012","10285.86"
"1013","10299.6"
"1014","10339.87"
"1015","10385.33"
"1016","10415"
"1017","10420.14"
"1018","10406.4"
"1019","10380.24"
"1020","10349.58"
"1021","10328.46"
"1022","10332.54"
"1023","10376.28"
"1024","10450.28"
"1025","10522.97"
"1026","10561.96"
"1027","10548.12"
"1028","10504.11"
"1029","10460.86"
"1030","10447.29"
"1031","10466.51"
"1032","10503.49"
"1033","10542.81"
"1034","10572.29"
"1035","10587.05"
"1036","10583.24"
"1037","10558.8"
"1038","10527.29"
"1039","10510.11"
"1040","10528.45"
"1041","10582.47"
"1042","10638.68"
"1043","10660.59"
"1044","10621.11"
"1045","10545.5"
"1046","10477.14"
"1047","10458.17"
"1048","10496.09"
"1049","10560.43"
"1050","10618.74"
"1051","10647.57"
"1052","10655.17"
"1053","10656.79"
"1054","10666.79"
"1055","10687.01"
"1056","10710.22"
"1057","10728.99"
"1058","10738.55"
"1059","10739.91"
"1060","10734.86"
"1061","10725.5"
"1062","10716.19"
"1063","10712.35"
"1064","10719.31"
"1065","10738.44"
"1066","10765.82"
"1067","10797.14"
"1068","10827.64"
"1069","10850.79"
"1070","10859.53"
"1071","10847.46"
"1072","10818.58"
"1073","10785.27"
"1074","10760.17"
"1075","10750.31"
"1076","10749.68"
"1077","10750.41"
"1078","10745.65"
"1079","10736.34"
"1080","10726.97"
"1081","10721.97"
"1082","10722.04"
"1083","10723"
"1084","10720.34"
"1085","10712.18"
"1086","10706.51"
"1087","10713.76"
"1088","10742.89"
"1089","10783.92"
"1090","10813.47"
"1091","10807.95"
"1092","10761.68"
"1093","10703.3"
"1094","10665.43"
"1095","10673.77"
"1096","10713.98"
"1097","10757.28"
"1098","10775.89"
"1099","10764.55"
"1100","10740.22"
"1101","10720.81"
"1102","10716.85"
"1103","10719.18"
"1104","10715.42"
"1105","10695.36"
"1106","10666.38"
"1107","10644.4"
"1108","10644.99"
"1109","10669.23"
"1110","10699.97"
"1111","10718.88"
"1112","10714.08"
"1113","10695.48"
"1114","10677.68"
"1115","10673.72"
"1116","10680.91"
"1117","10687.32"
"1118","10681.09"
"1119","10660.57"
"1120","10639.21"
"1121","10631.69"
"1122","10647.41"
"1123","10674.94"
"1124","10697.69"
"1125","10700.42"
"1126","10683.78"
"1127","10658.8"
"1128","10636.61"
"1129","10622.84"
"1130","10614.35"
"1131","10607.22"
"1132","10598.76"
"1133","10591.57"
"1134","10589.6"
"1135","10596.33"
"1136","10609.81"
"1137","10624.41"
"1138","10634.51"
"1139","10638.55"
"1140","10641.34"
"1141","10648.29"
"1142","10661.93"
"1143","10673.54"
"1144","10671.6"
"1145","10646.36"
"1146","10607.98"
"1147","10579.03"
"1148","10581.87"
"1149","10620.35"
"1150","10671.71"
"1151","10711.13"
"1152","10721.9"
"1153","10715.48"
"1154","10709.42"
"1155","10718.58"
"1156","10733.6"
"1157","10732.17"
"1158","10692.73"
"1159","10622.05"
"1160","10560.92"
"1161","10552.14"
"1162","10615.92"
"1163","10710.44"
"1164","10783.32"
"1165","10791.19"
"1166","10752.2"
"1167","10710.06"
"1168","10706.57"
"1169","10743.36"
"1170","10784.9"
"1171","10794.44"
"1172","10756.8"
"1173","10700.27"
"1174","10658.32"
"1175","10656.58"
"1176","10683.77"
"1177","10717.86"
"1178","10738.34"
"1179","10743.13"
"1180","10742.17"
"1181","10745.46"
"1182","10757.74"
"1183","10776.45"
"1184","10798.49"
"1185","10820.1"
"1186","10835.48"
"1187","10838.44"
"1188","10824.92"
"1189","10805.19"
"1190","10795.51"
"1191","10811.11"
"1192","10848"
"1193","10885.45"
"1194","10902.33"
"1195","10891.19"
"1196","10868.74"
"1197","10854.13"
"1198","10860.14"
"1199","10875.38"
"1200","10882.79"
"1201","10868.51"
"1202","10845.65"
"1203","10840.9"
"1204","10879.49"
"1205","10950.78"
"1206","11008.36"
"1207","11004.5"
"1208","10924.23"
"1209","10816.75"
"1210","10738.77"
"1211","10731.7"
"1212","10775.06"
"1213","10832.7"
"1214","10871.56"
"1215","10886.12"
"1216","10885.08"
"1217","10877.13"
"1218","10868.11"
"1219","10861.01"
"1220","10858.68"
"1221","10862.58"
"1222","10871.5"
"1223","10883.94"
"1224","10898.1"
"1225","10910.95"
"1226","10919.17"
"1227","10919.72"
"1228","10911.32"
"1229","10893.58"
"1230","10866.46"
"1231","10837.02"
"1232","10818.3"
"1233","10823.36"
"1234","10855.6"
"1235","10903.6"
"1236","10954.63"
"1237","10997.21"
"1238","11023.4"
"1239","11025.87"
"1240","11000.44"
"1241","10960.34"
"1242","10924.79"
"1243","10911.64"
"1244","10923.41"
"1245","10952.98"
"1246","10992.97"
"1247","11033.04"
"1248","11059.6"
"1249","11059"
"1250","11030.4"
"1251","10997.61"
"1252","10987.2"
"1253","11014.96"
"1254","11059.28"
"1255","11090.47"
"1256","11084.77"
"1257","11056.54"
"1258","11035.14"
"1259","11047.36"
"1260","11087"
"1261","11125.37"
"1262","11134.2"
"1263","11109.6"
"1264","11075.53"
"1265","11057.36"
"1266","11068.79"
"1267","11101.43"
"1268","11144.39"
"1269","11186.29"
"1270","11214.21"
"1271","11214.91"
"1272","11180.03"
"1273","11129.16"
"1274","11091.77"
"1275","11094.03"
"1276","11127.98"
"1277","11165.58"
"1278","11179.59"
"1279","11164.67"
"1280","11136.22"
"1281","11110.33"
"1282","11095.51"
"1283","11088.93"
"1284","11086.85"
"1285","11086.42"
"1286","11087.02"
"1287","11088.33"
"1288","11090.73"
"1289","11097.3"
"1290","11111.76"
"1291","11135.77"
"1292","11157.24"
"1293","11158.62"
"1294","11125.25"
"1295","11074.91"
"1296","11045.76"
"1297","11074.27"
"1298","11154.62"
"1299","11240.78"
"1300","11285.69"
"1301","11271.21"
"1302","11220.6"
"1303","11160.26"
"1304","11109.85"
"1305","11074.41"
"1306","11057.07"
"1307","11060.21"
"1308","11083.66"
"1309","11126.71"
"1310","11184.81"
"1311","11233.7"
"1312","11242.83"
"1313","11188"
"1314","11096.11"
"1315","11018.55"
"1316","11002.71"
"1317","11041.74"
"1318","11090.91"
"1319","11106.39"
"1320","11083.36"
"1321","11055.83"
"1322","11058.91"
"1323","11099.82"
"1324","11146.57"
"1325","11164.34"
"1326","11136.77"
"1327","11084.31"
"1328","11031.78"
"1329","10998.94"
"1330","10991.28"
"1331","11011.77"
"1332","11057.98"
"1333","11105.54"
"1334","11124.49"
"1335","11091.02"
"1336","11017.54"
"1337","10929.57"
"1338","10850.96"
"1339","10791.13"
"1340","10752.25"
"1341","10735.87"
"1342","10736.14"
"1343","10742.24"
"1344","10743.79"
"1345","10741.4"
"1346","10745.64"
"1347","10767.1"
"1348","10805.41"
"1349","10847.16"
"1350","10878.3"
"1351","10894.63"
"1352","10907.34"
"1353","10928.9"
"1354","10962.93"
"1355","10994.95"
"1356","11008.28"
"1357","10994.17"
"1358","10965.26"
"1359","10937.76"
"1360","10923.18"
"1361","10916.53"
"1362","10909.2"
"1363","10895.04"
"1364","10879.25"
"1365","10870.26"
"1366","10874.4"
"1367","10885.26"
"1368","10891.72"
"1369","10884.54"
"1370","10869.33"
"1371","10858.61"
"1372","10863.46"
"1373","10879.48"
"1374","10893.29"
"1375","10892.37"
"1376","10877.61"
"1377","10859.47"
"1378","10848.21"
"1379","10846.49"
"1380","10850.44"
"1381","10855.91"
"1382","10857.24"
"1383","10847.22"
"1384","10818.95"
"1385","10778.96"
"1386","10750.38"
"1387","10756.92"
"1388","10799.25"
"1389","10844.47"
"1390","10857.21"
"1391","10822.85"
"1392","10762.32"
"1393","10700.01"
"1394","10655.05"
"1395","10636.03"
"1396","10650.22"
"1397","10696.17"
"1398","10752.04"
"1399","10793.1"
"1400","10804.35"
"1401","10796.94"
"1402","10786.39"
"1403","10781.99"
"1404","10773.91"
"1405","10748.65"
"1406","10700.66"
"1407","10652.38"
"1408","10632.46"
"1409","10659.14"
"1410","10709.53"
"1411","10750.44"
"1412","10757.94"
"1413","10749.1"
"1414","10752.42"
"1415","10787.43"
"1416","10829.37"
"1417","10839.84"
"1418","10791.63"
"1419","10718.48"
"1420","10674.74"
"1421","10702.5"
"1422","10771.13"
"1423","10823.31"
"1424","10812.9"
"1425","10765.84"
"1426","10736.52"
"1427","10769.65"
"1428","10843.16"
"1429","10906.92"
"1430","10918.92"
"1431","10896.89"
"1432","10884.96"
"1433","10921.02"
"1434","10994.03"
"1435","11070.36"
"1436","11119.5"
"1437","11137.15"
"1438","11131.49"
"1439","11111.31"
"1440","11089.62"
"1441","11081.49"
"1442","11098.84"
"1443","11127.03"
"1444","11138.14"
"1445","11108.86"
"1446","11055.63"
"1447","11014.83"
"1448","11018.21"
"1449","11056.41"
"1450","11099.47"
"1451","11119.84"
"1452","11111.84"
"1453","11080.61"
"1454","11032.1"
"1455","10977.96"
"1456","10932.66"
"1457","10908.49"
"1458","10900.41"
"1459","10895.15"
"1460","10881.38"
"1461","10863.22"
"1462","10851.9"
"1463","10855.5"
"1464","10858.91"
"1465","10836.84"
"1466","10769.74"
"1467","10677.27"
"1468","10595.52"
"1469","10554.64"
"1470","10546.74"
"1471","10548.98"
"1472","10541.4"
"1473","10520.92"
"1474","10490.68"
"1475","10454.59"
"1476","10420.85"
"1477","10399.11"
"1478","10395.64"
"1479","10400.02"
"1480","10396.72"
"1481","10375.05"
"1482","10345.71"
"1483","10325.33"
"1484","10325.48"
"1485","10337.79"
"1486","10348.93"
"1487","10347.66"
"1488","10330.03"
"1489","10293.67"
"1490","10241.27"
"1491","10191.05"
"1492","10164.22"
"1493","10171.95"
"1494","10198.6"
"1495","10224.06"
"1496","10234.96"
"1497","10233.57"
"1498","10224.41"
"1499","10211.91"
"1500","10200.35"
"1501","10193.99"
"1502","10194.3"
"1503","10197.99"
"1504","10201.35"
"1505","10201.57"
"1506","10197.22"
"1507","10187.02"
"1508","10170.51"
"1509","10148.31"
"1510","10121.27"
"1511","10095.36"
"1512","10081.89"
"1513","10091.55"
"1514","10118.31"
"1515","10141.33"
"1516","10140.89"
"1517","10119.69"
"1518","10096.9"
"1519","10090.38"
"1520","10099.56"
"1521","10112.79"
"1522","10119.57"
"1523","10120.06"
"1524","10119.62"
"1525","10121.37"
"1526","10113.95"
"1527","10080.39"
"1528","10011.28"
"1529","9934.509"
"1530","9889.392"
"1531","9899.41"
"1532","9928.104"
"1533","9924.836"
"1534","9860.436"
"1535","9768.165"
"1536","9692.503"
"1537","9662.77"
"1538","9674.404"
"1539","9718.232"
"1540","9782.049"
"1541","9848.468"
"1542","9899.775"
"1543","9926.328"
"1544","9929.174"
"1545","9910.529"
"1546","9883.169"
"1547","9870.56"
"1548","9894.624"
"1549","9946.356"
"1550","9992.838"
"1551","10004.23"
"1552","9988.378"
"1553","9975.048"
"1554","9989.109"
"1555","10018.98"
"1556","10037.44"
"1557","10023.48"
"1558","9987.544"
"1559","9949.744"
"1560","9924.152"
"1561","9903.527"
"1562","9875.979"
"1563","9837.736"
"1564","9805.133"
"1565","9797.397"
"1566","9819.904"
"1567","9853.548"
"1568","9877.05"
"1569","9881.599"
"1570","9874.153"
"1571","9862.426"
"1572","9849.054"
"1573","9832.077"
"1574","9810.085"
"1575","9790.005"
"1576","9784.109"
"1577","9801.973"
"1578","9832.554"
"1579","9855.636"
"1580","9856.255"
"1581","9844.998"
"1582","9840.13"
"1583","9851.973"
"1584","9865.662"
"1585","9861.429"
"1586","9833.128"
"1587","9803.306"
"1588","9797.728"
"1589","9820.83"
"1590","9846.734"
"1591","9848.39"
"1592","9823.654"
"1593","9794.392"
"1594","9781.725"
"1595","9786.532"
"1596","9796.589"
"1597","9801.185"
"1598","9801.759"
"1599","9804.905"
"1600","9815.443"
"1601","9830.449"
"1602","9844.925"
"1603","9852.664"
"1604","9844.248"
"1605","9809.906"
"1606","9754.951"
"1607","9710.292"
"1608","9708.357"
"1609","9754.254"
"1610","9823.125"
"1611","9889.078"
"1612","9933.192"
"1613","9941.446"
"1614","9904.173"
"1615","9842.747"
"1616","9792.289"
"1617","9778.752"
"1618","9788.645"
"1619","9797.994"
"1620","9792.517"
"1621","9782.457"
"1622","9781.717"
"1623","9794.475"
"1624","9809.925"
"1625","9816.43"
"1626","9811.783"
"1627","9802.754"
"1628","9796.084"
"1629","9794.52"
"1630","9798.476"
"1631","9807.792"
"1632","9819.273"
"1633","9828.675"
"1634","9832.935"
"1635","9832.656"
"1636","9829.169"
"1637","9825.196"
"1638","9825.955"
"1639","9836.731"
"1640","9857.531"
"1641","9882.759"
"1642","9906.423"
"1643","9921.385"
"1644","9919.762"
"1645","9896.246"
"1646","9860.49"
"1647","9827.506"
"1648","9810.029"
"1649","9813.638"
"1650","9842.405"
"1651","9890.245"
"1652","9933.513"
"1653","9947.972"
"1654","9936.002"
"1655","9926.345"
"1656","9944.715"
"1657","9976.327"
"1658","9983.62"
"1659","9940.247"
"1660","9875.895"
"1661","9837.24"
"1662","9848.063"
"1663","9873.892"
"1664","9871.745"
"1665","9827.293"
"1666","9765.783"
"1667","9714.28"
"1668","9683.313"
"1669","9670.745"
"1670","9673.31"
"1671","9682.374"
"1672","9687.082"
"1673","9679.848"
"1674","9664.064"
"1675","9645.41"
"1676","9629.586"
"1677","9622.316"
"1678","9628.395"
"1679","9633.693"
"1680","9606.629"
"1681","9522.576"
"1682","9419.303"
"1683","9365.042"
"1684","9403.193"
"1685","9480.173"
"1686","9519.283"
"1687","9486.4"
"1688","9428.75"
"1689","9400.723"
"1690","9409.857"
"1691","9417.279"
"1692","9387.655"
"1693","9333.529"
"1694","9291.871"
"1695","9288.843"
"1696","9307.343"
"1697","9319.773"
"1698","9312.806"
"1699","9299.937"
"1700","9297.015"
"1701","9306.846"
"1702","9319.865"
"1703","9326.977"
"1704","9326.692"
"1705","9321.107"
"1706","9313.844"
"1707","9313.722"
"1708","9330.539"
"1709","9362.127"
"1710","9386.688"
"1711","9382.196"
"1712","9353.052"
"1713","9325.023"
"1714","9320.521"
"1715","9336.894"
"1716","9361.831"
"1717","9381.466"
"1718","9377.784"
"1719","9332.757"
"1720","9255.216"
"1721","9188.402"
"1722","9173.497"
"1723","9203.96"
"1724","9243.971"
"1725","9265.388"
"1726","9275.975"
"1727","9293.278"
"1728","9323.738"
"1729","9352.429"
"1730","9362.56"
"1731","9348.479"
"1732","9314.505"
"1733","9266.894"
"1734","9222.302"
"1735","9201.644"
"1736","9213.964"
"1737","9235.546"
"1738","9237.807"
"1739","9218.523"
"1740","9207.762"
"1741","9233.133"
"1742","9279.302"
"1743","9306.998"
"1744","9290.823"
"1745","9258.287"
"1746","9248.878"
"1747","9275.031"
"1748","9306.514"
"1749","9311.581"
"1750","9288.681"
"1751","9257.519"
"1752","9234.905"
"1753","9221.677"
"1754","9213.938"
"1755","9206.495"
"1756","9191.71"
"1757","9162.565"
"1758","9127.539"
"1759","9107.991"
"1760","9119.528"
"1761","9143.043"
"1762","9147.396"
"1763","9121.309"
"1764","9096.919"
"1765","9110.046"
"1766","9154.144"
"1767","9183.535"
"1768","9160.277"
"1769","9103.92"
"1770","9055.988"
"1771","9042.642"
"1772","9053.97"
"1773","9075.214"
"1774","9098.376"
"1775","9121.968"
"1776","9143.889"
"1777","9156.52"
"1778","9150.091"
"1779","9122.11"
"1780","9087.108"
"1781","9061.74"
"1782","9055.468"
"1783","9070.952"
"1784","9107.634"
"1785","9147.043"
"1786","9164.03"
"1787","9148.225"
"1788","9121.762"
"1789","9109.794"
"1790","9113.164"
"1791","9111.503"
"1792","9090.124"
"1793","9069.018"
"1794","9079.586"
"1795","9123.555"
"1796","9145.361"
"1797","9088.751"
"1798","8984.53"
"1799","8929.492"
"1800","8990.857"
"1801","9095.54"
"1802","9132.25"
"1803","9066.849"
"1804","8988.674"
"1805","8989.017"
"1806","9057.02"
"1807","9118.763"
"1808","9122.473"
"1809","9096.855"
"1810","9087.234"
"1811","9106.445"
"1812","9126.668"
"1813","9120.973"
"1814","9089.958"
"1815","9047.15"
"1816","9006.75"
"1817","8984.38"
"1818","8994.952"
"1819","9033.664"
"1820","9077.455"
"1821","9105.438"
"1822","9112.228"
"1823","9097.627"
"1824","9068.559"
"1825","9044.479"
"1826","9043.681"
"1827","9055.729"
"1828","9051.678"
"1829","9013.991"
"1830","8965.386"
"1831","8936.538"
"1832","8935.98"
"1833","8946.264"
"1834","8950.506"
"1835","8945.929"
"1836","8935.591"
"1837","8923.604"
"1838","8916.257"
"1839","8920.007"
"1840","8939.664"
"1841","8978.815"
"1842","9033.935"
"1843","9074.185"
"1844","9063.112"
"1845","9002.637"
"1846","8943.107"
"1847","8929.397"
"1848","8944.871"
"1849","8946.426"
"1850","8917.308"
"1851","8897.021"
"1852","8927.81"
"1853","8989.915"
"1854","9018.796"
"1855","8974.173"
"1856","8907.366"
"1857","8888.626"
"1858","8930.992"
"1859","8981.528"
"1860","8992.825"
"1861","8974.395"
"1862","8957.127"
"1863","8957.642"
"1864","8966.649"
"1865","8972.56"
"1866","8968.323"
"1867","8949.598"
"1868","8917.147"
"1869","8886.052"
"1870","8873.224"
"1871","8881.988"
"1872","8903.489"
"1873","8927.687"
"1874","8941.377"
"1875","8930.968"
"1876","8903.399"
"1877","8892.466"
"1878","8925.399"
"1879","8972.493"
"1880","8980.762"
"1881","8931.072"
"1882","8867.989"
"1883","8839.348"
"1884","8852.841"
"1885","8892.422"
"1886","8937.136"
"1887","8953.939"
"1888","8911.31"
"1889","8836.472"
"1890","8804.469"
"1891","8861.653"
"1892","8941.437"
"1893","8953.718"
"1894","8890.627"
"1895","8833.608"
"1896","8849.518"
"1897","8906.248"
"1898","8940.654"
"1899","8924.595"
"1900","8879.558"
"1901","8831.074"
"1902","8806.221"
"1903","8832.43"
"1904","8903.683"
"1905","8953.5"
"1906","8918.854"
"1907","8828.42"
"1908","8760.08"
"1909","8757.21"
"1910","8783.706"
"1911","8796.404"
"1912","8800.058"
"1913","8831.101"
"1914","8903.062"
"1915","8964.056"
"1916","8955.08"
"1917","8884.744"
"1918","8815.149"
"1919","8791.397"
"1920","8796.344"
"1921","8800.46"
"1922","8787.774"
"1923","8754.779"
"1924","8708.197"
"1925","8692.958"
"1926","8760.56"
"1927","8888.951"
"1928","8979.191"
"1929","8957.952"
"1930","8883.856"
"1931","8850.187"
"1932","8875.508"
"1933","8891.796"
"1934","8843.476"
"1935","8761.738"
"1936","8703.821"
"1937","8692.509"
"1938","8707.348"
"1939","8726.033"
"1940","8731.286"
"1941","8708.079"
"1942","8666.482"
"1943","8649.763"
"1944","8691.857"
"1945","8760.644"
"1946","8801.546"
"1947","8793.878"
"1948","8763.211"
"1949","8735.809"
"1950","8722.366"
"1951","8727.704"
"1952","8741.643"
"1953","8733.461"
"1954","8681.273"
"1955","8622.583"
"1956","8614.836"
"1957","8664.425"
"1958","8708.969"
"1959","8694.693"
"1960","8642.856"
"1961","8599.775"
"1962","8584.619"
"1963","8581.494"
"1964","8575.214"
"1965","8566.416"
"1966","8560.823"
"1967","8563.567"
"1968","8579.055"
"1969","8607.904"
"1970","8633.053"
"1971","8633.114"
"1972","8613.114"
"1973","8607.187"
"1974","8638.024"
"1975","8673.669"
"1976","8669.495"
"1977","8621.227"
"1978","8564.292"
"1979","8528.496"
"1980","8516.723"
"1981","8525.133"
"1982","8539.107"
"1983","8534.767"
"1984","8500.732"
"1985","8465.065"
"1986","8461.559"
"1987","8497.605"
"1988","8561.307"
"1989","8630.59"
"1990","8658.835"
"1991","8603.36"
"1992","8505.913"
"1993","8459.031"
"1994","8497.979"
"1995","8538.601"
"1996","8496.285"
"1997","8404.543"
"1998","8353.711"
"1999","8378.373"
"2000","8421.088"
"2001","8424.589"
"2002","8386.189"
"2003","8324.018"
"2004","8260.013"
"2005","8220.92"
"2006","8226.074"
"2007","8259.2"
"2008","8294.231"
"2009","8315.097"
"2010","8315.528"
"2011","8291.126"
"2012","8242.392"
"2013","8172.681"
"2014","8110.656"
"2015","8103.515"
"2016","8162.233"
"2017","8210.13"
"2018","8170.214"
"2019","8081.633"
"2020","8044.932"
"2021","8100.369"
"2022","8184.565"
"2023","8232.076"
"2024","8227.065"
"2025","8172.827"
"2026","8093.924"
"2027","8040.337"
"2028","8045.343"
"2029","8069.063"
"2030","8056.816"
"2031","8014.2"
"2032","7996.767"
"2033","8035.647"
"2034","8094.162"
"2035","8127.671"
"2036","8121.042"
"2037","8075.752"
"2038","8008.955"
"2039","7964.115"
"2040","7975.386"
"2041","8007.767"
"2042","8003.31"
"2043","7957.137"
"2044","7923.182"
"2045","7934.132"
"2046","7937.556"
"2047","7869.741"
"2048","7765.475"
"2049","7728.982"
"2050","7804.438"
"2051","7906.011"
"2052","7941.748"
"2053","7895.76"
"2054","7786.052"
"2055","7664.601"
"2056","7626.83"
"2057","7729.735"
"2058","7863.605"
"2059","7886.561"
"2060","7810.039"
"2061","7764.629"
"2062","7818.453"
"2063","7890.604"
"2064","7892.493"
"2065","7833.502"
"2066","7766.631"
"2067","7712.663"
"2068","7650.084"
"2069","7563.958"
"2070","7476.63"
"2071","7417.525"
"2072","7384.671"
"2073","7352.776"
"2074","7313.985"
"2075","7298.326"
"2076","7332.752"
"2077","7391.328"
"2078","7427.733"
"2079","7434.344"
"2080","7448.123"
"2081","7490.862"
"2082","7525.606"
"2083","7508.044"
"2084","7448.479"
"2085","7391.095"
"2086","7368.239"
"2087","7391.17"
"2088","7457.275"
"2089","7504.105"
"2090","7454.904"
"2091","7322.806"
"2092","7200.676"
"2093","7150.345"
"2094","7151.469"
"2095","7173.789"
"2096","7204.201"
"2097","7237.245"
"2098","7267.503"
"2099","7289.555"
"2100","7298.492"
"2101","7291.141"
"2102","7265.404"
"2103","7226.711"
"2104","7185.095"
"2105","7156.18"
"2106","7164.16"
"2107","7218.374"
"2108","7259.903"
"2109","7217.605"
"2110","7115.734"
"2111","7049.596"
"2112","7058.917"
"2113","7072.627"
"2114","7026.083"
"2115","6959.927"
"2116","6947.1"
"2117","6991.932"
"2118","7037.395"
"2119","7045.241"
"2120","7025.42"
"2121","6993.629"
"2122","6959.031"
"2123","6928.174"
"2124","6906.2"
"2125","6896.818"
"2126","6896.838"
"2127","6885.379"
"2128","6843.866"
"2129","6791.664"
"2130","6764.004"
"2131","6766.748"
"2132","6773.162"
"2133","6767.426"
"2134","6769.088"
"2135","6797.893"
"2136","6826.927"
"2137","6808.897"
"2138","6744.989"
"2139","6692.222"
"2140","6678.668"
"2141","6640.541"
"2142","6515.476"
"2143","6382.078"
"2144","6381.033"
"2145","6511.124"
"2146","6609.103"
"2147","6569.463"
"2148","6473.17"
"2149","6423.684"
"2150","6449.302"
"2151","6542.67"
"2152","6653.027"
"2153","6683.104"
"2154","6586.166"
"2155","6452.346"
"2156","6380.174"
"2157","6375.384"
"2158","6405.692"
"2159","6447.216"
"2160","6484.409"
"2161","6504.476"
"2162","6500.228"
"2163","6466.422"
"2164","6404.79"
"2165","6320.896"
"2166","6243.163"
"2167","6218.968"
"2168","6253.501"
"2169","6269.574"
"2170","6208.479"
"2171","6144.044"
"2172","6178.528"
"2173","6272.662"
"2174","6289.89"
"2175","6192.491"
"2176","6099.99"
"2177","6105.317"
"2178","6152.438"
"2179","6159.033"
"2180","6119.371"
"2181","6069.502"
"2182","6036.219"
"2183","6034.522"
"2184","6063.645"
"2185","6081.672"
"2186","6048.093"
"2187","5979.178"
"2188","5913.583"
"2189","5872.676"
"2190","5862.028"
"2191","5874.341"
"2192","5878.18"
"2193","5848.255"
"2194","5800.68"
"2195","5761.935"
"2196","5740.969"
"2197","5735.149"
"2198","5728.418"
"2199","5686.657"
"2200","5599.208"
"2201","5530.196"
"2202","5545.842"
"2203","5625.628"
"2204","5711.379"
"2205","5745.313"
"2206","5670.688"
"2207","5496.68"
"2208","5360.117"
"2209","5373.075"
"2210","5475.223"
"2211","5563.308"
"2212","5575.743"
"2213","5477.949"
"2214","5317.097"
"2215","5239.698"
"2216","5322.495"
"2217","5447.239"
"2218","5484.5"
"2219","5420.028"
"2220","5283.384"
"2221","5144.699"
"2222","5103.047"
"2223","5178.989"
"2224","5273.834"
"2225","5305.205"
"2226","5274.088"
"2227","5202.148"
"2228","5141.056"
"2229","5150.214"
"2230","5194.278"
"2231","5156.871"
"2232","5015.357"
"2233","4912.967"
"2234","4953.556"
"2235","5040.312"
"2236","5047.74"
"2237","4980.474"
"2238","4903.157"
"2239","4848.92"
"2240","4820.979"
"2241","4807.266"
"2242","4769.983"
"2243","4688.312"
"2244","4615.411"
"2245","4611.569"
"2246","4653.687"
"2247","4680.406"
"2248","4673.179"
"2249","4653.575"
"2250","4627.197"
"2251","4568.236"
"2252","4466.03"
"2253","4376.089"
"2254","4357.88"
"2255","4387.083"
"2256","4403.232"
"2257","4385.644"
"2258","4348.399"
"2259","4300.333"
"2260","4239.796"
"2261","4165.662"
"2262","4081.542"
"2263","3989.544"
"2264","3875.886"
"2265","3725.26"
"2266","3592.427"
"2267","3582.556"
"2268","3683.46"
"2269","3718.547"
"2270","3589.3"
"2271","3433.284"
"2272","3392.731"
"2273","3435.867"
"2274","3478.402"
"2275","3472.974"
"2276","3396.277"
"2277","3272.322"
"2278","3176.461"
"2279","3136.107"
"2280","3077.52"
"2281","2952.452"
"2282","2855.174"
"2283","2888.171"
"2284","2961.968"
"2285","2910.249"
"2286","2729.511"
"2287","2547.982"
"2288","2442.948"
"2289","2412.774"
"2290","2436.125"
"2291","2456.504"
"2292","2419.458"
"2293","2309.31"
"2294","2131.296"
"2295","1977.842"
"2296","1982.554"
"2297","2112.07"
"2298","2171.387"
"2299","2071.175"
"2300","1912.153"
