,"Scan 00884"
"400","14482.34"
"401","14666.54"
"402","14840.71"
"403","15021.85"
"404","15226.86"
"405","15469.98"
"406","15743.44"
"407","16028.38"
"408","16305.96"
"409","16558.71"
"410","16784.71"
"411","16992.88"
"412","17192.32"
"413","17391.46"
"414","17587.38"
"415","17766.55"
"416","17915.12"
"417","18019.41"
"418","18068.65"
"419","18055.55"
"420","17973.12"
"421","17814.51"
"422","17580.8"
"423","17285.76"
"424","16944.23"
"425","16570.95"
"426","16181.46"
"427","15793.15"
"428","15423.54"
"429","15089.98"
"430","14803.47"
"431","14557.95"
"432","14344.57"
"433","14154.56"
"434","13981.36"
"435","13825.96"
"436","13690.96"
"437","13578.98"
"438","13490.5"
"439","13416.96"
"440","13347.34"
"441","13270.7"
"442","13179.16"
"443","13081.12"
"444","12990.48"
"445","12921.04"
"446","12883.25"
"447","12865.38"
"448","12846.64"
"449","12806.32"
"450","12727.92"
"451","12628.56"
"452","12541.79"
"453","12501.07"
"454","12534.97"
"455","12624.94"
"456","12725.44"
"457","12790.89"
"458","12779.75"
"459","12696.15"
"460","12574.31"
"461","12448.79"
"462","12352.3"
"463","12294.28"
"464","12266.78"
"465","12261.45"
"466","12270.1"
"467","12286.24"
"468","12304.75"
"469","12320.6"
"470","12328.95"
"471","12327.86"
"472","12318.07"
"473","12300.43"
"474","12275.96"
"475","12250.05"
"476","12232.44"
"477","12233"
"478","12260.99"
"479","12312.04"
"480","12367.32"
"481","12407.43"
"482","12413.66"
"483","12384.72"
"484","12338.71"
"485","12294.67"
"486","12271.18"
"487","12276.65"
"488","12307.68"
"489","12360.21"
"490","12430.14"
"491","12510.67"
"492","12591.81"
"493","12663.45"
"494","12715.84"
"495","12750.2"
"496","12780.96"
"497","12823.25"
"498","12892.07"
"499","13000.66"
"500","13160.19"
"501","13381.66"
"502","13675.16"
"503","14024.06"
"504","14380"
"505","14693.07"
"506","14915"
"507","15040.59"
"508","15114.25"
"509","15182.88"
"510","15291.74"
"511","15446.54"
"512","15609.28"
"513","15739.88"
"514","15799.8"
"515","15783.45"
"516","15719.72"
"517","15638.97"
"518","15570.29"
"519","15517.76"
"520","15461.01"
"521","15378.75"
"522","15250.98"
"523","15080.25"
"524","14889.42"
"525","14701.97"
"526","14539.61"
"527","14397.02"
"528","14246.76"
"529","14060.85"
"530","13813.97"
"531","13516.21"
"532","13203.64"
"533","12912.75"
"534","12677.22"
"535","12499.94"
"536","12363.77"
"537","12251.33"
"538","12145.85"
"539","12036.02"
"540","11913.66"
"541","11770.65"
"542","11601.72"
"543","11424.57"
"544","11267.96"
"545","11160.6"
"546","11125.79"
"547","11151.56"
"548","11211.61"
"549","11279.7"
"550","11334.91"
"551","11384.72"
"552","11446.12"
"553","11536.04"
"554","11666.03"
"555","11824.4"
"556","11993.13"
"557","12154.28"
"558","12294.46"
"559","12415.81"
"560","12523.87"
"561","12624.14"
"562","12714.93"
"563","12774.86"
"564","12779.29"
"565","12703.79"
"566","12544.28"
"567","12340.28"
"568","12136.82"
"569","11978.36"
"570","11882.15"
"571","11820.01"
"572","11759.51"
"573","11668.91"
"574","11538.03"
"575","11384.62"
"576","11228.22"
"577","11087.99"
"578","10975.81"
"579","10896.31"
"580","10853.79"
"581","10851.96"
"582","10886.34"
"583","10946.21"
"584","11020.76"
"585","11099.26"
"586","11171.47"
"587","11227.45"
"588","11257.31"
"589","11253.22"
"590","11221.01"
"591","11172.17"
"592","11118.11"
"593","11069.04"
"594","11029.69"
"595","11003.14"
"596","10992.51"
"597","10996.48"
"598","10999.7"
"599","10984.03"
"600","10931.46"
"601","10836.57"
"602","10721.62"
"603","10612.54"
"604","10534.8"
"605","10493.72"
"606","10463.64"
"607","10416.39"
"608","10324.97"
"609","10190.65"
"610","10044.78"
"611","9920.102"
"612","9847.005"
"613","9825.079"
"614","9831.331"
"615","9842.323"
"616","9836.658"
"617","9809.148"
"618","9762.601"
"619","9699.865"
"620","9625.023"
"621","9548.491"
"622","9482.677"
"623","9439.94"
"624","9425.513"
"625","9421.864"
"626","9406.99"
"627","9359.078"
"628","9273.767"
"629","9181.802"
"630","9118.048"
"631","9116.445"
"632","9179.939"
"633","9271.544"
"634","9351.756"
"635","9383.107"
"636","9360.109"
"637","9303.646"
"638","9235.318"
"639","9175.414"
"640","9133.26"
"641","9112.501"
"642","9116.726"
"643","9145.82"
"644","9181.3"
"645","9199.032"
"646","9174.983"
"647","9098.594"
"648","8997.802"
"649","8907.321"
"650","8861.502"
"651","8874.817"
"652","8928.23"
"653","8999.532"
"654","9066.94"
"655","9117.311"
"656","9146.236"
"657","9149.721"
"658","9124.849"
"659","9080.144"
"660","9031.008"
"661","8992.888"
"662","8978.198"
"663","8982.825"
"664","8997.007"
"665","9011.016"
"666","9017.103"
"667","9013.356"
"668","8998.947"
"669","8973.106"
"670","8939.363"
"671","8908.287"
"672","8891.085"
"673","8898.329"
"674","8928.454"
"675","8968.569"
"676","9005.396"
"677","9026.975"
"678","9032.78"
"679","9028.22"
"680","9018.735"
"681","9009.336"
"682","9003.202"
"683","9003.01"
"684","9011.409"
"685","9026.865"
"686","9038.488"
"687","9034.145"
"688","9002.175"
"689","8945.486"
"690","8884.381"
"691","8840.132"
"692","8831.929"
"693","8855.357"
"694","8890.869"
"695","8918.715"
"696","8922.884"
"697","8906.8"
"698","8880.242"
"699","8852.949"
"700","8831.507"
"701","8814.517"
"702","8799.341"
"703","8783.459"
"704","8768.444"
"705","8761.118"
"706","8768.636"
"707","8797.16"
"708","8841.227"
"709","8887.728"
"710","8923.446"
"711","8938.132"
"712","8936.685"
"713","8928.834"
"714","8924.275"
"715","8928.309"
"716","8935.876"
"717","8940.426"
"718","8935.659"
"719","8922.287"
"720","8909.098"
"721","8905.301"
"722","8918.175"
"723","8936.255"
"724","8937.534"
"725","8899.925"
"726","8811.499"
"727","8701.926"
"728","8611.482"
"729","8580.085"
"730","8618.7"
"731","8685.209"
"732","8731.878"
"733","8713.801"
"734","8635.93"
"735","8546.521"
"736","8495.2"
"737","8521.474"
"738","8599.584"
"739","8677.752"
"740","8704.255"
"741","8652.467"
"742","8563.614"
"743","8490.22"
"744","8483.368"
"745","8548.591"
"746","8636.363"
"747","8693.94"
"748","8675.219"
"749","8596.075"
"750","8506.378"
"751","8456.273"
"752","8480.464"
"753","8557.291"
"754","8652.246"
"755","8731.209"
"756","8779.655"
"757","8813.128"
"758","8849.689"
"759","8906.325"
"760","8986.813"
"761","9085.969"
"762","9198.459"
"763","9319.696"
"764","9448.395"
"765","9584.19"
"766","9726.695"
"767","9872.472"
"768","10012.69"
"769","10137.97"
"770","10238.96"
"771","10306.66"
"772","10332.31"
"773","10307.18"
"774","10227.72"
"775","10115.81"
"776","10001.07"
"777","9912.931"
"778","9863.657"
"779","9833.465"
"780","9799.067"
"781","9738.337"
"782","9646.32"
"783","9531.324"
"784","9401.994"
"785","9268.916"
"786","9152.106"
"787","9074.415"
"788","9058.441"
"789","9106.044"
"790","9181.904"
"791","9246.874"
"792","9264.492"
"793","9234.248"
"794","9181.478"
"795","9132.06"
"796","9105.9"
"797","9097.249"
"798","9093.468"
"799","9082.087"
"800","9060.158"
"801","9039.64"
"802","9033.784"
"803","9054.043"
"804","9092.584"
"805","9129.8"
"806","9145.934"
"807","9128.088"
"808","9087.082"
"809","9038.843"
"810","8999.046"
"811","8974.701"
"812","8961.95"
"813","8956.255"
"814","8953.568"
"815","8953.684"
"816","8958.186"
"817","8968.675"
"818","8985.039"
"819","9002.831"
"820","9016.933"
"821","9022.719"
"822","9025.405"
"823","9039.284"
"824","9078.975"
"825","9153.042"
"826","9238.419"
"827","9301.738"
"828","9309.978"
"829","9256.639"
"830","9180.87"
"831","9126.302"
"832","9132.685"
"833","9197.202"
"834","9290.662"
"835","9383.489"
"836","9454.247"
"837","9507.688"
"838","9553.82"
"839","9602.495"
"840","9659.012"
"841","9723.731"
"842","9796.766"
"843","9879.145"
"844","9977.483"
"845","10100.48"
"846","10256.81"
"847","10454.62"
"848","10701.01"
"849","11002.98"
"850","11364.81"
"851","11759.65"
"852","12140.82"
"853","12461.34"
"854","12684.75"
"855","12807.77"
"856","12833.62"
"857","12765.73"
"858","12611.75"
"859","12383.68"
"860","12093.69"
"861","11756.96"
"862","11404.44"
"863","11072.3"
"864","10796.35"
"865","10589.92"
"866","10430.82"
"867","10293.74"
"868","10155.48"
"869","10011.62"
"870","9867.402"
"871","9728.187"
"872","9601.532"
"873","9500.348"
"874","9438.313"
"875","9427.601"
"876","9458.124"
"877","9502.793"
"878","9534.098"
"879","9530.915"
"880","9495.079"
"881","9433.577"
"882","9353.694"
"883","9270.691"
"884","9208.405"
"885","9191.101"
"886","9235.12"
"887","9315.463"
"888","9393.653"
"889","9431.796"
"890","9422.329"
"891","9402.192"
"892","9411.884"
"893","9484.967"
"894","9603.768"
"895","9727.644"
"896","9816.034"
"897","9851.814"
"898","9863.458"
"899","9884.694"
"900","9946.656"
"901","10053.85"
"902","10195.16"
"903","10359.27"
"904","10541.57"
"905","10754.18"
"906","11011.85"
"907","11327.96"
"908","11696.92"
"909","12099.2"
"910","12514.9"
"911","12922.67"
"912","13296.41"
"913","13609.11"
"914","13835.01"
"915","13972.47"
"916","14041.26"
"917","14061.89"
"918","14052.58"
"919","14022.67"
"920","13979.38"
"921","13929.48"
"922","13868.2"
"923","13778.87"
"924","13644.22"
"925","13451.06"
"926","13204.39"
"927","12914.36"
"928","12591.12"
"929","12246.08"
"930","11892.07"
"931","11542.02"
"932","11208.5"
"933","10902.33"
"934","10633.76"
"935","10412.84"
"936","10241.06"
"937","10109.01"
"938","10006.53"
"939","9924.613"
"940","9860.417"
"941","9813.247"
"942","9782.331"
"943","9764.119"
"944","9751.266"
"945","9736.154"
"946","9712.442"
"947","9681.166"
"948","9646.011"
"949","9610.62"
"950","9576.301"
"951","9541.123"
"952","9502.918"
"953","9460.542"
"954","9418.879"
"955","9385.002"
"956","9365.872"
"957","9363.269"
"958","9371.826"
"959","9385.649"
"960","9399.476"
"961","9411.641"
"962","9421.755"
"963","9429.406"
"964","9433.26"
"965","9430.752"
"966","9419.236"
"967","9398.135"
"968","9377.966"
"969","9372.941"
"970","9396.84"
"971","9447.777"
"972","9504.481"
"973","9544.461"
"974","9549.479"
"975","9521.932"
"976","9470.47"
"977","9403.926"
"978","9336.079"
"979","9286.262"
"980","9274.107"
"981","9311.346"
"982","9376.088"
"983","9437.514"
"984","9465.877"
"985","9455.813"
"986","9425.964"
"987","9395.987"
"988","9381.914"
"989","9386.69"
"990","9410.313"
"991","9452.446"
"992","9506.939"
"993","9562.769"
"994","9608.754"
"995","9638.087"
"996","9656.861"
"997","9673.539"
"998","9696.157"
"999","9727.095"
"1000","9764.815"
"1001","9807.713"
"1002","9856.573"
"1003","9917.855"
"1004","9998.832"
"1005","10106.78"
"1006","10246.44"
"1007","10405.38"
"1008","10564.13"
"1009","10703.52"
"1010","10822.41"
"1011","10945.48"
"1012","11099.43"
"1013","11303.82"
"1014","11539.38"
"1015","11773.69"
"1016","11974.88"
"1017","12129.58"
"1018","12246.12"
"1019","12334.08"
"1020","12401.88"
"1021","12453.1"
"1022","12490.04"
"1023","12514.76"
"1024","12525.05"
"1025","12514.67"
"1026","12477.24"
"1027","12408.48"
"1028","12310.77"
"1029","12187.79"
"1030","12044.28"
"1031","11898.67"
"1032","11779.01"
"1033","11713.48"
"1034","11707.57"
"1035","11715.26"
"1036","11683.36"
"1037","11566.79"
"1038","11389.63"
"1039","11211.07"
"1040","11090.03"
"1041","11048.28"
"1042","11048.21"
"1043","11046.89"
"1044","11010.72"
"1045","10958.13"
"1046","10925.54"
"1047","10948.25"
"1048","11029.99"
"1049","11139.89"
"1050","11245.3"
"1051","11322.52"
"1052","11379.5"
"1053","11431.19"
"1054","11491.56"
"1055","11561.06"
"1056","11630.38"
"1057","11689.99"
"1058","11735.93"
"1059","11776.43"
"1060","11821.35"
"1061","11881.18"
"1062","11971.26"
"1063","12109.16"
"1064","12312.11"
"1065","12583.9"
"1066","12910.14"
"1067","13275.15"
"1068","13662.13"
"1069","14049.63"
"1070","14414.91"
"1071","14734.89"
"1072","14980.92"
"1073","15119.81"
"1074","15118.31"
"1075","14961.61"
"1076","14677.98"
"1077","14301.85"
"1078","13868.47"
"1079","13419.24"
"1080","12998.43"
"1081","12649.73"
"1082","12392.99"
"1083","12217.16"
"1084","12109.09"
"1085","12056.47"
"1086","12050.17"
"1087","12081.82"
"1088","12142.99"
"1089","12224.66"
"1090","12317.38"
"1091","12411.76"
"1092","12509.86"
"1093","12635.78"
"1094","12816.14"
"1095","13067.04"
"1096","13343.55"
"1097","13578.77"
"1098","13708.16"
"1099","13722.41"
"1100","13666.58"
"1101","13588.07"
"1102","13525.57"
"1103","13494.5"
"1104","13506.5"
"1105","13568.6"
"1106","13651"
"1107","13706.07"
"1108","13687.61"
"1109","13607.28"
"1110","13549.43"
"1111","13603.16"
"1112","13825.05"
"1113","14161.33"
"1114","14534.84"
"1115","14873.58"
"1116","15159.59"
"1117","15406.67"
"1118","15628.97"
"1119","15838.7"
"1120","16045.15"
"1121","16257.37"
"1122","16477.97"
"1123","16684.02"
"1124","16846.28"
"1125","16936.04"
"1126","16930.94"
"1127","16812.8"
"1128","16563.81"
"1129","16187.27"
"1130","15720.11"
"1131","15202.31"
"1132","14671.86"
"1133","14158.4"
"1134","13689.41"
"1135","13289.91"
"1136","12954.58"
"1137","12657.91"
"1138","12374.36"
"1139","12099.8"
"1140","11863.9"
"1141","11699.31"
"1142","11626.5"
"1143","11617.24"
"1144","11631.24"
"1145","11631.5"
"1146","11618.06"
"1147","11614"
"1148","11642.54"
"1149","11716.42"
"1150","11833.35"
"1151","11989.84"
"1152","12178.65"
"1153","12379.51"
"1154","12569.28"
"1155","12726.13"
"1156","12840.32"
"1157","12908.47"
"1158","12927.45"
"1159","12899.24"
"1160","12832.01"
"1161","12734.25"
"1162","12611.97"
"1163","12464.22"
"1164","12288.88"
"1165","12085.15"
"1166","11861.24"
"1167","11629.1"
"1168","11400.9"
"1169","11192.52"
"1170","11023.27"
"1171","10912.51"
"1172","10862.45"
"1173","10840.91"
"1174","10811.56"
"1175","10748.08"
"1176","10670.94"
"1177","10614.3"
"1178","10609.34"
"1179","10651.85"
"1180","10714.52"
"1181","10769.81"
"1182","10798.67"
"1183","10793.71"
"1184","10748.36"
"1185","10664.7"
"1186","10570.41"
"1187","10497.89"
"1188","10474"
"1189","10487.69"
"1190","10512.07"
"1191","10521.7"
"1192","10517.94"
"1193","10525.48"
"1194","10569.52"
"1195","10653.5"
"1196","10742.37"
"1197","10797.14"
"1198","10791.88"
"1199","10749.94"
"1200","10706.21"
"1201","10693.58"
"1202","10727.62"
"1203","10815.21"
"1204","10961.98"
"1205","11146.69"
"1206","11321.25"
"1207","11436.6"
"1208","11470.68"
"1209","11454.3"
"1210","11424.45"
"1211","11410.48"
"1212","11410.79"
"1213","11415.99"
"1214","11417.35"
"1215","11412.41"
"1216","11401.91"
"1217","11387.07"
"1218","11379.18"
"1219","11399.43"
"1220","11469.3"
"1221","11592.06"
"1222","11736.93"
"1223","11869.39"
"1224","11963.31"
"1225","12023.53"
"1226","12062.04"
"1227","12089.64"
"1228","12108.07"
"1229","12114.94"
"1230","12108.05"
"1231","12089.26"
"1232","12063.8"
"1233","12036.99"
"1234","12011.53"
"1235","11986.08"
"1236","11958.97"
"1237","11926.94"
"1238","11882.31"
"1239","11816.62"
"1240","11728.58"
"1241","11656.8"
"1242","11653.54"
"1243","11763.73"
"1244","11949.69"
"1245","12121.89"
"1246","12192.71"
"1247","12150.99"
"1248","12069.56"
"1249","12025.23"
"1250","12052.05"
"1251","12101.99"
"1252","12117.7"
"1253","12062.2"
"1254","11969.06"
"1255","11887.12"
"1256","11856.96"
"1257","11866.12"
"1258","11881.27"
"1259","11871.8"
"1260","11842.27"
"1261","11821.23"
"1262","11836.59"
"1263","11884.67"
"1264","11925.76"
"1265","11918.46"
"1266","11849.46"
"1267","11758.91"
"1268","11692.97"
"1269","11681.49"
"1270","11701.1"
"1271","11717.65"
"1272","11701.76"
"1273","11651.43"
"1274","11574.37"
"1275","11479.25"
"1276","11384.88"
"1277","11315.97"
"1278","11295.97"
"1279","11319.08"
"1280","11352"
"1281","11360.7"
"1282","11334.01"
"1283","11294.97"
"1284","11269.38"
"1285","11273.73"
"1286","11302.15"
"1287","11345.49"
"1288","11394.61"
"1289","11440.47"
"1290","11474.04"
"1291","11489.35"
"1292","11500.12"
"1293","11528"
"1294","11591.39"
"1295","11672.31"
"1296","11729.95"
"1297","11725.14"
"1298","11661.02"
"1299","11580.95"
"1300","11529.45"
"1301","11527.06"
"1302","11560.12"
"1303","11612.31"
"1304","11664.21"
"1305","11689.83"
"1306","11662.28"
"1307","11574.56"
"1308","11485.57"
"1309","11467.84"
"1310","11572.66"
"1311","11742.21"
"1312","11883.82"
"1313","11919.92"
"1314","11894.23"
"1315","11908.67"
"1316","12057.36"
"1317","12327.37"
"1318","12631.12"
"1319","12883.15"
"1320","13083.36"
"1321","13316.58"
"1322","13669.86"
"1323","14159.25"
"1324","14700.9"
"1325","15203.72"
"1326","15618.52"
"1327","15979.62"
"1328","16331.2"
"1329","16690.31"
"1330","16997.01"
"1331","17177.76"
"1332","17181.14"
"1333","17046.24"
"1334","16835.2"
"1335","16603.86"
"1336","16370.95"
"1337","16141.76"
"1338","15919.72"
"1339","15692.38"
"1340","15439.31"
"1341","15143.67"
"1342","14833.72"
"1343","14568.41"
"1344","14404.38"
"1345","14341.24"
"1346","14326.94"
"1347","14308.64"
"1348","14269.51"
"1349","14235.61"
"1350","14235.38"
"1351","14285.31"
"1352","14383.26"
"1353","14525.45"
"1354","14703"
"1355","14896.73"
"1356","15086.15"
"1357","15250.16"
"1358","15366.05"
"1359","15410.81"
"1360","15370.82"
"1361","15265.43"
"1362","15121.27"
"1363","14964.17"
"1364","14816.28"
"1365","14698.68"
"1366","14626.67"
"1367","14580.93"
"1368","14529.35"
"1369","14443.42"
"1370","14323.24"
"1371","14182.27"
"1372","14035.11"
"1373","13906.7"
"1374","13828.06"
"1375","13826.61"
"1376","13880.52"
"1377","13932.75"
"1378","13928.86"
"1379","13874.81"
"1380","13828.83"
"1381","13848.74"
"1382","13939.58"
"1383","14051.6"
"1384","14133.29"
"1385","14162.58"
"1386","14153.66"
"1387","14122.93"
"1388","14083.87"
"1389","14045.63"
"1390","14016.92"
"1391","13994.68"
"1392","13955.74"
"1393","13875.09"
"1394","13747.73"
"1395","13608.81"
"1396","13498.17"
"1397","13431.61"
"1398","13368.98"
"1399","13262.2"
"1400","13087.73"
"1401","12887.93"
"1402","12716.12"
"1403","12611.13"
"1404","12566.94"
"1405","12568.92"
"1406","12601.25"
"1407","12644.08"
"1408","12676.66"
"1409","12682.75"
"1410","12664.24"
"1411","12627.5"
"1412","12582.2"
"1413","12552.72"
"1414","12567.51"
"1415","12646.81"
"1416","12770.05"
"1417","12904.15"
"1418","13018.79"
"1419","13099.17"
"1420","13135.68"
"1421","13122.66"
"1422","13077.79"
"1423","13027.31"
"1424","12994.72"
"1425","12985.86"
"1426","12999.6"
"1427","13031.86"
"1428","13058.44"
"1429","13046.7"
"1430","12971.92"
"1431","12867.28"
"1432","12791.6"
"1433","12793.74"
"1434","12845.42"
"1435","12882.69"
"1436","12849.33"
"1437","12752.08"
"1438","12627.81"
"1439","12512"
"1440","12427.12"
"1441","12389.24"
"1442","12410.67"
"1443","12472.53"
"1444","12540.39"
"1445","12584.9"
"1446","12620.83"
"1447","12685.16"
"1448","12810.56"
"1449","12991.99"
"1450","13205.41"
"1451","13426.18"
"1452","13625.92"
"1453","13774.37"
"1454","13845.31"
"1455","13846"
"1456","13800.04"
"1457","13727.82"
"1458","13623.01"
"1459","13466.6"
"1460","13243.79"
"1461","12972.71"
"1462","12686.62"
"1463","12414.17"
"1464","12149.93"
"1465","11873.49"
"1466","11572.18"
"1467","11286.42"
"1468","11078.84"
"1469","10996.11"
"1470","10983.05"
"1471","10944.56"
"1472","10805.89"
"1473","10612.86"
"1474","10455.24"
"1475","10403.58"
"1476","10424.13"
"1477","10448.16"
"1478","10421.34"
"1479","10360.4"
"1480","10303.82"
"1481","10281.55"
"1482","10285.69"
"1483","10297.9"
"1484","10301.96"
"1485","10290.11"
"1486","10256.68"
"1487","10203.81"
"1488","10160.95"
"1489","10163.55"
"1490","10224.17"
"1491","10285.07"
"1492","10275.03"
"1493","10161.26"
"1494","10014.16"
"1495","9921.134"
"1496","9928.064"
"1497","9984.015"
"1498","10024.46"
"1499","10013.88"
"1500","9975.039"
"1501","9937.585"
"1502","9920.246"
"1503","9922.909"
"1504","9943.415"
"1505","9970.147"
"1506","9977.578"
"1507","9939.912"
"1508","9862.652"
"1509","9790.486"
"1510","9769.041"
"1511","9803.945"
"1512","9858.596"
"1513","9895.791"
"1514","9905.489"
"1515","9901.653"
"1516","9898.389"
"1517","9900.132"
"1518","9904.225"
"1519","9908.028"
"1520","9910.843"
"1521","9913.137"
"1522","9914.128"
"1523","9902.685"
"1524","9862.619"
"1525","9784.607"
"1526","9702.962"
"1527","9669.021"
"1528","9717.012"
"1529","9797.026"
"1530","9833.39"
"1531","9779.251"
"1532","9696.916"
"1533","9674.505"
"1534","9759.171"
"1535","9879.035"
"1536","9940.87"
"1537","9895.13"
"1538","9789.786"
"1539","9685.786"
"1540","9621.632"
"1541","9597.264"
"1542","9608.618"
"1543","9643.465"
"1544","9678.766"
"1545","9691.327"
"1546","9672.457"
"1547","9628.161"
"1548","9565.813"
"1549","9503.118"
"1550","9465.789"
"1551","9475.861"
"1552","9515.783"
"1553","9544.977"
"1554","9530.491"
"1555","9495.203"
"1556","9485.952"
"1557","9535.393"
"1558","9605.19"
"1559","9635.002"
"1560","9587.278"
"1561","9504.386"
"1562","9446.142"
"1563","9445.295"
"1564","9467.591"
"1565","9468.807"
"1566","9427.187"
"1567","9360.611"
"1568","9290.762"
"1569","9229.924"
"1570","9178.494"
"1571","9136.376"
"1572","9108.802"
"1573","9105.821"
"1574","9136.204"
"1575","9191.713"
"1576","9253.194"
"1577","9301.837"
"1578","9322.746"
"1579","9302.763"
"1580","9237.795"
"1581","9167.245"
"1582","9143.616"
"1583","9193.937"
"1584","9264.517"
"1585","9285.892"
"1586","9226.956"
"1587","9137.379"
"1588","9076.447"
"1589","9071.287"
"1590","9103.317"
"1591","9150.649"
"1592","9195.663"
"1593","9224.85"
"1594","9226.059"
"1595","9201.322"
"1596","9161.854"
"1597","9119.418"
"1598","9088.504"
"1599","9084.761"
"1600","9117.737"
"1601","9170.729"
"1602","9219.988"
"1603","9247.203"
"1604","9248.66"
"1605","9223.188"
"1606","9180.015"
"1607","9146.039"
"1608","9148.462"
"1609","9175.2"
"1610","9171.104"
"1611","9085.489"
"1612","8956.031"
"1613","8882.727"
"1614","8947.693"
"1615","9092.673"
"1616","9197.293"
"1617","9176.332"
"1618","9095.931"
"1619","9062.484"
"1620","9130.184"
"1621","9221.246"
"1622","9238.381"
"1623","9149.891"
"1624","9025.003"
"1625","8939.534"
"1626","8924.987"
"1627","8970.707"
"1628","9061.481"
"1629","9153.145"
"1630","9184.623"
"1631","9112.094"
"1632","8988.436"
"1633","8899.739"
"1634","8901.975"
"1635","8957.222"
"1636","9009.565"
"1637","9025.616"
"1638","9012.418"
"1639","8981.234"
"1640","8943.094"
"1641","8908.769"
"1642","8887.955"
"1643","8878.172"
"1644","8869.272"
"1645","8854.303"
"1646","8845.459"
"1647","8861.801"
"1648","8909.192"
"1649","8952.411"
"1650","8948.587"
"1651","8885.68"
"1652","8804.93"
"1653","8751.66"
"1654","8742.104"
"1655","8763.729"
"1656","8801.854"
"1657","8833.307"
"1658","8830.102"
"1659","8773.683"
"1660","8691.77"
"1661","8626.147"
"1662","8606.373"
"1663","8630.869"
"1664","8692.877"
"1665","8771.728"
"1666","8827.546"
"1667","8822.042"
"1668","8762.109"
"1669","8689.257"
"1670","8641.538"
"1671","8627.476"
"1672","8643.442"
"1673","8680.922"
"1674","8715.248"
"1675","8718.593"
"1676","8682.107"
"1677","8629.639"
"1678","8587.775"
"1679","8572.672"
"1680","8590.859"
"1681","8644.657"
"1682","8704.988"
"1683","8727.441"
"1684","8685.528"
"1685","8622.541"
"1686","8598.366"
"1687","8635.383"
"1688","8684.329"
"1689","8689.766"
"1690","8640.621"
"1691","8569.784"
"1692","8510.229"
"1693","8478.956"
"1694","8484.852"
"1695","8528.055"
"1696","8574.659"
"1697","8582.637"
"1698","8539.863"
"1699","8490.392"
"1700","8482.462"
"1701","8520.749"
"1702","8568.644"
"1703","8590.496"
"1704","8571.455"
"1705","8506.452"
"1706","8403.964"
"1707","8319.464"
"1708","8317.974"
"1709","8409.021"
"1710","8511.056"
"1711","8539.037"
"1712","8490.28"
"1713","8428.7"
"1714","8409.044"
"1715","8416.272"
"1716","8408.465"
"1717","8363.652"
"1718","8314.728"
"1719","8303.227"
"1720","8342.948"
"1721","8412.149"
"1722","8486.218"
"1723","8535.017"
"1724","8525.003"
"1725","8435.594"
"1726","8303.649"
"1727","8181.784"
"1728","8111.163"
"1729","8110.834"
"1730","8194.549"
"1731","8322.326"
"1732","8406.001"
"1733","8373.475"
"1734","8271.893"
"1735","8197.168"
"1736","8209.763"
"1737","8271.911"
"1738","8329.764"
"1739","8355.042"
"1740","8350.811"
"1741","8321.531"
"1742","8266.742"
"1743","8183.234"
"1744","8080.559"
"1745","8015.948"
"1746","8056.85"
"1747","8206.066"
"1748","8364.499"
"1749","8430.802"
"1750","8394.491"
"1751","8309.046"
"1752","8222.669"
"1753","8151.759"
"1754","8103.289"
"1755","8077.79"
"1756","8063.485"
"1757","8047.563"
"1758","8023.639"
"1759","7990.668"
"1760","7951.223"
"1761","7927.213"
"1762","7947.223"
"1763","8019.334"
"1764","8106.814"
"1765","8168.136"
"1766","8185.722"
"1767","8164.112"
"1768","8113.263"
"1769","8071.435"
"1770","8087.65"
"1771","8175.669"
"1772","8266.809"
"1773","8283.592"
"1774","8215.539"
"1775","8116.73"
"1776","8039.815"
"1777","8010.942"
"1778","8045.826"
"1779","8132.029"
"1780","8191.397"
"1781","8141.255"
"1782","8003.802"
"1783","7900.402"
"1784","7930.487"
"1785","8035.507"
"1786","8097.824"
"1787","8055.836"
"1788","7971.316"
"1789","7919.907"
"1790","7929.243"
"1791","7985.086"
"1792","8067.472"
"1793","8133.363"
"1794","8132.205"
"1795","8050.381"
"1796","7945.604"
"1797","7880.456"
"1798","7867.83"
"1799","7883.004"
"1800","7901.9"
"1801","7907.795"
"1802","7886.264"
"1803","7841.978"
"1804","7810.123"
"1805","7824.641"
"1806","7874.946"
"1807","7922.958"
"1808","7940.173"
"1809","7932.965"
"1810","7915.17"
"1811","7896.384"
"1812","7880.896"
"1813","7870.222"
"1814","7846.819"
"1815","7784.22"
"1816","7681.418"
"1817","7602.012"
"1818","7616.552"
"1819","7729.385"
"1820","7883.534"
"1821","8021.283"
"1822","8094.08"
"1823","8056.857"
"1824","7914.628"
"1825","7760.653"
"1826","7690.921"
"1827","7726.019"
"1828","7838.031"
"1829","7984.59"
"1830","8076.962"
"1831","8019.792"
"1832","7827.748"
"1833","7644.568"
"1834","7598.226"
"1835","7658.242"
"1836","7728.748"
"1837","7752.299"
"1838","7753.153"
"1839","7763.011"
"1840","7771.831"
"1841","7738.646"
"1842","7644.326"
"1843","7557.001"
"1844","7563.833"
"1845","7671.676"
"1846","7786.052"
"1847","7817.499"
"1848","7759.811"
"1849","7642.804"
"1850","7510.801"
"1851","7438.423"
"1852","7496.697"
"1853","7652.213"
"1854","7796.139"
"1855","7845.293"
"1856","7816.033"
"1857","7746.828"
"1858","7664.085"
"1859","7580.275"
"1860","7509.589"
"1861","7481.145"
"1862","7529.267"
"1863","7641.609"
"1864","7721.575"
"1865","7676.118"
"1866","7544.592"
"1867","7445.355"
"1868","7453.491"
"1869","7518.497"
"1870","7570.589"
"1871","7594.234"
"1872","7622.543"
"1873","7676.521"
"1874","7716.151"
"1875","7686.118"
"1876","7593.365"
"1877","7526.277"
"1878","7559.894"
"1879","7640.807"
"1880","7663.085"
"1881","7590.958"
"1882","7520.695"
"1883","7551.34"
"1884","7657.439"
"1885","7739.893"
"1886","7731.933"
"1887","7655.863"
"1888","7549.116"
"1889","7455.745"
"1890","7425.22"
"1891","7483.885"
"1892","7570.717"
"1893","7606.375"
"1894","7572.467"
"1895","7516.809"
"1896","7483.488"
"1897","7479.749"
"1898","7500.88"
"1899","7533.856"
"1900","7553.923"
"1901","7539.273"
"1902","7495.151"
"1903","7438.269"
"1904","7387.31"
"1905","7364.373"
"1906","7386.375"
"1907","7418.92"
"1908","7400.145"
"1909","7312.862"
"1910","7241.764"
"1911","7274.924"
"1912","7369.492"
"1913","7395.975"
"1914","7287.419"
"1915","7155.753"
"1916","7135.2"
"1917","7220.887"
"1918","7297.877"
"1919","7286.26"
"1920","7234.168"
"1921","7213.561"
"1922","7235.257"
"1923","7253.765"
"1924","7234.095"
"1925","7191.104"
"1926","7151.566"
"1927","7133.176"
"1928","7144.136"
"1929","7184.697"
"1930","7221.465"
"1931","7212.767"
"1932","7154.578"
"1933","7086.513"
"1934","7044.307"
"1935","7031.725"
"1936","7042.828"
"1937","7078.999"
"1938","7150.77"
"1939","7257.482"
"1940","7335.335"
"1941","7301.431"
"1942","7161.577"
"1943","7038.975"
"1944","7036.297"
"1945","7093.15"
"1946","7094.009"
"1947","7016.252"
"1948","6964.027"
"1949","7025.288"
"1950","7140.896"
"1951","7200.47"
"1952","7157.914"
"1953","7055.447"
"1954","6941.783"
"1955","6865.363"
"1956","6873.366"
"1957","6957.445"
"1958","7034.531"
"1959","7035.138"
"1960","6994.854"
"1961","6983.869"
"1962","7014.569"
"1963","7024.772"
"1964","6964.224"
"1965","6870.644"
"1966","6809.177"
"1967","6809.668"
"1968","6859.355"
"1969","6938.005"
"1970","7002.415"
"1971","7004.27"
"1972","6945.181"
"1973","6881.816"
"1974","6859.086"
"1975","6859.99"
"1976","6852.216"
"1977","6825.948"
"1978","6793.507"
"1979","6765.652"
"1980","6743.942"
"1981","6727.95"
"1982","6719.109"
"1983","6720.436"
"1984","6732.983"
"1985","6751.59"
"1986","6769.304"
"1987","6771.333"
"1988","6737.187"
"1989","6670.118"
"1990","6633.932"
"1991","6691.671"
"1992","6795.12"
"1993","6829.138"
"1994","6750.344"
"1995","6665.091"
"1996","6682.233"
"1997","6778.194"
"1998","6865.289"
"1999","6889.39"
"2000","6852.199"
"2001","6767.296"
"2002","6689.391"
"2003","6687.166"
"2004","6761.306"
"2005","6825.406"
"2006","6809.858"
"2007","6749.013"
"2008","6704.848"
"2009","6690.786"
"2010","6672.577"
"2011","6627.259"
"2012","6576.365"
"2013","6548.946"
"2014","6548.589"
"2015","6560.182"
"2016","6574.042"
"2017","6594.58"
"2018","6625.931"
"2019","6650.981"
"2020","6641.525"
"2021","6593.352"
"2022","6543.223"
"2023","6525.394"
"2024","6534.139"
"2025","6548.75"
"2026","6547.11"
"2027","6505.489"
"2028","6419.033"
"2029","6358.757"
"2030","6407.828"
"2031","6531.628"
"2032","6597.935"
"2033","6536.153"
"2034","6444.467"
"2035","6436.862"
"2036","6515.234"
"2037","6618.974"
"2038","6682.496"
"2039","6633.185"
"2040","6428.304"
"2041","6202.354"
"2042","6147.591"
"2043","6286.816"
"2044","6455.049"
"2045","6516.05"
"2046","6469.506"
"2047","6346.482"
"2048","6201.139"
"2049","6103.896"
"2050","6093.77"
"2051","6142.542"
"2052","6215.368"
"2053","6291.703"
"2054","6357.075"
"2055","6394.868"
"2056","6385.695"
"2057","6317.844"
"2058","6211.343"
"2059","6094.928"
"2060","6007.08"
"2061","5993.794"
"2062","6069.716"
"2063","6177.972"
"2064","6259.458"
"2065","6313.645"
"2066","6365.548"
"2067","6401.249"
"2068","6355.955"
"2069","6192.507"
"2070","5996.724"
"2071","5879.716"
"2072","5875.665"
"2073","5961.264"
"2074","6090.529"
"2075","6172.954"
"2076","6130.071"
"2077","6003.07"
"2078","5881.153"
"2079","5823.641"
"2080","5855.259"
"2081","5976.813"
"2082","6115.995"
"2083","6190.967"
"2084","6185.329"
"2085","6123.266"
"2086","6019.76"
"2087","5873.102"
"2088","5697.259"
"2089","5593.251"
"2090","5681.349"
"2091","5921.268"
"2092","6130.308"
"2093","6188.051"
"2094","6137.495"
"2095","6042.661"
"2096","5943.041"
"2097","5866.419"
"2098","5813.021"
"2099","5749.997"
"2100","5667.403"
"2101","5637.998"
"2102","5738.04"
"2103","5898.2"
"2104","5963.919"
"2105","5889.845"
"2106","5802.514"
"2107","5807.121"
"2108","5849.061"
"2109","5835.492"
"2110","5754.253"
"2111","5653.453"
"2112","5561.683"
"2113","5466.911"
"2114","5362.292"
"2115","5294.583"
"2116","5324.871"
"2117","5437.391"
"2118","5547.696"
"2119","5598.972"
"2120","5603.63"
"2121","5584.714"
"2122","5571.337"
"2123","5592.843"
"2124","5624.283"
"2125","5585.505"
"2126","5448.971"
"2127","5330.125"
"2128","5341.591"
"2129","5405.439"
"2130","5365.15"
"2131","5238.698"
"2132","5237.584"
"2133","5465.811"
"2134","5698.098"
"2135","5689.549"
"2136","5494.048"
"2137","5302.996"
"2138","5218.034"
"2139","5236.583"
"2140","5323.996"
"2141","5370.561"
"2142","5276.393"
"2143","5126.731"
"2144","5089.96"
"2145","5196.633"
"2146","5319.716"
"2147","5367.622"
"2148","5372.243"
"2149","5381.022"
"2150","5397.272"
"2151","5403.584"
"2152","5363.559"
"2153","5220.576"
"2154","4978.765"
"2155","4801.58"
"2156","4842.436"
"2157","5011.567"
"2158","5124.533"
"2159","5135.906"
"2160","5136.157"
"2161","5179.723"
"2162","5225.722"
"2163","5230.364"
"2164","5210.227"
"2165","5201.911"
"2166","5212.635"
"2167","5224.72"
"2168","5213.105"
"2169","5140.167"
"2170","4993.765"
"2171","4889.049"
"2172","4961.928"
"2173","5125.333"
"2174","5139.458"
"2175","4953.536"
"2176","4816.471"
"2177","4911.463"
"2178","5082.569"
"2179","5116.639"
"2180","5000.881"
"2181","4832.252"
"2182","4698.521"
"2183","4674.761"
"2184","4782.485"
"2185","4898.674"
"2186","4899.082"
"2187","4817.413"
"2188","4748.898"
"2189","4728.01"
"2190","4734.078"
"2191","4749.104"
"2192","4764.286"
"2193","4780.98"
"2194","4842.044"
"2195","4989.857"
"2196","5122.691"
"2197","5049.945"
"2198","4766.998"
"2199","4526.086"
"2200","4506.56"
"2201","4610.178"
"2202","4702.917"
"2203","4769.35"
"2204","4842.916"
"2205","4907.55"
"2206","4901.62"
"2207","4804.956"
"2208","4681.187"
"2209","4595.535"
"2210","4577.461"
"2211","4638.125"
"2212","4698.096"
"2213","4628.163"
"2214","4442.484"
"2215","4331.183"
"2216","4400.545"
"2217","4513.647"
"2218","4521.009"
"2219","4424.367"
"2220","4279.601"
"2221","4146.896"
"2222","4088.74"
"2223","4114.453"
"2224","4153.243"
"2225","4156.962"
"2226","4170.179"
"2227","4245.526"
"2228","4363.361"
"2229","4473.292"
"2230","4529.81"
"2231","4492.319"
"2232","4369.106"
"2233","4252.199"
"2234","4204.854"
"2235","4157.012"
"2236","4028.314"
"2237","3893.433"
"2238","3892.254"
"2239","3995.177"
"2240","4015.174"
"2241","3893.369"
"2242","3815.832"
"2243","3917.876"
"2244","4046.167"
"2245","4012.15"
"2246","3891.291"
"2247","3876.838"
"2248","3958.73"
"2249","3937.189"
"2250","3736.245"
"2251","3515.229"
"2252","3413.087"
"2253","3405.982"
"2254","3435.698"
"2255","3460.87"
"2256","3449.219"
"2257","3396.312"
"2258","3322.249"
"2259","3266.111"
"2260","3296.468"
"2261","3429.243"
"2262","3504.033"
"2263","3370.092"
"2264","3169.597"
"2265","3144.804"
"2266","3287.857"
"2267","3403.697"
"2268","3386.122"
"2269","3258.959"
"2270","3086.157"
"2271","3010.869"
"2272","3137.483"
"2273","3303.027"
"2274","3281.714"
"2275","3100.454"
"2276","2936.646"
"2277","2881.426"
"2278","2928.156"
"2279","3010.287"
"2280","2951.974"
"2281","2648.105"
"2282","2312.003"
"2283","2195.477"
"2284","2269.801"
"2285","2382.356"
"2286","2424.927"
"2287","2328.425"
"2288","2153.06"
"2289","2142.825"
"2290","2399.581"
"2291","2618.737"
"2292","2519.455"
"2293","2260.047"
"2294","2104.533"
"2295","2039.809"
"2296","1906.884"
"2297","1733.814"
"2298","1729.832"
"2299","1918.632"
"2300","1998.043"
