,"Scan 00871"
"400","10535.58"
"401","10500.02"
"402","10436.48"
"403","10367.74"
"404","10316.45"
"405","10302.28"
"406","10320.67"
"407","10354.84"
"408","10388"
"409","10404.45"
"410","10400.67"
"411","10381.65"
"412","10352.51"
"413","10318.43"
"414","10286.52"
"415","10265.69"
"416","10264.87"
"417","10292.57"
"418","10345.74"
"419","10407.05"
"420","10458.44"
"421","10482.1"
"422","10471.42"
"423","10437.65"
"424","10393.59"
"425","10351.94"
"426","10321.64"
"427","10303.93"
"428","10299.08"
"429","10307.34"
"430","10328.08"
"431","10358.22"
"432","10394.32"
"433","10432.95"
"434","10470.46"
"435","10502.47"
"436","10524.4"
"437","10531.74"
"438","10521.36"
"439","10496.04"
"440","10460.21"
"441","10418.22"
"442","10374.46"
"443","10333.42"
"444","10299.62"
"445","10277.56"
"446","10270.58"
"447","10274.57"
"448","10282.31"
"449","10286.63"
"450","10281.32"
"451","10267.72"
"452","10250.83"
"453","10235.67"
"454","10226.66"
"455","10222.54"
"456","10218.81"
"457","10210.95"
"458","10194.92"
"459","10172.13"
"460","10147.59"
"461","10126.33"
"462","10112.83"
"463","10103.7"
"464","10089.71"
"465","10061.54"
"466","10010.88"
"467","9945.39"
"468","9886.027"
"469","9854.029"
"470","9869.394"
"471","9929.942"
"472","10013.22"
"473","10096.17"
"474","10156.47"
"475","10186.18"
"476","10191.56"
"477","10179.45"
"478","10156.53"
"479","10126.26"
"480","10088.68"
"481","10043.68"
"482","9991.287"
"483","9936.271"
"484","9888.631"
"485","9858.59"
"486","9855.938"
"487","9878.876"
"488","9912.142"
"489","9939.801"
"490","9946.394"
"491","9928.901"
"492","9899.132"
"493","9869.686"
"494","9852.726"
"495","9848.029"
"496","9840.439"
"497","9813.985"
"498","9753.287"
"499","9659.479"
"500","9553.582"
"501","9457.688"
"502","9393.258"
"503","9365.508"
"504","9360.386"
"505","9362.789"
"506","9358.021"
"507","9340.849"
"508","9316.962"
"509","9292.624"
"510","9273.862"
"511","9261.133"
"512","9248.726"
"513","9230.638"
"514","9201.151"
"515","9160.859"
"516","9116.973"
"517","9076.972"
"518","9048.043"
"519","9031.863"
"520","9024.709"
"521","9022.65"
"522","9021.862"
"523","9020.181"
"524","9016.93"
"525","9011.492"
"526","9003.2"
"527","8990.55"
"528","8971.336"
"529","8943.353"
"530","8904.922"
"531","8861.721"
"532","8824.818"
"533","8805.346"
"534","8813.022"
"535","8841.394"
"536","8873.526"
"537","8892.398"
"538","8882.916"
"539","8848.23"
"540","8801.814"
"541","8757.186"
"542","8726.404"
"543","8710.133"
"544","8703.513"
"545","8701.67"
"546","8700.264"
"547","8698.345"
"548","8696.364"
"549","8694.767"
"550","8693.815"
"551","8692.774"
"552","8690.573"
"553","8686.147"
"554","8678.777"
"555","8669.229"
"556","8658.674"
"557","8648.278"
"558","8639.137"
"559","8632.08"
"560","8627.892"
"561","8627.345"
"562","8630.184"
"563","8633.325"
"564","8633.222"
"565","8626.363"
"566","8612.956"
"567","8601.196"
"568","8600.292"
"569","8619.263"
"570","8656.896"
"571","8694.829"
"572","8713.141"
"573","8692.486"
"574","8632.818"
"575","8559.145"
"576","8498.047"
"577","8474.96"
"578","8491.426"
"579","8525.145"
"580","8552.866"
"581","8552.974"
"582","8526.399"
"583","8491.177"
"584","8465.691"
"585","8466.262"
"586","8489.671"
"587","8521.657"
"588","8547.9"
"589","8556.334"
"590","8549.735"
"591","8536.991"
"592","8526.96"
"593","8526.206"
"594","8530.712"
"595","8533.399"
"596","8527.214"
"597","8508.836"
"598","8486.846"
"599","8472.18"
"600","8475.696"
"601","8501.129"
"602","8536.461"
"603","8567.618"
"604","8580.717"
"605","8570.106"
"606","8542.764"
"607","8506.705"
"608","8469.863"
"609","8438.641"
"610","8417.813"
"611","8412.06"
"612","8425.569"
"613","8455.936"
"614","8495.913"
"615","8538.175"
"616","8575.666"
"617","8603.409"
"618","8617.462"
"619","8613.901"
"620","8590.25"
"621","8551.389"
"622","8504.531"
"623","8456.865"
"624","8415.549"
"625","8387.696"
"626","8380.399"
"627","8400.659"
"628","8447.187"
"629","8501.983"
"630","8545.102"
"631","8557.094"
"632","8535.044"
"633","8497.34"
"634","8463.719"
"635","8452.81"
"636","8465.752"
"637","8489.271"
"638","8509.704"
"639","8514.867"
"640","8505.177"
"641","8487.555"
"642","8468.956"
"643","8454.83"
"644","8443.212"
"645","8429.849"
"646","8410.511"
"647","8384.372"
"648","8360.372"
"649","8349.156"
"650","8361.213"
"651","8396.96"
"652","8439.833"
"653","8471.676"
"654","8475.136"
"655","8450.564"
"656","8416.261"
"657","8391.264"
"658","8392.969"
"659","8421.752"
"660","8467.757"
"661","8521.011"
"662","8571.543"
"663","8609.267"
"664","8624.068"
"665","8605.872"
"666","8552.243"
"667","8483.368"
"668","8423.554"
"669","8396.818"
"670","8411.58"
"671","8450.651"
"672","8494.516"
"673","8524.391"
"674","8535.405"
"675","8535.632"
"676","8533.62"
"677","8537.102"
"678","8546.787"
"679","8559.742"
"680","8573.01"
"681","8583.828"
"682","8590.298"
"683","8590.744"
"684","8583.524"
"685","8569.485"
"686","8555.097"
"687","8547.565"
"688","8553.86"
"689","8573.718"
"690","8598.218"
"691","8617.961"
"692","8624.385"
"693","8618.408"
"694","8607.028"
"695","8597.32"
"696","8594.941"
"697","8598.124"
"698","8602.679"
"699","8604.434"
"700","8600.854"
"701","8593.557"
"702","8584.802"
"703","8576.843"
"704","8571.963"
"705","8572.486"
"706","8580.734"
"707","8598.621"
"708","8623.27"
"709","8648.658"
"710","8668.712"
"711","8678.558"
"712","8679.386"
"713","8674.333"
"714","8666.527"
"715","8658.846"
"716","8653.599"
"717","8653.009"
"718","8659.237"
"719","8672.759"
"720","8692.113"
"721","8715.729"
"722","8741.909"
"723","8767.626"
"724","8789.107"
"725","8802.583"
"726","8805.663"
"727","8801.624"
"728","8795.189"
"729","8791.048"
"730","8791.644"
"731","8795.289"
"732","8799.863"
"733","8803.356"
"734","8805.732"
"735","8808.676"
"736","8813.919"
"737","8822.45"
"738","8830.38"
"739","8831.893"
"740","8821.17"
"741","8796.943"
"742","8770.226"
"743","8754.068"
"744","8761.154"
"745","8792.304"
"746","8834.009"
"747","8871.922"
"748","8893.198"
"749","8898.94"
"750","8897.904"
"751","8898.914"
"752","8908.311"
"753","8923.397"
"754","8939.408"
"755","8951.652"
"756","8959.022"
"757","8965.914"
"758","8977.186"
"759","8997.223"
"760","9024.595"
"761","9053.936"
"762","9079.808"
"763","9097.413"
"764","9104.75"
"765","9100.596"
"766","9083.771"
"767","9056.435"
"768","9026.696"
"769","9003.262"
"770","8994.504"
"771","9004.081"
"772","9032.071"
"773","9078.469"
"774","9141.47"
"775","9210.464"
"776","9272.166"
"777","9313.374"
"778","9328.595"
"779","9326.743"
"780","9318.312"
"781","9313.41"
"782","9316.697"
"783","9328.613"
"784","9349.486"
"785","9378.07"
"786","9405.489"
"787","9420.581"
"788","9412.307"
"789","9379.985"
"790","9341.512"
"791","9316.692"
"792","9323.698"
"793","9358.738"
"794","9402.236"
"795","9434.286"
"796","9440.441"
"797","9429.695"
"798","9417.334"
"799","9418.483"
"800","9439.069"
"801","9470.619"
"802","9503.413"
"803","9528.434"
"804","9544.153"
"805","9553.622"
"806","9559.948"
"807","9565.751"
"808","9571.951"
"809","9579.102"
"810","9587.757"
"811","9598.364"
"812","9611.26"
"813","9626.763"
"814","9644.857"
"815","9662.869"
"816","9676.875"
"817","9682.952"
"818","9678.326"
"819","9663.144"
"820","9638.011"
"821","9603.909"
"822","9569.491"
"823","9550.469"
"824","9562.814"
"825","9616.637"
"826","9691.434"
"827","9756.738"
"828","9782.35"
"829","9758.479"
"830","9710.477"
"831","9667.137"
"832","9654.811"
"833","9673.022"
"834","9704.671"
"835","9732.415"
"836","9744.718"
"837","9748.727"
"838","9755.349"
"839","9775.073"
"840","9807.266"
"841","9839.152"
"842","9857.354"
"843","9851.447"
"844","9828.838"
"845","9803.578"
"846","9789.665"
"847","9794.542"
"848","9813.477"
"849","9840.405"
"850","9869.665"
"851","9900.047"
"852","9933.188"
"853","9970.778"
"854","10011.95"
"855","10047.8"
"856","10067.83"
"857","10062.13"
"858","10034.34"
"859","10001.99"
"860","9983.225"
"861","9992.211"
"862","10022.08"
"863","10059.05"
"864","10089.42"
"865","10106.8"
"866","10116.34"
"867","10124.22"
"868","10135.99"
"869","10151.98"
"870","10169.78"
"871","10186.97"
"872","10202.95"
"873","10221.49"
"874","10246.99"
"875","10283.22"
"876","10324.74"
"877","10359.05"
"878","10373.49"
"879","10360.84"
"880","10333.57"
"881","10308.55"
"882","10302.08"
"883","10315.97"
"884","10336.38"
"885","10348.72"
"886","10341.97"
"887","10324.01"
"888","10308.81"
"889","10310.21"
"890","10333.48"
"891","10371.37"
"892","10415.6"
"893","10458.66"
"894","10498.56"
"895","10535.8"
"896","10570.89"
"897","10604.14"
"898","10635.52"
"899","10664.97"
"900","10692.15"
"901","10714.21"
"902","10726.81"
"903","10725.59"
"904","10710.11"
"905","10689.72"
"906","10675.32"
"907","10676.94"
"908","10692.67"
"909","10711.81"
"910","10723.46"
"911","10721.57"
"912","10715.37"
"913","10717.09"
"914","10738.27"
"915","10776.67"
"916","10817.85"
"917","10846.93"
"918","10852.85"
"919","10839.13"
"920","10812.83"
"921","10780.98"
"922","10750.83"
"923","10729.85"
"924","10725.5"
"925","10742.86"
"926","10776.2"
"927","10816.78"
"928","10855.94"
"929","10887.78"
"930","10909.67"
"931","10919.15"
"932","10915.19"
"933","10904.05"
"934","10894.27"
"935","10894.25"
"936","10906.12"
"937","10923.94"
"938","10941.28"
"939","10952.67"
"940","10957.99"
"941","10958.99"
"942","10957.42"
"943","10954.77"
"944","10952.23"
"945","10950.97"
"946","10951.68"
"947","10952.39"
"948","10950.11"
"949","10941.95"
"950","10926.74"
"951","10905.83"
"952","10880.74"
"953","10854.23"
"954","10836.26"
"955","10839.44"
"956","10876.05"
"957","10943.62"
"958","11019.34"
"959","11078.91"
"960","11102.34"
"961","11094.26"
"962","11068"
"963","11036.82"
"964","11008.96"
"965","10986.13"
"966","10969.55"
"967","10960.92"
"968","10964.43"
"969","10985.11"
"970","11027.63"
"971","11084.33"
"972","11132.26"
"973","11147.49"
"974","11113.74"
"975","11051.84"
"976","10993.84"
"977","10970.92"
"978","10988.51"
"979","11023.22"
"980","11050.13"
"981","11050.82"
"982","11034.54"
"983","11017.91"
"984","11016.9"
"985","11032.5"
"986","11051"
"987","11058.05"
"988","11044.77"
"989","11022.01"
"990","11005.04"
"991","11008.29"
"992","11031.18"
"993","11060.59"
"994","11082.98"
"995","11090"
"996","11088.6"
"997","11088.54"
"998","11098.87"
"999","11119.5"
"1000","11144.04"
"1001","11165.95"
"1002","11181.27"
"1003","11192.12"
"1004","11201.51"
"1005","11212.43"
"1006","11227.37"
"1007","11245.28"
"1008","11263.67"
"1009","11280.02"
"1010","11291.44"
"1011","11294.43"
"1012","11285.48"
"1013","11263.38"
"1014","11239.68"
"1015","11230.2"
"1016","11250.22"
"1017","11297.02"
"1018","11346.75"
"1019","11374.35"
"1020","11363.12"
"1021","11331.79"
"1022","11308.44"
"1023","11319.89"
"1024","11366.83"
"1025","11425.73"
"1026","11472.18"
"1027","11490.2"
"1028","11490.6"
"1029","11489.42"
"1030","11501.63"
"1031","11528.13"
"1032","11559.92"
"1033","11587.79"
"1034","11605.34"
"1035","11612.54"
"1036","11610.23"
"1037","11600.04"
"1038","11590.24"
"1039","11592.49"
"1040","11618.34"
"1041","11669.48"
"1042","11731.84"
"1043","11789.92"
"1044","11830.02"
"1045","11848.4"
"1046","11844.76"
"1047","11819.11"
"1048","11779.83"
"1049","11744.5"
"1050","11731.15"
"1051","11750.76"
"1052","11789.32"
"1053","11827.3"
"1054","11846.32"
"1055","11843.89"
"1056","11829.03"
"1057","11811.01"
"1058","11799.05"
"1059","11802.19"
"1060","11829.43"
"1061","11887.06"
"1062","11960.77"
"1063","12026.91"
"1064","12062.15"
"1065","12060.65"
"1066","12040.04"
"1067","12019.61"
"1068","12014.45"
"1069","12021.65"
"1070","12033.63"
"1071","12043.25"
"1072","12051"
"1073","12063.57"
"1074","12087.79"
"1075","12123.95"
"1076","12157.04"
"1077","12169.88"
"1078","12149.15"
"1079","12111.33"
"1080","12086.56"
"1081","12104.29"
"1082","12163.65"
"1083","12224.33"
"1084","12243.37"
"1085","12194"
"1086","12111.43"
"1087","12045.73"
"1088","12042.89"
"1089","12094.1"
"1090","12151.77"
"1091","12167.72"
"1092","12124.1"
"1093","12061.62"
"1094","12027.67"
"1095","12059.25"
"1096","12133.13"
"1097","12204.37"
"1098","12229.51"
"1099","12199.33"
"1100","12138.36"
"1101","12072.56"
"1102","12023.08"
"1103","11998.13"
"1104","12003.83"
"1105","12043.5"
"1106","12098.09"
"1107","12137.69"
"1108","12133.09"
"1109","12083.33"
"1110","12022.92"
"1111","11988.7"
"1112","12004.95"
"1113","12053.36"
"1114","12106.6"
"1115","12139.34"
"1116","12147.28"
"1117","12138.46"
"1118","12121.04"
"1119","12100.69"
"1120","12079.4"
"1121","12058.86"
"1122","12041.26"
"1123","12030.7"
"1124","12031.76"
"1125","12048.43"
"1126","12077.74"
"1127","12112.23"
"1128","12144.31"
"1129","12167.29"
"1130","12175.78"
"1131","12164.52"
"1132","12132.39"
"1133","12095.44"
"1134","12074.18"
"1135","12086.89"
"1136","12124.52"
"1137","12159.83"
"1138","12165.58"
"1139","12135.4"
"1140","12095.9"
"1141","12076.61"
"1142","12097.04"
"1143","12136.82"
"1144","12165.63"
"1145","12156.22"
"1146","12115.6"
"1147","12072.12"
"1148","12054.04"
"1149","12071.82"
"1150","12110.24"
"1151","12152.09"
"1152","12185.19"
"1153","12214.7"
"1154","12249.56"
"1155","12296.72"
"1156","12345.43"
"1157","12375.46"
"1158","12367.21"
"1159","12324.52"
"1160","12279.41"
"1161","12265.51"
"1162","12301.77"
"1163","12366.65"
"1164","12431.72"
"1165","12472.42"
"1166","12490.6"
"1167","12499.05"
"1168","12509.85"
"1169","12520.06"
"1170","12512.81"
"1171","12470.84"
"1172","12394.59"
"1173","12320.13"
"1174","12287.79"
"1175","12325.8"
"1176","12405.66"
"1177","12482.31"
"1178","12514.21"
"1179","12502.1"
"1180","12474.36"
"1181","12459.46"
"1182","12469.57"
"1183","12494.47"
"1184","12522.37"
"1185","12544.79"
"1186","12563.2"
"1187","12580.91"
"1188","12600.08"
"1189","12614.96"
"1190","12616.55"
"1191","12596.74"
"1192","12564.14"
"1193","12541.96"
"1194","12553.68"
"1195","12604.3"
"1196","12666.28"
"1197","12708.74"
"1198","12710.38"
"1199","12686.02"
"1200","12658.98"
"1201","12650.61"
"1202","12665.63"
"1203","12700.36"
"1204","12750.71"
"1205","12803.69"
"1206","12837.53"
"1207","12830.17"
"1208","12778.27"
"1209","12715.13"
"1210","12678.34"
"1211","12693.72"
"1212","12739.51"
"1213","12781.87"
"1214","12791.22"
"1215","12775.38"
"1216","12761.5"
"1217","12775.79"
"1218","12818.93"
"1219","12866.32"
"1220","12892.46"
"1221","12887.82"
"1222","12872.79"
"1223","12871.03"
"1224","12898.73"
"1225","12944.38"
"1226","12990.07"
"1227","13019.47"
"1228","13028.22"
"1229","13017.4"
"1230","12988.51"
"1231","12949.69"
"1232","12914.73"
"1233","12897.46"
"1234","12904.25"
"1235","12929.94"
"1236","12968.4"
"1237","13012.84"
"1238","13054.63"
"1239","13084.76"
"1240","13096.76"
"1241","13097.86"
"1242","13100.02"
"1243","13114.16"
"1244","13139.87"
"1245","13169.56"
"1246","13195.54"
"1247","13210"
"1248","13205.04"
"1249","13172.85"
"1250","13119.32"
"1251","13076.57"
"1252","13079.71"
"1253","13148.28"
"1254","13248.02"
"1255","13332.98"
"1256","13364.85"
"1257","13354.38"
"1258","13331.65"
"1259","13325.15"
"1260","13342.63"
"1261","13377.81"
"1262","13423.96"
"1263","13471.37"
"1264","13506.88"
"1265","13517.25"
"1266","13500.22"
"1267","13474.44"
"1268","13460.93"
"1269","13471.68"
"1270","13489.4"
"1271","13490.83"
"1272","13458.87"
"1273","13411.47"
"1274","13379.03"
"1275","13388.6"
"1276","13432.8"
"1277","13483.93"
"1278","13514.82"
"1279","13514.77"
"1280","13488.55"
"1281","13441.68"
"1282","13383.59"
"1283","13329.62"
"1284","13295.6"
"1285","13290.85"
"1286","13309.08"
"1287","13341.7"
"1288","13380.6"
"1289","13419.57"
"1290","13452.83"
"1291","13475.46"
"1292","13487.86"
"1293","13492.58"
"1294","13492.78"
"1295","13497.84"
"1296","13521.15"
"1297","13575.27"
"1298","13654.71"
"1299","13736.76"
"1300","13798.25"
"1301","13826.51"
"1302","13823.9"
"1303","13793.96"
"1304","13744.15"
"1305","13690.39"
"1306","13649.72"
"1307","13634.05"
"1308","13638.32"
"1309","13653.97"
"1310","13671.88"
"1311","13680.12"
"1312","13665.88"
"1313","13620.1"
"1314","13563.73"
"1315","13532.16"
"1316","13557.19"
"1317","13622.74"
"1318","13679.3"
"1319","13678.9"
"1320","13623.98"
"1321","13567.23"
"1322","13562.64"
"1323","13622.27"
"1324","13699.12"
"1325","13741.95"
"1326","13726.47"
"1327","13681.98"
"1328","13644.18"
"1329","13636.29"
"1330","13646.12"
"1331","13655.23"
"1332","13650.78"
"1333","13642.83"
"1334","13647.27"
"1335","13675.44"
"1336","13712.24"
"1337","13732.93"
"1338","13716.63"
"1339","13675.16"
"1340","13636.8"
"1341","13627.98"
"1342","13650.61"
"1343","13689.9"
"1344","13731.04"
"1345","13764.59"
"1346","13786.04"
"1347","13791.15"
"1348","13779.54"
"1349","13755.44"
"1350","13723.39"
"1351","13690.44"
"1352","13667.54"
"1353","13665.98"
"1354","13690.03"
"1355","13729.74"
"1356","13773.36"
"1357","13808.79"
"1358","13822.85"
"1359","13802.21"
"1360","13742.81"
"1361","13673.35"
"1362","13629.74"
"1363","13638.29"
"1364","13681.16"
"1365","13727.75"
"1366","13752.15"
"1367","13756.42"
"1368","13752.98"
"1369","13752.15"
"1370","13748.09"
"1371","13727.36"
"1372","13679.05"
"1373","13618.39"
"1374","13575.84"
"1375","13579.24"
"1376","13618.19"
"1377","13655.01"
"1378","13653.51"
"1379","13614.69"
"1380","13571.75"
"1381","13557.85"
"1382","13578.35"
"1383","13609.78"
"1384","13627.84"
"1385","13626.76"
"1386","13623.6"
"1387","13636.56"
"1388","13667.81"
"1389","13696.17"
"1390","13698.8"
"1391","13669.26"
"1392","13629.23"
"1393","13603.12"
"1394","13603.39"
"1395","13618.67"
"1396","13634.77"
"1397","13642.86"
"1398","13646.65"
"1399","13651.59"
"1400","13659.84"
"1401","13664.6"
"1402","13657.56"
"1403","13635.89"
"1404","13613.58"
"1405","13607.84"
"1406","13628.75"
"1407","13661.28"
"1408","13684.85"
"1409","13685.06"
"1410","13672.02"
"1411","13661.95"
"1412","13666.18"
"1413","13674.33"
"1414","13669.93"
"1415","13642.06"
"1416","13606.94"
"1417","13589.19"
"1418","13607.48"
"1419","13648.12"
"1420","13686.44"
"1421","13702.45"
"1422","13703.67"
"1423","13707.74"
"1424","13730.1"
"1425","13771.92"
"1426","13828.71"
"1427","13895.07"
"1428","13959.13"
"1429","14006.34"
"1430","14025.49"
"1431","14029.83"
"1432","14043.44"
"1433","14086.94"
"1434","14153.94"
"1435","14225.58"
"1436","14283.99"
"1437","14319.65"
"1438","14327.03"
"1439","14303.29"
"1440","14267.21"
"1441","14248.22"
"1442","14270.76"
"1443","14316.89"
"1444","14347.56"
"1445","14329.42"
"1446","14279.3"
"1447","14239.2"
"1448","14245.64"
"1449","14286.67"
"1450","14326.03"
"1451","14331.34"
"1452","14304.37"
"1453","14263.87"
"1454","14226.81"
"1455","14194.31"
"1456","14159.73"
"1457","14117.35"
"1458","14068.87"
"1459","14019.54"
"1460","13974.9"
"1461","13942.44"
"1462","13930.58"
"1463","13943.66"
"1464","13956.57"
"1465","13931.28"
"1466","13838.89"
"1467","13713.33"
"1468","13614.72"
"1469","13591.62"
"1470","13618.1"
"1471","13639.05"
"1472","13608.49"
"1473","13534.53"
"1474","13445.01"
"1475","13365.99"
"1476","13313.73"
"1477","13301.24"
"1478","13333.25"
"1479","13373.98"
"1480","13375.25"
"1481","13304.05"
"1482","13194.75"
"1483","13100.29"
"1484","13062.61"
"1485","13079.84"
"1486","13139.32"
"1487","13221.96"
"1488","13286.19"
"1489","13285.53"
"1490","13199.24"
"1491","13085.87"
"1492","13019.16"
"1493","13039.95"
"1494","13100.79"
"1495","13139.62"
"1496","13121.19"
"1497","13072.78"
"1498","13030.47"
"1499","13016.64"
"1500","13026.1"
"1501","13050.34"
"1502","13079.09"
"1503","13099.02"
"1504","13096.68"
"1505","13068.17"
"1506","13023.6"
"1507","12974.29"
"1508","12932.97"
"1509","12914.15"
"1510","12931.73"
"1511","12980.65"
"1512","13035.88"
"1513","13072.36"
"1514","13082.45"
"1515","13073.96"
"1516","13055.11"
"1517","13032.6"
"1518","13012.04"
"1519","12998.47"
"1520","12991.29"
"1521","12986.54"
"1522","12980.35"
"1523","12970.39"
"1524","12955.03"
"1525","12933.44"
"1526","12909.82"
"1527","12890.3"
"1528","12879.14"
"1529","12871.27"
"1530","12858.8"
"1531","12835.97"
"1532","12805.25"
"1533","12771.04"
"1534","12739.49"
"1535","12721.81"
"1536","12730.1"
"1537","12766.86"
"1538","12813.2"
"1539","12847.45"
"1540","12858.08"
"1541","12851.11"
"1542","12834.15"
"1543","12811.35"
"1544","12782.21"
"1545","12746.22"
"1546","12710.11"
"1547","12687.9"
"1548","12692.6"
"1549","12716.46"
"1550","12735.68"
"1551","12728.73"
"1552","12701.43"
"1553","12675.53"
"1554","12669.73"
"1555","12679.8"
"1556","12691.71"
"1557","12693.08"
"1558","12680.16"
"1559","12651.85"
"1560","12611.2"
"1561","12575.67"
"1562","12565.9"
"1563","12588.29"
"1564","12614.05"
"1565","12609.31"
"1566","12563.46"
"1567","12507.01"
"1568","12474.08"
"1569","12477.75"
"1570","12504.48"
"1571","12539.05"
"1572","12568.17"
"1573","12580.2"
"1574","12565.21"
"1575","12532.41"
"1576","12503.24"
"1577","12496.05"
"1578","12504.55"
"1579","12511.47"
"1580","12503.99"
"1581","12490.74"
"1582","12486.85"
"1583","12502.6"
"1584","12533.01"
"1585","12570.04"
"1586","12601.18"
"1587","12604.57"
"1588","12557.79"
"1589","12470.89"
"1590","12399.99"
"1591","12401.77"
"1592","12467.7"
"1593","12526.37"
"1594","12510.48"
"1595","12430.88"
"1596","12349.07"
"1597","12319.07"
"1598","12336.92"
"1599","12374.06"
"1600","12404.79"
"1601","12416.23"
"1602","12398.94"
"1603","12355.29"
"1604","12319.19"
"1605","12329.39"
"1606","12392.19"
"1607","12458.76"
"1608","12476.78"
"1609","12446.49"
"1610","12425.7"
"1611","12469.62"
"1612","12559.54"
"1613","12624.59"
"1614","12604.94"
"1615","12529.4"
"1616","12466.02"
"1617","12466.59"
"1618","12512.67"
"1619","12567.14"
"1620","12600.72"
"1621","12604.1"
"1622","12571.3"
"1623","12510.47"
"1624","12451.53"
"1625","12425.33"
"1626","12442.66"
"1627","12495.21"
"1628","12572.45"
"1629","12649.5"
"1630","12693.05"
"1631","12677.08"
"1632","12616.62"
"1633","12540.77"
"1634","12477.03"
"1635","12447.66"
"1636","12473.68"
"1637","12550.77"
"1638","12629.19"
"1639","12656.28"
"1640","12627.9"
"1641","12591.63"
"1642","12593.17"
"1643","12628.91"
"1644","12664.19"
"1645","12670.96"
"1646","12662.37"
"1647","12666.36"
"1648","12697.69"
"1649","12730.1"
"1650","12729.66"
"1651","12689.58"
"1652","12650.04"
"1653","12654.05"
"1654","12702.72"
"1655","12755.62"
"1656","12774.43"
"1657","12759.02"
"1658","12730.74"
"1659","12706.89"
"1660","12684.06"
"1661","12652.51"
"1662","12607.41"
"1663","12556.27"
"1664","12508.56"
"1665","12472.27"
"1666","12453.37"
"1667","12456.77"
"1668","12473.71"
"1669","12484.96"
"1670","12473.97"
"1671","12444.03"
"1672","12406.6"
"1673","12369.48"
"1674","12328.05"
"1675","12275.29"
"1676","12216.51"
"1677","12178.32"
"1678","12187.55"
"1679","12232.55"
"1680","12266.2"
"1681","12246.4"
"1682","12183.58"
"1683","12113.8"
"1684","12065.42"
"1685","12036.34"
"1686","12017.13"
"1687","12001.19"
"1688","11987.33"
"1689","11974.89"
"1690","11961.78"
"1691","11944.53"
"1692","11920.05"
"1693","11889.54"
"1694","11856.31"
"1695","11823.74"
"1696","11795.16"
"1697","11773.94"
"1698","11762.64"
"1699","11762.37"
"1700","11773.79"
"1701","11791.07"
"1702","11802.32"
"1703","11798.27"
"1704","11792.57"
"1705","11809.67"
"1706","11859.17"
"1707","11898.59"
"1708","11874.65"
"1709","11780.15"
"1710","11683.54"
"1711","11656.03"
"1712","11698.85"
"1713","11756.58"
"1714","11780.12"
"1715","11770.39"
"1716","11747.57"
"1717","11725.04"
"1718","11697.39"
"1719","11656.34"
"1720","11606.38"
"1721","11568.32"
"1722","11561.67"
"1723","11580.07"
"1724","11601.25"
"1725","11607.12"
"1726","11599.06"
"1727","11583.86"
"1728","11570.77"
"1729","11573.74"
"1730","11605.98"
"1731","11655.83"
"1732","11689.39"
"1733","11678.85"
"1734","11642.6"
"1735","11617.96"
"1736","11628.35"
"1737","11658.74"
"1738","11687.82"
"1739","11705.11"
"1740","11713.37"
"1741","11715.68"
"1742","11709.84"
"1743","11690.75"
"1744","11658.54"
"1745","11633.01"
"1746","11638.26"
"1747","11675.77"
"1748","11711.47"
"1749","11710.61"
"1750","11671.51"
"1751","11615.78"
"1752","11564.13"
"1753","11530.54"
"1754","11526.84"
"1755","11547.12"
"1756","11551.53"
"1757","11500.14"
"1758","11417.68"
"1759","11382.73"
"1760","11453.71"
"1761","11565.97"
"1762","11612.14"
"1763","11544.87"
"1764","11448.08"
"1765","11418.64"
"1766","11463.02"
"1767","11504.14"
"1768","11476.84"
"1769","11409.93"
"1770","11368.12"
"1771","11387.23"
"1772","11435.36"
"1773","11472.04"
"1774","11482.42"
"1775","11476.31"
"1776","11462.42"
"1777","11436.11"
"1778","11387.59"
"1779","11322.84"
"1780","11284.81"
"1781","11319.07"
"1782","11413.71"
"1783","11502.51"
"1784","11527.4"
"1785","11493.76"
"1786","11430.69"
"1787","11366.14"
"1788","11325.12"
"1789","11330.43"
"1790","11369.84"
"1791","11400.53"
"1792","11389.35"
"1793","11360.92"
"1794","11359.09"
"1795","11398.61"
"1796","11438.01"
"1797","11432.79"
"1798","11389.13"
"1799","11351.63"
"1800","11352.8"
"1801","11366.67"
"1802","11351.41"
"1803","11303.23"
"1804","11279.17"
"1805","11333.91"
"1806","11435.23"
"1807","11497.25"
"1808","11463.78"
"1809","11385.01"
"1810","11333.02"
"1811","11335.04"
"1812","11362.1"
"1813","11383.32"
"1814","11381.35"
"1815","11345.2"
"1816","11273.36"
"1817","11188.29"
"1818","11116.25"
"1819","11084.24"
"1820","11119.88"
"1821","11236.46"
"1822","11370.99"
"1823","11435.71"
"1824","11396.51"
"1825","11313.93"
"1826","11254.32"
"1827","11237.84"
"1828","11254.96"
"1829","11291.33"
"1830","11317.81"
"1831","11302.94"
"1832","11243.09"
"1833","11167.28"
"1834","11104.66"
"1835","11072.09"
"1836","11081.31"
"1837","11128.32"
"1838","11175.99"
"1839","11185.99"
"1840","11163.86"
"1841","11147.61"
"1842","11165.76"
"1843","11207.05"
"1844","11250.64"
"1845","11278.43"
"1846","11275.82"
"1847","11232.68"
"1848","11169.21"
"1849","11118.7"
"1850","11103.97"
"1851","11125.45"
"1852","11179.59"
"1853","11248.03"
"1854","11301.7"
"1855","11320.43"
"1856","11317.47"
"1857","11312.91"
"1858","11305.98"
"1859","11271.86"
"1860","11193.13"
"1861","11106.2"
"1862","11067.54"
"1863","11100.68"
"1864","11169.48"
"1865","11232.89"
"1866","11265.04"
"1867","11249.11"
"1868","11181.76"
"1869","11097.57"
"1870","11036.87"
"1871","11021.78"
"1872","11058.09"
"1873","11141.81"
"1874","11228.48"
"1875","11263.52"
"1876","11235.76"
"1877","11190.87"
"1878","11170.85"
"1879","11166.72"
"1880","11148.56"
"1881","11109.58"
"1882","11086.47"
"1883","11115.13"
"1884","11172.74"
"1885","11201.81"
"1886","11171.45"
"1887","11123.01"
"1888","11107.4"
"1889","11135.22"
"1890","11184.29"
"1891","11228.86"
"1892","11233.66"
"1893","11163.51"
"1894","11046.79"
"1895","10981"
"1896","11039.65"
"1897","11154.03"
"1898","11211.35"
"1899","11173.95"
"1900","11110.72"
"1901","11088.22"
"1902","11100.18"
"1903","11109.73"
"1904","11099.28"
"1905","11086.43"
"1906","11088.61"
"1907","11087.5"
"1908","11045.67"
"1909","10959.36"
"1910","10901.53"
"1911","10946.19"
"1912","11050.67"
"1913","11095.07"
"1914","11017.14"
"1915","10919.35"
"1916","10924.64"
"1917","11026.85"
"1918","11117.65"
"1919","11120.75"
"1920","11077.07"
"1921","11049.1"
"1922","11038.38"
"1923","10990.33"
"1924","10877.14"
"1925","10784.55"
"1926","10820.93"
"1927","10957.82"
"1928","11023.6"
"1929","10896.5"
"1930","10709.59"
"1931","10662.26"
"1932","10789.9"
"1933","10937.71"
"1934","10973.4"
"1935","10931.21"
"1936","10895.8"
"1937","10903.37"
"1938","10929.32"
"1939","10949.23"
"1940","10960.46"
"1941","10967.48"
"1942","10967.66"
"1943","10948.97"
"1944","10905.63"
"1945","10870.54"
"1946","10889.17"
"1947","10957.16"
"1948","11002.28"
"1949","10963.49"
"1950","10873.42"
"1951","10797.28"
"1952","10758.14"
"1953","10721.21"
"1954","10660.28"
"1955","10622.38"
"1956","10678.59"
"1957","10813.9"
"1958","10897.42"
"1959","10824.43"
"1960","10681.19"
"1961","10616.68"
"1962","10664.29"
"1963","10708.33"
"1964","10652.91"
"1965","10557.24"
"1966","10528.3"
"1967","10593.32"
"1968","10683.34"
"1969","10734.34"
"1970","10733.83"
"1971","10685.46"
"1972","10619.96"
"1973","10597.98"
"1974","10655.88"
"1975","10721.17"
"1976","10696.62"
"1977","10576.6"
"1978","10445.65"
"1979","10375.92"
"1980","10379.91"
"1981","10454.34"
"1982","10557.34"
"1983","10613.81"
"1984","10580.41"
"1985","10515.01"
"1986","10489.81"
"1987","10504.38"
"1988","10505.38"
"1989","10468.76"
"1990","10448.07"
"1991","10499.89"
"1992","10581.89"
"1993","10592.26"
"1994","10492.72"
"1995","10377.6"
"1996","10344.11"
"1997","10377.62"
"1998","10409.37"
"1999","10397.41"
"2000","10344.4"
"2001","10262.87"
"2002","10200.17"
"2003","10215.55"
"2004","10310.13"
"2005","10410.65"
"2006","10452.36"
"2007","10432.9"
"2008","10368.01"
"2009","10279.96"
"2010","10197.39"
"2011","10141.67"
"2012","10108.85"
"2013","10090.39"
"2014","10087.59"
"2015","10108.96"
"2016","10148.55"
"2017","10165.5"
"2018","10120.48"
"2019","10035.39"
"2020","9964.672"
"2021","9942.793"
"2022","9969.542"
"2023","10032.6"
"2024","10067.04"
"2025","9991.297"
"2026","9826.655"
"2027","9717.704"
"2028","9771.602"
"2029","9915.646"
"2030","10036.75"
"2031","10102.09"
"2032","10145.35"
"2033","10181.49"
"2034","10171.39"
"2035","10076.8"
"2036","9952.512"
"2037","9904.369"
"2038","9966.5"
"2039","10050.05"
"2040","10069.82"
"2041","10032.41"
"2042","9976.707"
"2043","9926.345"
"2044","9888.03"
"2045","9864.73"
"2046","9849.354"
"2047","9833.525"
"2048","9821.311"
"2049","9825.491"
"2050","9846.422"
"2051","9857.831"
"2052","9834.491"
"2053","9783.284"
"2054","9724.725"
"2055","9666.096"
"2056","9597.568"
"2057","9521.576"
"2058","9494.146"
"2059","9577.884"
"2060","9727.793"
"2061","9815.276"
"2062","9778.239"
"2063","9710.587"
"2064","9712.852"
"2065","9772.14"
"2066","9825.393"
"2067","9860.354"
"2068","9931.298"
"2069","10083"
"2070","10304.5"
"2071","10568.83"
"2072","10817.33"
"2073","10967.82"
"2074","10978.63"
"2075","10894.62"
"2076","10764.26"
"2077","10586.05"
"2078","10340.01"
"2079","10062.55"
"2080","9855.039"
"2081","9783.731"
"2082","9785.698"
"2083","9776.051"
"2084","9725.699"
"2085","9640.347"
"2086","9534.014"
"2087","9433.921"
"2088","9365.594"
"2089","9338.989"
"2090","9357.889"
"2091","9401.895"
"2092","9429.17"
"2093","9413.907"
"2094","9371.05"
"2095","9321.047"
"2096","9279.891"
"2097","9261.232"
"2098","9265.331"
"2099","9276.334"
"2100","9277.633"
"2101","9253.488"
"2102","9192.134"
"2103","9122.046"
"2104","9095.157"
"2105","9124.386"
"2106","9161.431"
"2107","9163.065"
"2108","9132.087"
"2109","9083.531"
"2110","9027.383"
"2111","8969.83"
"2112","8913.222"
"2113","8852.645"
"2114","8790.378"
"2115","8772.328"
"2116","8854.136"
"2117","8991.925"
"2118","9052.988"
"2119","8972.181"
"2120","8846.66"
"2121","8782.34"
"2122","8792.926"
"2123","8854.545"
"2124","8923.373"
"2125","8935.439"
"2126","8863.842"
"2127","8780.354"
"2128","8758.902"
"2129","8771.912"
"2130","8748.746"
"2131","8676.842"
"2132","8608.189"
"2133","8582.277"
"2134","8593.979"
"2135","8625.946"
"2136","8626.247"
"2137","8529.519"
"2138","8359.012"
"2139","8239.891"
"2140","8252.67"
"2141","8333.28"
"2142","8400.501"
"2143","8442.135"
"2144","8477.537"
"2145","8495.439"
"2146","8449.544"
"2147","8331.147"
"2148","8241.666"
"2149","8279.989"
"2150","8380.922"
"2151","8408.71"
"2152","8334.647"
"2153","8245.839"
"2154","8208.587"
"2155","8220.121"
"2156","8265.582"
"2157","8322.664"
"2158","8366.107"
"2159","8375.539"
"2160","8335.456"
"2161","8252.771"
"2162","8184.962"
"2163","8180.932"
"2164","8198.235"
"2165","8166.002"
"2166","8090.952"
"2167","8045.035"
"2168","8058.225"
"2169","8075.617"
"2170","8046.292"
"2171","7984.586"
"2172","7922.169"
"2173","7865.298"
"2174","7802.859"
"2175","7746.283"
"2176","7742.622"
"2177","7814.381"
"2178","7882.244"
"2179","7858.383"
"2180","7797.702"
"2181","7829.778"
"2182","7954.904"
"2183","8015.775"
"2184","7917.958"
"2185","7765.604"
"2186","7677.373"
"2187","7642.064"
"2188","7597.591"
"2189","7524.437"
"2190","7441.816"
"2191","7378.774"
"2192","7380.731"
"2193","7470.514"
"2194","7558.589"
"2195","7536.634"
"2196","7454.046"
"2197","7459.188"
"2198","7575.842"
"2199","7654.836"
"2200","7594.758"
"2201","7476.901"
"2202","7403.803"
"2203","7383.095"
"2204","7381.139"
"2205","7361.3"
"2206","7284.66"
"2207","7152.916"
"2208","7046.664"
"2209","7035.169"
"2210","7098.36"
"2211","7189.748"
"2212","7240.876"
"2213","7172.861"
"2214","7001.912"
"2215","6860.646"
"2216","6843.813"
"2217","6930.138"
"2218","7072.293"
"2219","7179.43"
"2220","7154.701"
"2221","7041.685"
"2222","6986.961"
"2223","7030.918"
"2224","7050.401"
"2225","6962.155"
"2226","6852.072"
"2227","6820.058"
"2228","6829.142"
"2229","6788.143"
"2230","6686.285"
"2231","6582.523"
"2232","6521.315"
"2233","6518.044"
"2234","6568.085"
"2235","6605.44"
"2236","6562.474"
"2237","6468.443"
"2238","6395.632"
"2239","6357.438"
"2240","6312.29"
"2241","6246.771"
"2242","6202.713"
"2243","6210.611"
"2244","6236.324"
"2245","6235.661"
"2246","6206.251"
"2247","6165.506"
"2248","6122.237"
"2249","6077.057"
"2250","6028.08"
"2251","5969.487"
"2252","5901.902"
"2253","5850.52"
"2254","5839.445"
"2255","5842.28"
"2256","5811.581"
"2257","5737.815"
"2258","5644.54"
"2259","5549.674"
"2260","5460.074"
"2261","5383.761"
"2262","5335.584"
"2263","5325.108"
"2264","5318.583"
"2265","5268.504"
"2266","5180.079"
"2267","5097.821"
"2268","5041.496"
"2269","4995.15"
"2270","4948.689"
"2271","4914.196"
"2272","4896.057"
"2273","4840.732"
"2274","4687.172"
"2275","4494.943"
"2276","4392.993"
"2277","4399.232"
"2278","4408.525"
"2279","4346.766"
"2280","4214.834"
"2281","4044.091"
"2282","3947.176"
"2283","4023.746"
"2284","4131.119"
"2285","4033.275"
"2286","3760.843"
"2287","3558.923"
"2288","3531.427"
"2289","3570.177"
"2290","3577.739"
"2291","3527.812"
"2292","3415.648"
"2293","3286.754"
"2294","3193.731"
"2295","3108.582"
"2296","2962.628"
"2297","2780.94"
"2298","2679.279"
"2299","2695.757"
"2300","2730.92"
