,"Scan 00879"
"400","11318.44"
"401","11334.5"
"402","11350.6"
"403","11363.58"
"404","11370.31"
"405","11368.11"
"406","11358.23"
"407","11343.88"
"408","11328.25"
"409","11314.28"
"410","11301.97"
"411","11289.22"
"412","11273.94"
"413","11254.26"
"414","11233.53"
"415","11219.88"
"416","11221.57"
"417","11246.48"
"418","11290.53"
"419","11334.98"
"420","11360.3"
"421","11347.35"
"422","11293.24"
"423","11221.25"
"424","11156.83"
"425","11125.2"
"426","11137.37"
"427","11174.96"
"428","11215.99"
"429","11238.67"
"430","11230.88"
"431","11206.36"
"432","11183.09"
"433","11178.9"
"434","11204.59"
"435","11246.93"
"436","11287.57"
"437","11308.32"
"438","11296.42"
"439","11262.66"
"440","11224.16"
"441","11197.94"
"442","11197.2"
"443","11214.92"
"444","11237.22"
"445","11250.32"
"446","11242.52"
"447","11215.59"
"448","11176.82"
"449","11133.5"
"450","11092.26"
"451","11054.75"
"452","11020.19"
"453","10987.79"
"454","10957.17"
"455","10932.28"
"456","10919.53"
"457","10925.32"
"458","10954.97"
"459","11001.52"
"460","11049.89"
"461","11084.94"
"462","11092.5"
"463","11070.75"
"464","11027.14"
"465","10969.26"
"466","10904.79"
"467","10843.16"
"468","10795.26"
"469","10771.96"
"470","10783.3"
"471","10823.9"
"472","10874.31"
"473","10914.68"
"474","10926.04"
"475","10907.47"
"476","10875.88"
"477","10848.84"
"478","10843.24"
"479","10860.82"
"480","10887.24"
"481","10907.5"
"482","10907.1"
"483","10883.5"
"484","10847.55"
"485","10810.74"
"486","10784.25"
"487","10772.18"
"488","10770.36"
"489","10774.2"
"490","10779.15"
"491","10781.43"
"492","10778.15"
"493","10766.53"
"494","10743.79"
"495","10708.36"
"496","10660.09"
"497","10598.91"
"498","10524.88"
"499","10443.02"
"500","10364.25"
"501","10299.82"
"502","10260.56"
"503","10247.33"
"504","10249.11"
"505","10254.24"
"506","10251.33"
"507","10234.98"
"508","10206.7"
"509","10168.35"
"510","10121.89"
"511","10070.97"
"512","10021.23"
"513","9978.347"
"514","9947.783"
"515","9930.204"
"516","9921.227"
"517","9916.266"
"518","9910.87"
"519","9903.347"
"520","9894.67"
"521","9885.92"
"522","9878.169"
"523","9872.267"
"524","9868.876"
"525","9868.646"
"526","9871.993"
"527","9875.488"
"528","9872.564"
"529","9856.597"
"530","9821.818"
"531","9774.109"
"532","9727.909"
"533","9697.769"
"534","9696.635"
"535","9719.239"
"536","9748.492"
"537","9767.197"
"538","9759.941"
"539","9728.122"
"540","9682.65"
"541","9634.489"
"542","9593.465"
"543","9560.586"
"544","9532.583"
"545","9506.171"
"546","9478.715"
"547","9451.839"
"548","9428.906"
"549","9413.253"
"550","9407.105"
"551","9406.624"
"552","9405.938"
"553","9399.208"
"554","9382.858"
"555","9363.136"
"556","9348.954"
"557","9349.185"
"558","9368.378"
"559","9396.114"
"560","9418.763"
"561","9422.768"
"562","9401.464"
"563","9367.022"
"564","9334.767"
"565","9319.898"
"566","9328.951"
"567","9349.868"
"568","9368.238"
"569","9369.843"
"570","9350.191"
"571","9321.056"
"572","9295.725"
"573","9287.177"
"574","9298.887"
"575","9321.988"
"576","9346.825"
"577","9364.084"
"578","9371.454"
"579","9373.615"
"580","9375.521"
"581","9381.867"
"582","9393.646"
"583","9409.054"
"584","9426.229"
"585","9443.253"
"586","9457.684"
"587","9466.781"
"588","9467.813"
"589","9458.702"
"590","9441.727"
"591","9420.945"
"592","9400.406"
"593","9383.03"
"594","9366.526"
"595","9347.1"
"596","9320.97"
"597","9287.084"
"598","9253.126"
"599","9228.5"
"600","9222.539"
"601","9237.941"
"602","9262.738"
"603","9283.053"
"604","9285.177"
"605","9262.794"
"606","9220.907"
"607","9165.463"
"608","9102.505"
"609","9041.086"
"610","8993.483"
"611","8972.082"
"612","8988.005"
"613","9035.258"
"614","9095.312"
"615","9149.413"
"616","9180.647"
"617","9186.803"
"618","9172.909"
"619","9144.03"
"620","9105.516"
"621","9064.281"
"622","9027.716"
"623","9003.183"
"624","8995.063"
"625","8998.23"
"626","9005.686"
"627","9010.468"
"628","9008.571"
"629","9001.91"
"630","8993.104"
"631","8984.744"
"632","8978.496"
"633","8974.831"
"634","8974.154"
"635","8976.82"
"636","8982.519"
"637","8990.376"
"638","8999.512"
"639","9008.843"
"640","9015.44"
"641","9015.439"
"642","9004.977"
"643","8981.721"
"644","8950.908"
"645","8920.104"
"646","8896.846"
"647","8886.792"
"648","8890.245"
"649","8906.558"
"650","8935.03"
"651","8971.173"
"652","9004.072"
"653","9022.229"
"654","9014.82"
"655","8986.351"
"656","8956.846"
"657","8946.964"
"658","8974.798"
"659","9031.731"
"660","9093.084"
"661","9134.02"
"662","9134.585"
"663","9101.381"
"664","9050.08"
"665","8996.312"
"666","8953.522"
"667","8928.75"
"668","8927.844"
"669","8956.494"
"670","9010.464"
"671","9069.198"
"672","9110.688"
"673","9114.035"
"674","9079.875"
"675","9028.881"
"676","8982.442"
"677","8959.785"
"678","8961.548"
"679","8978.723"
"680","9002.241"
"681","9024.023"
"682","9040.258"
"683","9048.298"
"684","9045.519"
"685","9031.038"
"686","9007.891"
"687","8979.631"
"688","8949.843"
"689","8923.145"
"690","8905.404"
"691","8902.548"
"692","8919.528"
"693","8950.147"
"694","8981.067"
"695","8998.865"
"696","8993.824"
"697","8975.572"
"698","8960.044"
"699","8963.114"
"700","8991.686"
"701","9029.977"
"702","9058.705"
"703","9059.087"
"704","9029.667"
"705","8991.172"
"706","8965.743"
"707","8973.271"
"708","9007.336"
"709","9044.212"
"710","9059.911"
"711","9036.807"
"712","8989.686"
"713","8943.684"
"714","8923.842"
"715","8942.47"
"716","8981.86"
"717","9020.008"
"718","9035.528"
"719","9024.535"
"720","9003.271"
"721","8989.054"
"722","8996.993"
"723","9020.896"
"724","9042.574"
"725","9043.744"
"726","9012.867"
"727","8966.019"
"728","8926.326"
"729","8916.728"
"730","8946.224"
"731","8998.236"
"732","9053.483"
"733","9093.386"
"734","9111.581"
"735","9112.308"
"736","9100.165"
"737","9079.842"
"738","9056.711"
"739","9036.415"
"740","9024.584"
"741","9024.558"
"742","9033.491"
"743","9047.507"
"744","9062.724"
"745","9074.981"
"746","9079.772"
"747","9072.577"
"748","9050.112"
"749","9020.678"
"750","8998.926"
"751","8999.553"
"752","9031.104"
"753","9079.665"
"754","9126.201"
"755","9151.938"
"756","9151.532"
"757","9140.229"
"758","9135"
"759","9151.092"
"760","9182.509"
"761","9208.873"
"762","9209.557"
"763","9171.124"
"764","9112.142"
"765","9060.077"
"766","9042.161"
"767","9067.516"
"768","9113.113"
"769","9152.655"
"770","9161.771"
"771","9143.957"
"772","9123.828"
"773","9126.498"
"774","9169.748"
"775","9235.6"
"776","9295.157"
"777","9319.729"
"778","9299.005"
"779","9257.039"
"780","9221.634"
"781","9218.811"
"782","9248.248"
"783","9289.275"
"784","9320.711"
"785","9326.496"
"786","9315.266"
"787","9303.097"
"788","9305.944"
"789","9329.476"
"790","9360.948"
"791","9385.711"
"792","9390.319"
"793","9377.41"
"794","9361.189"
"795","9356.104"
"796","9372.103"
"797","9399.83"
"798","9424.745"
"799","9432.486"
"800","9418.845"
"801","9395.511"
"802","9375.548"
"803","9370.837"
"804","9380.554"
"805","9396.129"
"806","9408.886"
"807","9413.343"
"808","9415.047"
"809","9421.918"
"810","9441.666"
"811","9474.348"
"812","9510.436"
"813","9539.811"
"814","9553.574"
"815","9552.368"
"816","9541.326"
"817","9525.604"
"818","9509.821"
"819","9497.259"
"820","9490.984"
"821","9493.903"
"822","9505.735"
"823","9523.268"
"824","9543.178"
"825","9561.977"
"826","9575.317"
"827","9578.562"
"828","9567.144"
"829","9541.398"
"830","9510.107"
"831","9482.877"
"832","9468.688"
"833","9469.647"
"834","9483.604"
"835","9508.34"
"836","9540.484"
"837","9572.938"
"838","9597.852"
"839","9607.618"
"840","9600.954"
"841","9583.483"
"842","9561.173"
"843","9539.862"
"844","9524.588"
"845","9520.096"
"846","9531.081"
"847","9557.597"
"848","9591.065"
"849","9621.973"
"850","9641.723"
"851","9652.234"
"852","9662.133"
"853","9680.147"
"854","9710.169"
"855","9740.828"
"856","9757.755"
"857","9747.231"
"858","9711.188"
"859","9667.543"
"860","9634.938"
"861","9628.161"
"862","9641.608"
"863","9662.953"
"864","9679.968"
"865","9686.948"
"866","9688.508"
"867","9690.167"
"868","9697.1"
"869","9711.454"
"870","9733.801"
"871","9764.699"
"872","9803.229"
"873","9844.926"
"874","9884.798"
"875","9917.976"
"876","9941.255"
"877","9952.703"
"878","9950.426"
"879","9934.159"
"880","9909.512"
"881","9883.409"
"882","9862.68"
"883","9851.604"
"884","9851.721"
"885","9864.436"
"886","9889.713"
"887","9920.012"
"888","9945.342"
"889","9955.909"
"890","9951.742"
"891","9947.297"
"892","9958.18"
"893","9996.967"
"894","10053.83"
"895","10108.9"
"896","10142.33"
"897","10145.25"
"898","10130"
"899","10111.43"
"900","10102.97"
"901","10103.93"
"902","10105.34"
"903","10098.12"
"904","10079.55"
"905","10062.85"
"906","10063.74"
"907","10096.12"
"908","10149"
"909","10193.08"
"910","10198.6"
"911","10150.27"
"912","10078.41"
"913","10022.35"
"914","10019.46"
"915","10070.51"
"916","10143.71"
"917","10206.13"
"918","10232.33"
"919","10225.56"
"920","10195.99"
"921","10153.87"
"922","10112.36"
"923","10087.55"
"924","10095.7"
"925","10147.09"
"926","10225.14"
"927","10305.7"
"928","10365.02"
"929","10391.52"
"930","10387.91"
"931","10357.7"
"932","10306.59"
"933","10251.38"
"934","10212.34"
"935","10209.26"
"936","10242.71"
"937","10288.62"
"938","10321.31"
"939","10319.95"
"940","10290.74"
"941","10249.13"
"942","10210.42"
"943","10183.56"
"944","10168.81"
"945","10165.82"
"946","10173.54"
"947","10186.86"
"948","10199.25"
"949","10204.19"
"950","10198.03"
"951","10181.07"
"952","10153.86"
"953","10118.95"
"954","10090.21"
"955","10085.64"
"956","10122.78"
"957","10196.93"
"958","10272.73"
"959","10312.57"
"960","10287.89"
"961","10221.89"
"962","10156.06"
"963","10131.24"
"964","10159"
"965","10212.16"
"966","10260.81"
"967","10280.66"
"968","10277.42"
"969","10266.78"
"970","10264.13"
"971","10272.98"
"972","10282.16"
"973","10279.58"
"974","10256.72"
"975","10222.45"
"976","10190.93"
"977","10175.89"
"978","10179.53"
"979","10191.09"
"980","10199.14"
"981","10195.53"
"982","10186.11"
"983","10180.45"
"984","10187.62"
"985","10204.49"
"986","10216.01"
"987","10206.59"
"988","10168.48"
"989","10122"
"990","10093.82"
"991","10108.85"
"992","10161.33"
"993","10219.8"
"994","10251.99"
"995","10239.38"
"996","10204.03"
"997","10175.44"
"998","10180.89"
"999","10218.6"
"1000","10266.65"
"1001","10302.71"
"1002","10313.28"
"1003","10305.7"
"1004","10290.33"
"1005","10277.49"
"1006","10276"
"1007","10284.11"
"1008","10295.78"
"1009","10304.96"
"1010","10307.73"
"1011","10303.21"
"1012","10290.72"
"1013","10270.68"
"1014","10249.35"
"1015","10234.96"
"1016","10235.56"
"1017","10252.49"
"1018","10279.25"
"1019","10308.89"
"1020","10336.11"
"1021","10362.61"
"1022","10391.92"
"1023","10427.34"
"1024","10467.39"
"1025","10506.11"
"1026","10537.38"
"1027","10556.97"
"1028","10566.57"
"1029","10569.03"
"1030","10567.31"
"1031","10565.92"
"1032","10570.43"
"1033","10586.38"
"1034","10613.38"
"1035","10637.42"
"1036","10642.64"
"1037","10616.01"
"1038","10569.03"
"1039","10525.6"
"1040","10509.5"
"1041","10530.03"
"1042","10573.28"
"1043","10623.23"
"1044","10665.28"
"1045","10692.54"
"1046","10700.76"
"1047","10685.99"
"1048","10651.22"
"1049","10607.11"
"1050","10564.7"
"1051","10534.03"
"1052","10521.55"
"1053","10532.91"
"1054","10572.65"
"1055","10630.11"
"1056","10683.56"
"1057","10711.08"
"1058","10703.63"
"1059","10680.35"
"1060","10664.11"
"1061","10674.35"
"1062","10704.82"
"1063","10737.55"
"1064","10754.82"
"1065","10752.9"
"1066","10746.86"
"1067","10753.09"
"1068","10782.07"
"1069","10819.35"
"1070","10843.87"
"1071","10835.99"
"1072","10799.59"
"1073","10757.47"
"1074","10732.99"
"1075","10738.67"
"1076","10761.79"
"1077","10786.04"
"1078","10796.88"
"1079","10793.49"
"1080","10781.31"
"1081","10765.85"
"1082","10752.31"
"1083","10745.51"
"1084","10750.25"
"1085","10768.72"
"1086","10793.09"
"1087","10813.15"
"1088","10819.32"
"1089","10810.92"
"1090","10793.56"
"1091","10772.97"
"1092","10754.13"
"1093","10740.58"
"1094","10735.7"
"1095","10741.81"
"1096","10755.05"
"1097","10769.34"
"1098","10778.55"
"1099","10775.21"
"1100","10750.55"
"1101","10695.79"
"1102","10613.68"
"1103","10537.76"
"1104","10506.69"
"1105","10551.85"
"1106","10645.86"
"1107","10732.93"
"1108","10758.27"
"1109","10711.83"
"1110","10639.79"
"1111","10591.98"
"1112","10602.18"
"1113","10649.73"
"1114","10702.45"
"1115","10730.36"
"1116","10726.85"
"1117","10698.96"
"1118","10654.03"
"1119","10603.24"
"1120","10563.49"
"1121","10552.15"
"1122","10579.48"
"1123","10627.56"
"1124","10671.56"
"1125","10688.49"
"1126","10677.45"
"1127","10651.96"
"1128","10625.71"
"1129","10605.45"
"1130","10586.85"
"1131","10564.61"
"1132","10535.9"
"1133","10508.22"
"1134","10491.77"
"1135","10495.71"
"1136","10516.9"
"1137","10543.96"
"1138","10565.48"
"1139","10577.02"
"1140","10585.17"
"1141","10597.5"
"1142","10617.8"
"1143","10634.86"
"1144","10633.7"
"1145","10601.55"
"1146","10549.64"
"1147","10504.21"
"1148","10491.31"
"1149","10517.9"
"1150","10563.45"
"1151","10605.32"
"1152","10627.91"
"1153","10639.95"
"1154","10655.49"
"1155","10686.28"
"1156","10723.67"
"1157","10748.07"
"1158","10740.44"
"1159","10702.04"
"1160","10658.49"
"1161","10636.87"
"1162","10652.63"
"1163","10689.33"
"1164","10725.05"
"1165","10741.39"
"1166","10743.69"
"1167","10747.15"
"1168","10766.01"
"1169","10794.58"
"1170","10808.7"
"1171","10783.67"
"1172","10716.8"
"1173","10649.65"
"1174","10629.08"
"1175","10686.52"
"1176","10781.01"
"1177","10850.49"
"1178","10838.67"
"1179","10758.51"
"1180","10668.12"
"1181","10625.59"
"1182","10649.75"
"1183","10705.71"
"1184","10754.67"
"1185","10770.73"
"1186","10766.19"
"1187","10760.38"
"1188","10769.76"
"1189","10791.09"
"1190","10812.87"
"1191","10824.27"
"1192","10826.82"
"1193","10832.83"
"1194","10854.84"
"1195","10896.45"
"1196","10945.43"
"1197","10987.93"
"1198","11012.59"
"1199","11017.42"
"1200","11002.64"
"1201","10969.34"
"1202","10925.84"
"1203","10884.12"
"1204","10855.77"
"1205","10842.7"
"1206","10837.1"
"1207","10830.81"
"1208","10819.42"
"1209","10806"
"1210","10794.47"
"1211","10788.09"
"1212","10787.45"
"1213","10792.44"
"1214","10803.01"
"1215","10819.21"
"1216","10841.17"
"1217","10868.7"
"1218","10893.95"
"1219","10901.56"
"1220","10876"
"1221","10818.06"
"1222","10759.13"
"1223","10733.95"
"1224","10765.07"
"1225","10830.09"
"1226","10896.19"
"1227","10934.3"
"1228","10943.6"
"1229","10936.2"
"1230","10924.05"
"1231","10915.13"
"1232","10914.02"
"1233","10925.14"
"1234","10947.24"
"1235","10970.39"
"1236","10983.93"
"1237","10982.09"
"1238","10973.07"
"1239","10967.56"
"1240","10974.64"
"1241","10994.48"
"1242","11024.14"
"1243","11060.25"
"1244","11094.13"
"1245","11113.81"
"1246","11107.75"
"1247","11078.48"
"1248","11043.89"
"1249","11022.67"
"1250","11025.08"
"1251","11045.38"
"1252","11075.99"
"1253","11109.36"
"1254","11137.97"
"1255","11154.32"
"1256","11152.59"
"1257","11137.65"
"1258","11118.6"
"1259","11104.28"
"1260","11099.93"
"1261","11108.37"
"1262","11132.04"
"1263","11164.41"
"1264","11188.73"
"1265","11187.8"
"1266","11157.27"
"1267","11117.24"
"1268","11090.58"
"1269","11092.73"
"1270","11115"
"1271","11143.79"
"1272","11166.91"
"1273","11180.12"
"1274","11182.03"
"1275","11171.78"
"1276","11154.03"
"1277","11136.72"
"1278","11127.45"
"1279","11125.91"
"1280","11124.31"
"1281","11114.66"
"1282","11095.08"
"1283","11072.77"
"1284","11055.68"
"1285","11048.81"
"1286","11050.09"
"1287","11056.41"
"1288","11065.04"
"1289","11074.83"
"1290","11085"
"1291","11094.76"
"1292","11103.08"
"1293","11108.85"
"1294","11111.6"
"1295","11117.71"
"1296","11137.87"
"1297","11181.99"
"1298","11241.87"
"1299","11292.13"
"1300","11307.08"
"1301","11280.21"
"1302","11232.44"
"1303","11186.77"
"1304","11158.63"
"1305","11147.11"
"1306","11149.18"
"1307","11161.29"
"1308","11178.24"
"1309","11194.49"
"1310","11204.83"
"1311","11205.8"
"1312","11194.48"
"1313","11169.47"
"1314","11141.61"
"1315","11127.56"
"1316","11141.91"
"1317","11171.42"
"1318","11183.4"
"1319","11146.51"
"1320","11069.08"
"1321","10998.96"
"1322","10984.86"
"1323","11035.76"
"1324","11104.69"
"1325","11140.66"
"1326","11119.59"
"1327","11070.96"
"1328","11030.63"
"1329","11022.23"
"1330","11034.84"
"1331","11051.41"
"1332","11058.16"
"1333","11054.72"
"1334","11044.13"
"1335","11029.72"
"1336","11016.43"
"1337","11009.8"
"1338","11014.13"
"1339","11023.15"
"1340","11025.28"
"1341","11010.25"
"1342","10984.52"
"1343","10965.96"
"1344","10971.63"
"1345","10999.16"
"1346","11028.52"
"1347","11039.45"
"1348","11025.08"
"1349","10994.47"
"1350","10957.62"
"1351","10923.53"
"1352","10899.69"
"1353","10893.42"
"1354","10907.47"
"1355","10935.2"
"1356","10968.84"
"1357","11000.15"
"1358","11019.66"
"1359","11017.69"
"1360","10989.19"
"1361","10945.37"
"1362","10901.03"
"1363","10869.44"
"1364","10856.88"
"1365","10867.59"
"1366","10902.7"
"1367","10944.43"
"1368","10968.07"
"1369","10952.44"
"1370","10904.4"
"1371","10843.92"
"1372","10789.83"
"1373","10748.58"
"1374","10719.37"
"1375","10701.55"
"1376","10697.57"
"1377","10712.04"
"1378","10749.05"
"1379","10802.39"
"1380","10856.88"
"1381","10897.3"
"1382","10913.76"
"1383","10901.95"
"1384","10858.22"
"1385","10793.15"
"1386","10734.8"
"1387","10711.95"
"1388","10731.04"
"1389","10765.94"
"1390","10788.1"
"1391","10785.06"
"1392","10771.95"
"1393","10766.49"
"1394","10777.47"
"1395","10795.6"
"1396","10809.49"
"1397","10812.31"
"1398","10807.85"
"1399","10801.42"
"1400","10793.74"
"1401","10773.11"
"1402","10725.8"
"1403","10650.65"
"1404","10585.31"
"1405","10574.91"
"1406","10643.47"
"1407","10740.69"
"1408","10799.96"
"1409","10775.36"
"1410","10703.42"
"1411","10641.13"
"1412","10632"
"1413","10659.33"
"1414","10689.71"
"1415","10696.84"
"1416","10689.82"
"1417","10688.61"
"1418","10707.61"
"1419","10730.78"
"1420","10731.81"
"1421","10691.59"
"1422","10633.76"
"1423","10597.67"
"1424","10616.55"
"1425","10684.19"
"1426","10778.87"
"1427","10878.96"
"1428","10964.15"
"1429","11014.59"
"1430","11015.77"
"1431","10991.76"
"1432","10983.75"
"1433","11026.26"
"1434","11102.5"
"1435","11171.92"
"1436","11199.38"
"1437","11193.85"
"1438","11185.38"
"1439","11200.49"
"1440","11235.45"
"1441","11271.7"
"1442","11291.63"
"1443","11286.38"
"1444","11251.43"
"1445","11185.49"
"1446","11113.97"
"1447","11075.71"
"1448","11103.23"
"1449","11174.53"
"1450","11240.21"
"1451","11256.24"
"1452","11225.59"
"1453","11174.66"
"1454","11127.63"
"1455","11089.27"
"1456","11054.88"
"1457","11020.3"
"1458","10986.31"
"1459","10956.04"
"1460","10932.39"
"1461","10916.43"
"1462","10908.35"
"1463","10906.69"
"1464","10897.84"
"1465","10862.89"
"1466","10787.54"
"1467","10689.27"
"1468","10598.78"
"1469","10542.3"
"1470","10517.29"
"1471","10509.9"
"1472","10507.4"
"1473","10503.52"
"1474","10494.41"
"1475","10478.12"
"1476","10463.16"
"1477","10461.55"
"1478","10479.12"
"1479","10491.26"
"1480","10464.05"
"1481","10377.09"
"1482","10269.74"
"1483","10197.9"
"1484","10199.62"
"1485","10242.44"
"1486","10276.42"
"1487","10267.03"
"1488","10233.68"
"1489","10207.58"
"1490","10208.28"
"1491","10219.4"
"1492","10217.67"
"1493","10190.2"
"1494","10151.97"
"1495","10122.52"
"1496","10114.69"
"1497","10125.66"
"1498","10150.35"
"1499","10181.52"
"1500","10207.67"
"1501","10216.88"
"1502","10207.09"
"1503","10193.35"
"1504","10192.13"
"1505","10206.44"
"1506","10219.48"
"1507","10213.27"
"1508","10186.26"
"1509","10157.42"
"1510","10146.24"
"1511","10152.98"
"1512","10157.51"
"1513","10140"
"1514","10104.34"
"1515","10075.42"
"1516","10076.8"
"1517","10103.44"
"1518","10129.27"
"1519","10130.41"
"1520","10111.55"
"1521","10094.57"
"1522","10098.34"
"1523","10114.94"
"1524","10123.4"
"1525","10106.1"
"1526","10067.27"
"1527","10019.7"
"1528","9975.294"
"1529","9941.5"
"1530","9924.428"
"1531","9928.513"
"1532","9951.847"
"1533","9991.018"
"1534","10039.22"
"1535","10079.87"
"1536","10094.62"
"1537","10077.41"
"1538","10049.51"
"1539","10035.71"
"1540","10043.72"
"1541","10051.89"
"1542","10036.23"
"1543","9995.208"
"1544","9957.053"
"1545","9950.737"
"1546","9974.263"
"1547","9994.193"
"1548","9978.245"
"1549","9933.149"
"1550","9895.793"
"1551","9900.505"
"1552","9947.433"
"1553","10016.85"
"1554","10088.55"
"1555","10140.72"
"1556","10150.89"
"1557","10105.85"
"1558","10038.67"
"1559","9996.737"
"1560","10009.58"
"1561","10044.07"
"1562","10053.41"
"1563","10013.57"
"1564","9956.892"
"1565","9924.048"
"1566","9932.61"
"1567","9959.386"
"1568","9977.415"
"1569","9975.342"
"1570","9961.535"
"1571","9945.403"
"1572","9931.841"
"1573","9921.65"
"1574","9915.504"
"1575","9914.25"
"1576","9918.861"
"1577","9929.53"
"1578","9940.746"
"1579","9944.453"
"1580","9936.845"
"1581","9934.613"
"1582","9960.615"
"1583","10023.94"
"1584","10090.02"
"1585","10115.83"
"1586","10083.94"
"1587","10030.98"
"1588","9999.908"
"1589","10007.79"
"1590","10034.92"
"1591","10059.32"
"1592","10070.97"
"1593","10071.34"
"1594","10062.39"
"1595","10045.98"
"1596","10023.93"
"1597","9997.827"
"1598","9967.482"
"1599","9931.997"
"1600","9893.248"
"1601","9865.072"
"1602","9864.505"
"1603","9897.405"
"1604","9939.742"
"1605","9962.77"
"1606","9958.089"
"1607","9951.864"
"1608","9972.838"
"1609","10027.42"
"1610","10097.58"
"1611","10164.21"
"1612","10211.44"
"1613","10225.62"
"1614","10196.87"
"1615","10142.28"
"1616","10090.92"
"1617","10063.39"
"1618","10043.92"
"1619","10007.09"
"1620","9944.936"
"1621","9893.684"
"1622","9895.865"
"1623","9959.055"
"1624","10037.05"
"1625","10081.19"
"1626","10088.8"
"1627","10100.98"
"1628","10154.66"
"1629","10226.43"
"1630","10257.71"
"1631","10204.54"
"1632","10106.29"
"1633","10030.98"
"1634","10024.99"
"1635","10067.28"
"1636","10123.81"
"1637","10167.59"
"1638","10184.39"
"1639","10162.16"
"1640","10111.16"
"1641","10065.41"
"1642","10057.63"
"1643","10092.36"
"1644","10156.38"
"1645","10234.03"
"1646","10297.34"
"1647","10313.86"
"1648","10268.22"
"1649","10198.2"
"1650","10151.67"
"1651","10154.37"
"1652","10193.81"
"1653","10253.35"
"1654","10309.47"
"1655","10331.86"
"1656","10295.16"
"1657","10225.44"
"1658","10177.71"
"1659","10191.71"
"1660","10231.11"
"1661","10236.5"
"1662","10174.01"
"1663","10074.77"
"1664","9979.759"
"1665","9914.873"
"1666","9885.141"
"1667","9892.81"
"1668","9921.333"
"1669","9939.764"
"1670","9921.719"
"1671","9874.311"
"1672","9818.431"
"1673","9771.507"
"1674","9739.157"
"1675","9724.482"
"1676","9724.43"
"1677","9725.379"
"1678","9713.467"
"1679","9691.296"
"1680","9676.678"
"1681","9684.602"
"1682","9702.249"
"1683","9703.235"
"1684","9669.402"
"1685","9614.878"
"1686","9561.528"
"1687","9523.851"
"1688","9502.225"
"1689","9495.143"
"1690","9494.225"
"1691","9484.296"
"1692","9452.813"
"1693","9412.52"
"1694","9389.067"
"1695","9398.223"
"1696","9416.547"
"1697","9411.174"
"1698","9373.73"
"1699","9341.852"
"1700","9356.419"
"1701","9418.855"
"1702","9493.178"
"1703","9545.131"
"1704","9566.07"
"1705","9559.417"
"1706","9531.668"
"1707","9499.75"
"1708","9482.748"
"1709","9489.229"
"1710","9510.479"
"1711","9536.315"
"1712","9558.943"
"1713","9572.497"
"1714","9572.584"
"1715","9563.671"
"1716","9553.647"
"1717","9543.561"
"1718","9515.718"
"1719","9450.093"
"1720","9359.924"
"1721","9301.044"
"1722","9325.395"
"1723","9411.272"
"1724","9491.751"
"1725","9514.186"
"1726","9492.067"
"1727","9457.011"
"1728","9431.864"
"1729","9422.582"
"1730","9432.468"
"1731","9450.85"
"1732","9454.515"
"1733","9424.979"
"1734","9378.438"
"1735","9345.263"
"1736","9347.793"
"1737","9386.012"
"1738","9455.539"
"1739","9533.001"
"1740","9571.793"
"1741","9531.326"
"1742","9443.199"
"1743","9379.234"
"1744","9388.646"
"1745","9434.173"
"1746","9458.868"
"1747","9440.25"
"1748","9410.234"
"1749","9403.204"
"1750","9422.371"
"1751","9449"
"1752","9465.696"
"1753","9463.765"
"1754","9437.163"
"1755","9389.732"
"1756","9344.222"
"1757","9323.95"
"1758","9325.021"
"1759","9320.887"
"1760","9289.816"
"1761","9241.212"
"1762","9195.326"
"1763","9168.588"
"1764","9168.985"
"1765","9202.211"
"1766","9249.925"
"1767","9271.593"
"1768","9236.493"
"1769","9180.294"
"1770","9163.998"
"1771","9214.421"
"1772","9278.318"
"1773","9293.662"
"1774","9257.328"
"1775","9222.952"
"1776","9236.89"
"1777","9283.901"
"1778","9324.668"
"1779","9337.75"
"1780","9343.777"
"1781","9368.3"
"1782","9413.43"
"1783","9459.114"
"1784","9485.9"
"1785","9483.516"
"1786","9445.171"
"1787","9378.307"
"1788","9321.516"
"1789","9314.701"
"1790","9345.018"
"1791","9353.565"
"1792","9295.664"
"1793","9212.118"
"1794","9172.141"
"1795","9202.704"
"1796","9249.151"
"1797","9251.477"
"1798","9209.271"
"1799","9167.269"
"1800","9159.881"
"1801","9169.97"
"1802","9166.327"
"1803","9142.2"
"1804","9129.972"
"1805","9162.054"
"1806","9231.822"
"1807","9308.563"
"1808","9366.085"
"1809","9395.358"
"1810","9391.313"
"1811","9358.233"
"1812","9312.141"
"1813","9267.492"
"1814","9220.589"
"1815","9159.216"
"1816","9082.904"
"1817","9021.05"
"1818","9006.105"
"1819","9036.994"
"1820","9081.582"
"1821","9110.772"
"1822","9118.246"
"1823","9105.22"
"1824","9075.954"
"1825","9040.039"
"1826","9008.148"
"1827","8996.706"
"1828","9025.872"
"1829","9103.299"
"1830","9193.559"
"1831","9252.799"
"1832","9264.532"
"1833","9244.396"
"1834","9210.263"
"1835","9182.521"
"1836","9182.521"
"1837","9211.125"
"1838","9226.015"
"1839","9183.572"
"1840","9100.68"
"1841","9039.047"
"1842","9042.939"
"1843","9084.797"
"1844","9120.313"
"1845","9129.447"
"1846","9122.797"
"1847","9111.074"
"1848","9091.813"
"1849","9056.921"
"1850","9010.327"
"1851","8981.563"
"1852","9000.402"
"1853","9054.419"
"1854","9100.712"
"1855","9107.913"
"1856","9089.082"
"1857","9066.949"
"1858","9052.556"
"1859","9043.445"
"1860","9036.279"
"1861","9026.908"
"1862","9010.894"
"1863","8986.351"
"1864","8956.007"
"1865","8923.223"
"1866","8892.813"
"1867","8870.467"
"1868","8861.783"
"1869","8872.046"
"1870","8905.528"
"1871","8948.271"
"1872","8969.946"
"1873","8952.843"
"1874","8937.468"
"1875","8978.937"
"1876","9073.118"
"1877","9138.383"
"1878","9104.313"
"1879","9012.661"
"1880","8951.195"
"1881","8962.839"
"1882","9005.962"
"1883","9032.27"
"1884","9022.018"
"1885","8972.346"
"1886","8893.589"
"1887","8830.575"
"1888","8830.82"
"1889","8891.134"
"1890","8967.056"
"1891","9019.674"
"1892","9035.695"
"1893","9008.785"
"1894","8959.571"
"1895","8937.956"
"1896","8980.108"
"1897","9043.546"
"1898","9061.527"
"1899","9017.08"
"1900","8963.725"
"1901","8951.928"
"1902","8973.152"
"1903","8994.059"
"1904","8996.504"
"1905","8990.05"
"1906","8985.737"
"1907","8981.259"
"1908","8967.161"
"1909","8941.488"
"1910","8919.435"
"1911","8918.035"
"1912","8947.487"
"1913","9013.438"
"1914","9100.579"
"1915","9135.596"
"1916","9043.014"
"1917","8873.008"
"1918","8775.214"
"1919","8841.077"
"1920","8957.293"
"1921","8974.374"
"1922","8881.202"
"1923","8794.099"
"1924","8799.104"
"1925","8843.758"
"1926","8844.641"
"1927","8797.415"
"1928","8780.43"
"1929","8850.178"
"1930","8947.084"
"1931","8981.197"
"1932","8932.069"
"1933","8859.814"
"1934","8819.487"
"1935","8817.776"
"1936","8846.06"
"1937","8883.838"
"1938","8895.753"
"1939","8857.158"
"1940","8806.391"
"1941","8801.635"
"1942","8847.607"
"1943","8878.268"
"1944","8837.428"
"1945","8752.91"
"1946","8681.619"
"1947","8662.165"
"1948","8708.11"
"1949","8819.207"
"1950","8926.001"
"1951","8935.998"
"1952","8839.283"
"1953","8739.237"
"1954","8727.897"
"1955","8784.005"
"1956","8846.67"
"1957","8880.415"
"1958","8884.07"
"1959","8862.394"
"1960","8839.447"
"1961","8845.137"
"1962","8876.988"
"1963","8890.783"
"1964","8853.871"
"1965","8808.247"
"1966","8818.529"
"1967","8897.263"
"1968","8994.157"
"1969","9061.185"
"1970","9079.482"
"1971","9039.917"
"1972","8966.095"
"1973","8917.705"
"1974","8933.86"
"1975","8958.843"
"1976","8915.607"
"1977","8810.982"
"1978","8734.367"
"1979","8749.107"
"1980","8810.306"
"1981","8850.988"
"1982","8852.043"
"1983","8835.402"
"1984","8820.031"
"1985","8811.548"
"1986","8813.108"
"1987","8828.938"
"1988","8864.008"
"1989","8913.93"
"1990","8950.529"
"1991","8945.781"
"1992","8913.809"
"1993","8894.147"
"1994","8906.108"
"1995","8926.587"
"1996","8929.464"
"1997","8907.19"
"1998","8861.385"
"1999","8803.691"
"2000","8762.035"
"2001","8759.629"
"2002","8780.949"
"2003","8796.088"
"2004","8789.271"
"2005","8762.891"
"2006","8726.049"
"2007","8713.013"
"2008","8762.521"
"2009","8850.69"
"2010","8892.133"
"2011","8830.826"
"2012","8717.828"
"2013","8623.932"
"2014","8581.865"
"2015","8596.366"
"2016","8656.923"
"2017","8718.227"
"2018","8734.11"
"2019","8698.522"
"2020","8627.07"
"2021","8553.248"
"2022","8540.479"
"2023","8635.198"
"2024","8762.688"
"2025","8805.629"
"2026","8741.132"
"2027","8659.525"
"2028","8636.071"
"2029","8658.22"
"2030","8692.01"
"2031","8712.633"
"2032","8702.885"
"2033","8656.41"
"2034","8594.6"
"2035","8541.307"
"2036","8500.368"
"2037","8464.594"
"2038","8434.313"
"2039","8422.857"
"2040","8440.992"
"2041","8477.187"
"2042","8512.001"
"2043","8529"
"2044","8515.103"
"2045","8469.377"
"2046","8432.695"
"2047","8449.603"
"2048","8490.778"
"2049","8474.893"
"2050","8374.791"
"2051","8280.051"
"2052","8279.173"
"2053","8345.323"
"2054","8402.393"
"2055","8408.862"
"2056","8368.058"
"2057","8290.328"
"2058","8202.289"
"2059","8134.362"
"2060","8111.017"
"2061","8151.972"
"2062","8247.974"
"2063","8324.517"
"2064","8311.658"
"2065","8242.863"
"2066","8197.085"
"2067","8195.069"
"2068","8181.396"
"2069","8117.69"
"2070","8053.493"
"2071","8054.471"
"2072","8104.608"
"2073","8127.16"
"2074","8087.446"
"2075","8042.484"
"2076","8048.387"
"2077","8076.983"
"2078","8067.372"
"2079","8011.527"
"2080","7962.359"
"2081","7954.508"
"2082","7950.445"
"2083","7903.342"
"2084","7830.32"
"2085","7787.979"
"2086","7804.519"
"2087","7858.811"
"2088","7922.47"
"2089","7955.083"
"2090","7915.73"
"2091","7827.715"
"2092","7771.292"
"2093","7795.652"
"2094","7869.752"
"2095","7949.528"
"2096","7983.537"
"2097","7919.209"
"2098","7780.87"
"2099","7685.268"
"2100","7709.296"
"2101","7778.21"
"2102","7795.225"
"2103","7765.069"
"2104","7752.322"
"2105","7777.716"
"2106","7792.439"
"2107","7760.661"
"2108","7730.042"
"2109","7763.454"
"2110","7812.503"
"2111","7746.298"
"2112","7545.694"
"2113","7411.128"
"2114","7512.375"
"2115","7711.513"
"2116","7776.255"
"2117","7677.249"
"2118","7566.596"
"2119","7539.25"
"2120","7544.049"
"2121","7520.85"
"2122","7484.158"
"2123","7476.672"
"2124","7502.353"
"2125","7525.639"
"2126","7524.832"
"2127","7518.941"
"2128","7526.469"
"2129","7514.313"
"2130","7428.841"
"2131","7285.345"
"2132","7175.532"
"2133","7162.482"
"2134","7217.619"
"2135","7296.268"
"2136","7353.209"
"2137","7344.699"
"2138","7283.415"
"2139","7246.832"
"2140","7277.613"
"2141","7308.218"
"2142","7265.108"
"2143","7183.413"
"2144","7147.572"
"2145","7177.517"
"2146","7219.345"
"2147","7232.389"
"2148","7224.431"
"2149","7209.188"
"2150","7182.056"
"2151","7130.855"
"2152","7062.853"
"2153","7006.337"
"2154","6986.282"
"2155","7016.184"
"2156","7097.709"
"2157","7164.816"
"2158","7128.277"
"2159","7010.043"
"2160","6940.452"
"2161","6984.889"
"2162","7049.975"
"2163","7040.692"
"2164","6981.747"
"2165","6937.684"
"2166","6917.483"
"2167","6883.371"
"2168","6821.261"
"2169","6765.556"
"2170","6749.365"
"2171","6773.184"
"2172","6825.591"
"2173","6865.73"
"2174","6833.173"
"2175","6732.064"
"2176","6667.771"
"2177","6711.261"
"2178","6773.907"
"2179","6745.252"
"2180","6657.521"
"2181","6619.07"
"2182","6660.716"
"2183","6718.26"
"2184","6734.879"
"2185","6690.009"
"2186","6578.508"
"2187","6457.479"
"2188","6405.747"
"2189","6426.211"
"2190","6453.214"
"2191","6449.608"
"2192","6439.294"
"2193","6443.333"
"2194","6437.095"
"2195","6388.26"
"2196","6327.29"
"2197","6323.711"
"2198","6381.479"
"2199","6413.834"
"2200","6369.096"
"2201","6321.611"
"2202","6350.964"
"2203","6404.052"
"2204","6375.618"
"2205","6270.82"
"2206","6196.568"
"2207","6198.917"
"2208","6198.371"
"2209","6133.985"
"2210","6088.255"
"2211","6165.228"
"2212","6286.444"
"2213","6269.338"
"2214","6084.177"
"2215","5889.791"
"2216","5801.7"
"2217","5794.045"
"2218","5820.997"
"2219","5850.745"
"2220","5858.605"
"2221","5852.236"
"2222","5862.975"
"2223","5896.759"
"2224","5920.446"
"2225","5904.809"
"2226","5843.455"
"2227","5742.654"
"2228","5665.814"
"2229","5694.057"
"2230","5783.691"
"2231","5784.131"
"2232","5659.23"
"2233","5575.797"
"2234","5654.024"
"2235","5774.251"
"2236","5783.897"
"2237","5696.678"
"2238","5602.092"
"2239","5530.28"
"2240","5455.747"
"2241","5374.172"
"2242","5323.719"
"2243","5333.987"
"2244","5385.281"
"2245","5445.462"
"2246","5475.761"
"2247","5436.804"
"2248","5344.501"
"2249","5266.094"
"2250","5227.022"
"2251","5174.135"
"2252","5074.417"
"2253","4996.811"
"2254","5017.075"
"2255","5087.953"
"2256","5109.861"
"2257","5055.68"
"2258","4961.605"
"2259","4856.307"
"2260","4752.604"
"2261","4659.288"
"2262","4576.814"
"2263","4509.624"
"2264","4498.426"
"2265","4590.613"
"2266","4718.983"
"2267","4732.016"
"2268","4585.762"
"2269","4388.524"
"2270","4233.571"
"2271","4144.924"
"2272","4123.618"
"2273","4109.394"
"2274","4031.971"
"2275","3926.737"
"2276","3890.124"
"2277","3929.574"
"2278","3953.91"
"2279","3906.642"
"2280","3810.967"
"2281","3701.551"
"2282","3620.248"
"2283","3600.448"
"2284","3598.787"
"2285","3541.491"
"2286","3425.472"
"2287","3304.714"
"2288","3206.119"
"2289","3115.245"
"2290","3016.646"
"2291","2900.697"
"2292","2767.743"
"2293","2662.33"
"2294","2632.744"
"2295","2632.326"
"2296","2565.719"
"2297","2432.268"
"2298","2323.394"
"2299","2281.744"
"2300","2261.049"
