800,142.30246264651214
801,152.10173754336574
802,150.53033667048476
803,129.74446388548677
804,94.8763226653773
805,60.24911610568961
806,40.37304691960708
807,45.109317437107165
808,66.12712960411409
809,90.64568498164408
810,106.07618474497758
811,107.78882968283324
812,101.8808201965312
813,95.21535629920618
814,94.06363761497596
815,99.9138633781622
816,111.89223243248489
817,129.1129432302987
818,148.8981938317993
819,163.9911819042627
820,166.42210472128681
821,148.7571591620399
822,113.78854171050261
823,73.49644845474359
824,40.1860750861797
825,24.00761689886167
826,24.558268788736314
827,38.20922525296373
828,61.3266803891911
829,89.70282789486555
830,118.23986106654957
831,141.7589727992363
832,155.56735558566834
833,159.522201515676
834,155.97970227550832
835,147.32904914719256
836,136.0204330078668
837,124.68704432915729
838,115.99607317652772
839,112.42170920866556
840,112.72214167684615
841,112.2245594243268
842,106.13015088573411
843,91.12610408647197
844,71.06660664210722
845,51.94984575779563
846,39.73900822769065
847,38.10028043436978
848,47.29084834827336
849,67.29789752711622
850,97.46361311535293
851,131.88417984361877
852,162.02378202817818
853,179.34660357038774
854,178.4668279561647
855,161.48463825546423
856,131.57221712174578
857,92.12174679146665
858,49.83840908356433
859,13.979385398959494
860,-6.1271432799439935
861,-4.278996389759413
862,14.015006213410743
863,40.49304425348237
864,67.01129703391234
865,88.84394343724307
866,105.20316192462087
867,115.51713053534331
868,119.55402688642062
869,119.05302817210577
870,116.4743111634616
871,114.27805220792652
872,115.2214272288802
873,122.54961172521871
874,139.56078077093298
875,168.28510901469417
876,199.40977067944186
877,217.6049395619757
878,207.5307890325712
879,164.86049203456423
880,111.55522108397417
881,73.40414826911183
882,74.31944525020845
883,111.78128325904072
884,163.76583309854323
885,207.79126514247582
886,227.58774933503446
887,227.76145519050806
888,217.29755179293352
889,205.0832077957457
890,197.7565914214374
891,199.72387046121366
892,215.29421227468083
893,245.84678378950593
894,279.1527515011039
895,299.0412814723095
896,289.77953933306526
897,252.64069028014455
898,210.94589907678528
899,189.47833005246503
900,207.67814710254424
901,251.65651368802537
902,294.6795928352167
903,310.2465471355081
904,289.9655387450457
905,255.39872938448025
906,230.9222803387056
907,237.23935245657776
908,264.88710615067066
909,289.58270139699744
910,287.0332977348007
911,248.94705426624932
912,200.05212965624742
913,169.16268213216426
914,182.04286948359913
915,231.79584906217315
916,291.7707777812793
917,335.06281211585883
918,343.1451081022042
919,318.6698213377149
920,267.5901069807114
921,196.62611975021173
922,123.09001392572645
923,71.93494334706884
924,68.28306141414942
925,124.33052108679294
926,213.19747488453322
927,300.6480748864451
928,354.0144727309471
929,367.65181961564303
930,358.6022662971154
931,344.6189630907975
932,338.8800598707603
933,338.4117060695862
934,336.67605067818477
935,327.3752422456455
936,309.2774288790806
937,285.97475824347384
938,261.2383775615399
939,238.0044336135761
940,215.77207273731256
941,193.1814408277969
942,169.0276833372427
943,146.02994527490227
944,131.03337120694596
945,131.08610525632503
946,149.5792911026674
947,173.63407198214918
948,185.8475906873755
949,169.41898956728255
950,125.38141052701394
951,75.06299502782895
952,40.90288408698507
953,39.73221827766065
954,61.40013772882412
955,87.658782125176
956,100.62829070703447
957,94.92580227025428
958,80.19645516614764
959,66.98238730138837
960,63.806736137948974
961,68.93563869301215
962,77.40823153889141
963,84.28065080298438
964,85.4770321676715
965,78.00251087028482
966,58.927221703015675
967,27.33529901286056
968,-7.1901232984128
969,-31.66491177435819
970,-33.411933403871444
971,-11.171055621261985
972,21.93085369371147
973,51.84392621579536
974,66.58929317418733
975,64.9730853525125
976,49.302433088774706
977,21.89846627532279
978,-14.663685641173288
979,-57.49589365976499
980,-103.68502922524931
981,-148.77796422818756
982,-180.486571004938
983,-184.01972233767083
984,-145.2632914543883
985,-72.75115202894449
986,-2.5571781810558605
987,27.57275552368992
988,-8.930225926185813
989,-84.00899798804312
990,-152.94543656515634
991,-172.14641800668687
992,-133.13781910770012
993,-68.14351710916708
994,-11.672389697956532
995,9.791684993177114
996,6.501828385587942
997,-0.7818385452465009
998,8.058804730297197
999,35.69987829597267
1000,65.9045017897115
1001,81.48179440362401
1002,70.30087488402569
1003,41.48086153143595
1004,9.729872200638056
1005,-10.261975699328104
1006,-10.584565205112085
1007,-0.38077979905574466
1008,8.565496590865223
1009,5.399379591061006
1010,-11.050015617638564
1011,-36.2375742999393
1012,-65.52418216605656
1013,-92.34372537167656
1014,-106.32309051789707
1015,-96.64116465120424
1016,-55.743835263419896
1017,-0.7009902916543069
1018,40.19948188174203
1019,39.04169242921853
1020,-7.688247921907532
1021,-67.03022888941086
1022,-103.01114063610112
1023,-87.64387376976083
1024,-35.75031934310209
1025,23.574631146317188
1026,61.77208575612531
1027,65.96715209921967
1028,40.55793734382678
1029,-9.161451786445468
1030,-74.26190901251539
1031,-132.38032849979027
1032,-158.03560485806702
1033,-127.83963314148059
1034,-50.81030884842039
1035,38.653472078529376
1036,105.50581325268104
1037,129.03181784331719
1038,124.07158857576178
1039,110.79522773146346
1040,107.60283714808975
1041,116.16451821957526
1042,129.3103718962484
1043,139.76049868488371
1044,140.71499864880207
1045,126.14397140795518
1046,90.0875161390195
1047,30.065731575474274
1048,-37.211283992282915
1049,-88.53343271688027
1050,-101.46461719384024
1051,-73.47274046151506
1052,-22.869706000959923
1053,30.998582264130164
1054,71.79221996755405
1055,92.7113023006732
1056,88.93592401253409
1057,57.03617940995355
1058,10.192162357658162
1059,-27.556033721672065
1060,-32.10831584723746
1061,3.0554085199473775
1062,51.05523147718304
1063,81.25124468018475
1064,69.3135393431985
1065,29.752206239099905
1066,-8.032664300477336
1067,-15.430982385030802
1068,13.177341434908158
1069,57.87239616790794
1070,97.3742703817461
1071,115.38305220352413
1072,111.94882931979555
1073,90.47168897666961
1074,54.951717979949535
1075,16.06900269523794
1076,-11.266370951925637
1077,-12.204317475956486
1078,16.56524816890669
1079,58.1424105887254
1080,93.6272539499987
1081,107.05986197976927
1082,98.49031796576492
1083,73.22870475652962
1084,36.89510476153919
1085,0.4495999513546849
1086,-20.107728142273118
1087,-8.606798426242676
1088,39.222469754002304
1089,96.9301566146296
1090,133.13634193354483
1091,121.46110505053184
1092,75.33452486738133
1093,27.236679848034328
1094,9.12764801872072
1095,26.90750696810028
1096,53.356333847394126
1097,59.034205370535346
1098,23.72119781431138
1099,-40.27261298150006
1100,-113.45715161399312
1101,-176.9923431169609
1102,-219.67811296079162
1103,-235.03438705228837
1104,-216.82109173454046
1105,-169.31815378676583
1106,-113.7455004241765
1107,-72.84305929781294
1108,-63.970758494408074
1109,-80.60852653622896
1110,-109.57629238092159
1111,-138.03398542137438
1112,-157.70153548554845
1113,-163.7488728363296
1114,-151.45592817138277
1115,-123.97263262298657
1116,-99.0289177578743
1117,-95.97471557708923
1118,-127.48995851581822
1119,-172.28457944324146
1120,-198.3085116623588
1121,-175.95168890985224
1122,-115.61404535590918
1123,-60.23551560405758
1124,-53.51603469101792
1125,-110.80553808654258
1126,-190.98396169323678
1127,-246.24124184640095
1128,-239.7873153138753
1129,-193.36211929586716
1130,-148.02559142477185
1131,-142.56766976503968
1132,-178.02829281297272
1133,-224.45739949657582
1134,-251.13492917538497
1135,-243.86082164029722
1136,-220.78501711339595
1137,-203.7274562477869
1138,-209.09808012741632
1139,-225.81683026690916
1140,-234.21364861139773
1141,-216.35847753633425
1142,-180.1912598473209
1143,-153.35193877994607
1144,-163.7704579995916
1145,-218.66676160126917
1146,-288.93079410943574
1147,-341.77250047781854
1148,-351.8318260892338
1149,-325.9787167554059
1150,-279.81311871679645
1151,-228.4149786424059
1152,-180.3842436296145
1153,-140.1608612039745
1154,-112.05477931905261
1155,-99.43594635622321
1156,-104.21431112449682
1157,-128.1898228603386
1158,-168.82243122746513
1159,-208.64208631667134
1160,-227.03873864564775
1161,-206.62233915876823
1162,-158.0628392269282
1163,-106.31019064734028
1164,-75.74434564334842
1165,-70.8152568642272
1166,-73.64287738500934
1167,-65.18716070627124
1168,-37.9480607539499
1169,-12.965531879151968
1170,-15.609528857954501
1171,-64.40000689120825
1172,-137.82692160433726
1173,-199.8502290471497
1174,-216.4898856936361
1175,-186.5658484417654
1176,-134.948074613294
1177,-87.12652195356713
1178,-58.57114863129391
1179,-48.13191323838146
1180,-53.06877478970273
1181,-70.08169272289888
1182,-93.7806268981858
1183,-118.26553759813942
1184,-137.68638552748598
1185,-146.3731318129103
1186,-138.78573800282356
1187,-109.90416606717918
1188,-68.49837839725114
1189,-37.918337805409465
1190,-42.134007524946355
1191,-87.93535120982415
1192,-144.61233293448095
1193,-176.5249171936175
1194,-157.38306890198146
1195,-105.16675339414178
1196,-51.005936424275205
1197,-23.61058416596643
1198,-24.76066321196049
1199,-39.50614057396888
1200,-52.88698368241967
1201,-57.27316038627396
1202,-54.104638952769164
1203,-45.36138806721465
1204,-34.65337683276266
1205,-29.52057477017115
1206,-38.15295181759939
1207,-65.1404783303642
1208,-96.63312508071976
1209,-112.84086325761928
1210,-96.05366446648623
1211,-53.11150072899545
1212,-6.744344482829547
1213,20.457831418565547
1214,20.505053706190665
1215,3.38734869574364
1216,-19.785257712135717
1217,-38.63274003165134
1218,-44.5550731915846
1219,-29.192232535075163
1220,11.235806180637155
1221,58.51906678443811
1222,87.84757269159309
1223,77.41134690399849
1224,36.33041201040396
1225,-8.255209813307374
1226,-29.755496803896676
1227,-21.92042761051198
1228,-0.3999812944311998
1229,18.135862671182622
1230,24.737124401541223
1231,25.77382360046795
1232,29.425979560686756
1233,41.70361116404456
1234,60.51673688180199
1235,81.7953747748561
1236,101.68954249403396
1237,117.55925728034345
1238,127.37453596523483
1239,129.23539497086495
1240,123.92185031036752
1241,114.41391758812097
1242,103.72161200001392
1243,96.07494833372039
1244,97.36394096897311
1245,113.57860387782785
1246,145.64895062494543
1247,181.36499436786835
1248,206.4767478572976
1249,210.5142234373725
1250,201.19743304594886
1251,191.5963882148808
1252,193.01110007032185
1253,200.30157933297232
1254,199.53783631840815
1255,177.7198809373458
1256,141.32772269593625
1257,114.66137069606157
1258,122.30083363562153
1259,165.88611980883798
1260,211.7972371065407
1261,223.44419301647758
1262,182.48699462359946
1263,118.82564861037827
1264,70.24016125710114
1265,66.7005384421791
1266,101.81678564244248
1267,158.60890793348335
1268,219.90690998991886
1269,267.00079608573833
1270,280.4005700946018
1271,242.4362354901641
1272,165.83779534639325
1273,88.29525233788081
1274,47.73860874017009
1275,59.66786643007799
1276,110.00302688602278
1277,182.55409118834905
1278,258.6610600196582
1279,314.2439336651405
1280,324.52271201290205
1281,276.47739455431656
1282,198.93798038434034
1283,130.0744682018667
1284,102.22685631006425
1285,112.68514261672681
1286,145.7693246345989
1287,185.65939948174673
1288,215.57536388189692
1289,218.1472141647846
1290,177.47494626652224
1291,107.43855572993925
1292,49.23803770495033
1293,44.41338694892329
1294,100.10459782701582
1295,175.05166431258294
1296,224.48457998750018
1297,226.31333804256246
1298,207.59793127784906
1299,201.8083521030985
1300,230.4145925380817
1301,274.08664421299363
1302,304.83449836881846
1303,300.4281458577243
1304,269.6775771434477
1305,231.7327823016949
1306,204.5937510205058
1307,196.2104726006819
1308,209.35293595615803
1309,245.9311296144133
1310,295.3150417168745
1311,337.4446600193114
1312,352.7199718922584
1313,340.620964321417
1314,321.5876239080644
1315,316.8999368694731
1316,331.92788903933797
1317,346.8014658681841
1318,339.49065242379766
1319,302.40543339164833
1320,261.2257930753276
1321,246.3117153969706
1322,275.983183897697
1323,327.66018173805423
1324,370.1126916984449
1325,378.76069617958456
1326,362.1341772029391
1327,339.14311641118184
1328,326.3974950686443
1329,323.5672940617678
1330,322.73249389957346
1331,316.893074714113
1332,310.22901626093517
1333,313.9402979195729
1334,338.43689869398077
1335,378.3987972130453
1336,414.82597173103386
1337,428.8284001281081
1338,418.15605991077246
1339,400.07892821238966
1340,392.78698179366074
1341,403.680197043117
1342,422.9785499776317
1343,439.37201624290356
1344,444.48057111397793
1345,436.1041894957398
1346,412.8428459234401
1347,376.52651456320564
1348,338.23516921255214
1349,310.75878330091655
1350,304.02732989017204
1351,316.6507816751746
1352,344.4291109842725
1353,382.1722897798718
1354,419.1002896589489
1355,442.64308185361733
1356,442.4006372316617
1357,423.9929262971
1358,400.15991919072985
1359,382.7715856906925
1360,375.0278952130466
1361,375.1288168123119
1362,381.1343191820615
1363,389.50437065549886
1364,395.50893920601266
1365,394.7779924477927
1366,390.2914976363827
1367,391.78942166931665
1368,408.65173108666204
1369,432.12839207166144
1370,432.6593704513125
1371,380.2446316969963
1372,280.38414092506537
1373,189.01786289747906
1374,165.54576202241878
1375,228.90780235491184
1376,327.1039475974667
1377,400.99416110069615
1378,417.34840586396604
1379,398.8466445360373
1380,375.4488394157015
1381,367.9349524524532
1382,372.7749452471289
1383,382.4287790525723
1384,389.17641477430334
1385,384.7278129711958
1386,360.6629338561306
1387,315.3417372966942
1388,273.8441828158557
1389,267.82022959266214
1390,317.7598364629175
1391,390.73296191990266
1392,437.9895641150597
1393,420.91960085871506
1394,359.2530296207751
1395,293.3798075314735
1396,258.8898913820649
1397,258.55323762557055
1398,281.4498023774995
1399,315.8795414166034
1400,344.02241018560926
1401,345.08836379197055
1402,302.07735700861485
1403,234.26934427472224
1404,181.08427969646254
1405,178.41211704779562
1406,220.16280977121642
1407,273.83631097856596
1408,308.4525734517829
1409,318.8515496437267
1410,318.1031916789616
1411,318.7874513545539
1412,319.78428014088786
1413,309.2136291824754
1414,276.0854492987801
1415,231.32969098503236
1416,204.89630441307236
1417,225.5852394321755
1418,284.6164455699054
1419,337.4698720329434
1420,340.16546770797504
1421,295.4531811625002
1422,254.28296064575443
1423,268.1347540895422
1424,339.8785091091231
1425,418.6041730040997
1426,451.83169275930413
1427,427.70101504570084
1428,382.45208622127393
1429,354.5048523319474
1430,359.7592591124903
1431,385.8652519874522
1432,418.8027760720688
1433,448.6117761732112
1434,470.72219679031514
1435,481.04398211633634
1436,480.8270760386986
1437,478.70142214024054
1438,483.64696370020647
1439,497.8336436951922
1440,513.731404800139
1441,523.070189389322
1442,518.2599395373072
1443,492.7205970200084
1444,440.2621033156447
1445,372.97439960576594
1446,329.9874267762789
1447,352.0211254184651
1448,444.8954358300234
1449,562.2702980160866
1450,653.9456516902956
1451,691.8314362758392
1452,680.9975909065051
1453,629.4040544277741
1454,554.7107653978674
1455,489.0176620888451
1456,465.0746824876878
1457,488.4017642974013
1458,524.8088449381157
1459,537.485861548188
1460,518.0727509853332
1461,498.7994498277494
1462,514.2058943752454
1463,562.4320206503853
1464,591.2677643996358
1465,546.033061094522
1466,423.92784593279794
1467,290.94205383960434
1468,216.5656194686635
1469,219.8284772034549
1470,255.9805611584161
1471,276.87180518015157
1472,260.67214284862166
1473,216.94150747839194
1474,157.2598321198293
1475,97.37704956036396
1476,57.65309232570871
1477,57.74789268112909
1478,92.46138263269495
1479,130.5834939285396
1480,140.85415806015408
1481,118.20330626365467
1482,82.91086952107435
1483,55.75677856168659
1484,47.690963863287834
1485,60.96335565352274
1486,96.45388391122287
1487,138.71247836773
1488,159.07906850823565
1489,131.52358357313642
1490,71.92595255941706
1491,26.57610422198013
1492,37.41396707505555
1493,87.16946939357149
1494,120.11253921456046
1495,86.17310433856073
1496,-1.098907668974789
1497,-91.68356947624125
1498,-139.43095398367223
1499,-135.34113432247614
1500,-89.03418385318946
1501,-12.590176164239892
1502,65.61081492956328
1503,110.05871538846259
1504,94.1834509492819
1505,45.774947126890766
1506,12.873129215728113
1507,30.857922291319483
1508,70.64925121179112
1509,82.82704061941331
1510,34.81121494214676
1511,-34.9283016048048
1512,-69.2215850174307
1513,-32.318711501347934
1514,36.75024252980984
1515,82.65520045594712
1516,72.7860854521532
1517,39.56282049026959
1518,26.87532834056765
1519,55.273531573328
1520,90.48735256053078
1521,90.64671347747571
1522,40.97153630446701
1523,-21.35825717150874
1524,-53.71274535512566
1525,-41.13200684098774
1526,-11.856120411937809
1527,2.624834962649402
1528,-10.079219871389796
1529,-38.08836425127811
1530,-68.33267769554368
1531,-96.12223990226994
1532,-125.377130747318
1533,-159.73743028254466
1534,-191.38321873401583
1535,-203.05457650020617
1536,-179.26158415017744
1537,-128.48432242176023
1538,-74.87287221971928
1539,-40.49731461389456
1540,-27.177730837365743
1541,-26.374202284559942
1542,-30.796810509389616
1543,-41.765637223350495
1544,-64.01076429361638
1545,-97.22227374113572
1546,-117.31024773870558
1547,-93.08476860901465
1548,-11.365918822713866
1549,77.61621900354658
1550,109.65156210910027
1551,53.92002759122988
1552,-33.1184675928107
1553,-81.21400662380984
1554,-58.61667281857626
1555,-8.646549627892455
1556,17.336279365510563
1557,-1.3082695509801852
1558,-40.530280217793916
1559,-73.39983660110374
1560,-90.89702279071571
1561,-103.4319229979792
1562,-121.63462155367233
1563,-144.39520290586006
1564,-161.08375161776348
1565,-162.15035236560107
1566,-151.55508993642252
1567,-141.27804922592622
1568,-141.73931523626743
1569,-151.8389730738636
1570,-165.53710794716062
1571,-177.40380516441473
1572,-184.80915013144295
1573,-185.94322834936793
1574,-179.346125412354
1575,-164.57792700531354
1576,-141.42871890161769
1577,-115.47858696078765
1578,-105.2376171261767
1579,-130.6458954226291
1580,-187.40350795412633
1581,-233.190540901438
1582,-224.1070805197378
1583,-166.95321313621025
1584,-124.299025147664
1585,-156.30460301809944
1586,-243.0000332762811
1587,-302.7254025133043
1588,-262.9907973801255
1589,-148.7463045850982
1590,-36.462010891475074
1591,9.101996885065091
1592,-7.084368121037187
1593,-55.431192822718
1594,-107.62856417773764
1595,-140.10656918611676
1596,-130.48529488759414
1597,-74.2148283590086
1598,-9.145256711717593
1599,21.203332911014513
1600,2.2208533366556367
1601,-35.53278263396169
1602,-58.36766222397455
1603,-53.283872677828185
1604,-28.85150125857217
1605,5.029364754816925
1606,33.818638070184534
1607,39.80623138489682
1608,9.2120573886059
1609,-42.73397123398718
1610,-87.88194180036953
1611,-102.77194162740489
1612,-85.21405802854679
1613,-38.83837831100209
1614,28.63501022710807
1615,98.59602029959024
1616,150.70456463505434
1617,174.78055597980165
1618,177.82390710071923
1619,168.31453078819868
1620,151.36233985907165
1621,128.4172471595448
1622,100.529165568174
1623,65.83800799884375
1624,20.553687403764343
1625,-35.28388322353385
1626,-75.12479084515508
1627,-61.37912237579076
1628,24.64303532032136
1629,127.53159543248876
1630,173.8164712066482
1631,128.7175759484835
1632,46.18482302654593
1633,-8.111874124604583
1634,-2.822602001237101
1635,46.0025529727227
1636,118.44350444888732
1637,187.86016615762128
1638,221.98245191125534
1639,195.0402756073454
1640,138.27355123191592
1641,111.73219286274616
1642,157.05611467267408
1643,229.74523093288553
1644,260.4694560162643
1645,215.10870440072722
1646,150.21289067259204
1647,135.77192952995938
1648,188.25573578610965
1649,244.8242243729146
1650,240.1673103442863
1651,182.45490887961932
1652,143.73693528725744
1653,187.4833050079833
1654,286.00393361853276
1655,365.7887368351094
1656,371.7176305169287
1657,331.3105306697835
1658,294.7873534496139
1659,289.2480151661093
1660,287.18243228631945
1661,254.06052143829038
1662,191.01219941471936
1663,146.30738317662326
1664,167.34598985702178
1665,241.96793676465313
1666,313.6131413876974
1667,333.02152139752616
1668,307.80299465246026
1669,268.89747920155605
1670,240.1948932884061
1671,221.21515535496837
1672,206.34818404540056
1673,191.01389820991426
1674,172.5122169086735
1675,148.6330594156716
1676,123.15634522266373
1677,105.70199404309824
1678,104.95992581608152
1679,118.45006071034368
1680,137.75231912824347
1681,154.39662170978045
1682,159.79288933664793
1683,145.3410431362572
1684,110.24100448584431
1685,70.57269501655719
1686,44.1490366175658
1687,32.94995144020322
1688,20.922361902132252
1689,-6.774809308491967
1690,-41.35763922881233
1691,-59.78520461705375
1692,-47.374581948284685
1693,-30.954847410159346
1694,-49.853076898634754
1695,-119.51034601365791
1696,-199.6697300548676
1697,-243.06130401722476
1698,-233.82814258666076
1699,-193.34332013569838
1700,-144.8819107190302
1701,-108.46798806909646
1702,-102.15662559163502
1703,-136.45289636121197
1704,-186.1588731167285
1705,-215.5786282569061
1706,-206.29023383574713
1707,-178.16576155798793
1708,-155.59428277450206
1709,-145.16586847772123
1710,-133.9395892969951
1711,-109.65351549394836
1712,-75.98471695782791
1713,-45.31526320078956
1714,-28.252223353210866
1715,-27.717666158941938
1716,-44.676659970551555
1717,-76.63527274455191
1718,-114.64557203659388
1719,-149.204624996657
1720,-173.7494983641718
1721,-184.40125846319097
1722,-178.8009711974555
1723,-164.78370204552084
1724,-154.59251605578538
1725,-156.07547784154667
1726,-163.55365157601773
1727,-168.771100987311
1728,-164.1038893534078
1729,-142.80007949711762
1730,-100.08573378098299
1731,-54.514914102201146
1732,-40.20168188746902
1733,-79.68409808786055
1734,-138.48922317364304
1735,-165.24311712908275
1736,-136.84883944723333
1737,-88.45244912467206
1738,-60.92500465625744
1739,-63.32156402981491
1740,-74.53418472083649
1741,-74.68792368713548
1742,-61.38283736346966
1743,-39.73098165618103
1744,-16.54941193774357
1745,-3.462183041356184
1746,-12.73934925546564
1747,-48.072964318282175
1748,-102.31408141226711
1749,-166.14275315858322
1750,-215.87203161156322
1751,-219.5959682530738
1752,-160.41061398695456
1753,-78.8260191333411
1754,-28.535233423019235
1755,-29.79430599173247
1756,-49.81328537446825
1757,-53.54221949971361
1758,-38.79415568369404
1759,-26.462140624584208
1760,-33.223220396683246
1761,-53.70944044457974
1762,-76.11884557727171
1763,-90.88747996228267
1764,-92.6453871197391
1765,-77.33260991640964
1766,-54.55719055975169
1767,-44.99017059189464
1768,-63.81259088361912
1769,-94.82749162830987
1770,-111.41791233586628
1771,-103.3008918265914
1772,-94.20546822507822
1773,-110.17667895403065
1774,-141.42256072808595
1775,-146.82714954760377
1776,-95.40748069239999
1777,-20.889588715521313
1778,20.047492563095147
1779,3.3777300629153615
1780,-24.2479085508312
1781,-10.056454860770828
1782,39.058060309012944
1783,63.22260689943323
1784,14.789155622824183
1785,-72.99532203052695
1786,-138.2838537859061
1787,-142.01946657758708
1788,-93.25218654228047
1789,-8.310039012525522
1790,75.86295148993486
1791,104.83476126080859
1792,42.24836741996842
1793,-49.38725208186952
1794,-75.43711845638245
1795,-1.9422520708631055
1796,88.63432755856047
1797,106.59560177378808
1798,52.043552781567996
1799,-6.605836339578673
1800,-14.737581632465663
