800,137.7614470199769
801,127.93635687998722
802,117.49255291373083
803,106.70229800289962
804,95.43185428048673
805,83.2444831275825
806,69.70844517019214
807,54.73300027609912
808,39.59440755177275
809,25.90592533930794
810,15.284811213410649
811,9.631321978418782
812,11.239713665361705
813,22.423241529068036
814,44.638160045289624
815,72.23572290789343
816,96.0871830260694
817,107.05379252158673
818,100.97580272608502
819,86.40046417839767
820,73.87202662192794
821,73.32273900205291
822,83.054849463555
823,90.91360534811429
824,84.38125319181563
825,55.19703872270111
826,15.978206858364501
827,-14.274998296428748
828,-16.812333452078747
829,11.804443863546112
830,50.8895753028537
831,77.63830169627545
832,72.2988630500895
833,43.890498544251386
834,17.28644653027368
835,17.49594452913516
836,57.675229229227625
837,118.37253648432488
838,174.59310131161874
839,202.23615788973802
840,195.06293955686306
841,163.3116788088173
842,117.83360729722517
843,68.82095582770853
844,23.308954358079063
845,-12.618168003386018
846,-32.93218299967339
847,-34.31786322670996
848,-17.504982135029422
849,16.442685968637306
850,65.51536591975128
851,119.70328169443019
852,165.03265640791324
853,187.52471231308482
854,181.22967079901537
855,159.19175238952448
856,137.2041767417959
857,130.18716264502473
858,139.99092801906227
859,158.36368991313975
860,176.79366450457746
861,187.99106709756234
862,189.25411212193103
863,178.95901313199283
864,155.66498280538326
865,123.40223294194402
866,92.49097446263477
867,73.60141740847575
868,75.65777093951874
869,97.37024333384761
870,133.76204198660707
871,179.8173734090651
872,229.0414432276848
873,272.4384561832667
874,300.77561613006947
875,306.16112603500005
876,292.77718797681155
877,271.19800314530585
878,252.03777184064347
879,241.75869347258595
880,236.90696655982538
881,232.5927887293219
882,224.28735671566938
883,212.63786636049736
884,202.11351261187883
885,197.27048952380392
886,200.7079902556252
887,208.44020707158597
888,215.10133134032185
889,215.65555353444688
890,212.63706323010592
891,216.07904910659636
892,236.34269894600584
893,279.97019963284947
894,335.82873715377355
895,387.6604965972565
896,419.5476621533362
897,428.87541711339145
898,430.2679438698942
899,439.4974239162493
900,468.529037846607
901,505.62996535572347
902,529.9273852388596
903,520.7554753916611
904,472.8564128101134
905,406.48937359047704
906,344.30053292927914
907,306.7850651233075
908,296.74114356963764
909,308.26494076567724
910,335.393628309248
911,371.5793768986641
912,409.0693563328641
913,439.9637355115392
914,456.9986824353109
915,459.7543642058936
916,451.9419470263201
917,437.33559620116284
918,418.53647613679095
919,395.2087503416351
920,366.547581426481
921,332.149131104803
922,296.9905601930823
923,269.93102861117586
924,259.9216953826872
925,271.9887186353808
926,299.30425560160074
927,332.8034626187018
928,363.56049512952814
929,385.0565076828807
930,392.76965393404316
931,382.2490866452863
932,352.22195768641905
933,312.6294180353543
934,275.88661777869675
935,253.94770611233616
936,248.9538313420726
937,253.71314088427607
938,260.66178126651175
939,263.45589812826984
940,260.6506362216187
941,252.03813941194494
942,237.5165506786998
943,219.80101211613692
944,204.56866493409507
945,197.6396494587898
946,202.04810513361736
947,208.44417052000244
948,204.02898329822347
949,176.51668026828338
950,128.9403973508015
951,81.74926958789729
952,56.351431144123126
953,68.53001530738038
954,107.00715448989104
955,152.38698022915196
956,185.6116231889264
957,199.15521316023114
958,199.35187906238207
959,193.36874894400717
960,186.77194998410778
961,177.0406084931219
962,159.10784991400578
963,128.11679882334283
964,87.11657893244592
965,48.96431308850333
966,27.138123275710313
967,31.294130616446637
968,51.161455372444834
969,70.02021694598261
970,71.46553388109169
971,51.16652386478927
972,19.998303728298197
973,-10.190010551681553
974,-29.261303851712
975,-36.020461900343435
976,-32.17637127680973
977,-19.510919409716735
978,-2.5369945757374808
979,10.831514101771972
980,12.457716654069372
981,-2.468277731575654
982,-21.791360710500157
983,-27.956424779269582
984,-4.012363274248855
985,46.52792962977401
986,95.27755892108325
987,112.34262875243257
988,75.92724244252167
989,3.876502477472968
990,-73.88948948769757
991,-128.05763262755863
992,-148.75282694478483
993,-148.59497326860583
994,-141.47297325328327
995,-138.12572937658297
996,-134.8701449381715
997,-123.90412405808456
998,-97.86357167513233
999,-61.20039354529945
1000,-31.195496240145076
1001,-25.77378714518636
1002,-55.82017445825477
1003,-102.64556718788299
1004,-139.8078751516332
1005,-140.88100897443837
1006,-94.16488008692977
1007,-24.98640072375747
1008,35.58951607810559
1009,59.10395648107078
1010,44.19200584865757
1011,5.479748747206031
1012,-42.20473105238307
1013,-86.70535057289271
1014,-121.09802762904474
1015,-139.07068082572732
1016,-135.94422955621667
1017,-119.28659400039396
1018,-102.26269512295221
1019,-97.88145467158574
1020,-109.00279517517265
1021,-123.29563994195814
1022,-127.18391305771911
1023,-110.42353938391898
1024,-80.63444455585886
1025,-51.40555498081267
1026,-35.9097978361624
1027,-35.699101067517404
1028,-39.52739338684114
1029,-35.473604270528085
1030,-15.456663957515048
1031,14.440496552606419
1032,44.86094550156304
1033,66.76175037427129
1034,76.0119779008146
1035,72.32969405837139
1036,55.54596407316785
1037,29.936852422428274
1038,10.746422836362399
1039,14.893738300126643
1040,56.1638610558075
1041,119.91585260440479
1042,176.38377370784656
1043,195.92868439097947
1044,168.7696439435731
1045,117.37671092235178
1046,67.19494315301199
1047,39.34539773225697
1048,31.337131029826196
1049,32.65319869055202
1050,33.08265563640089
1051,30.351556068533682
1052,30.49995346936703
1053,39.96990060465032
1054,61.566449525531425
1055,86.34765157064794
1056,102.98155736820445
1057,101.47521683807463
1058,87.73867919389158
1059,78.05099294517277
1060,88.77420589939356
1061,123.89536516414955
1062,163.8505171492343
1063,186.43870756879005
1064,174.0789814434338
1065,137.9513831023978
1066,100.15195618566577
1067,82.3267436461174
1068,91.23078775168142
1069,117.103130087502
1070,149.29681155808248
1071,178.07287238946446
1072,196.60135213138528
1073,198.6822896594731
1074,179.3257231774005
1075,147.59169021907837
1076,121.39022765085065
1077,118.64137167366425
1078,142.83515782528957
1079,172.30162098250548
1080,182.80079536329504
1081,156.27271452906825
1082,107.60741138686353
1083,62.58491819155461
1084,45.99526654808142
1085,61.00848741366099
1086,90.55461110002034
1087,116.82366727560475
1088,126.63568496783228
1089,118.93069256531089
1090,94.54871782007467
1091,55.6397878498301
1092,14.858929140202235
1093,-10.107832453040828
1094,-2.0144717017174116
1095,38.62503599700358
1096,88.62171462286642
1097,123.32158753476324
1098,123.65467747301409
1099,90.34100656162445
1100,28.510596310523397
1101,-55.366532382142395
1102,-139.5023592277612
1103,-192.57786454497545
1104,-183.56302925742784
1105,-111.48283489147434
1106,-23.59326357392092
1107,28.46070197026529
1108,8.027078420218459
1109,-54.939118138539925
1110,-111.96687221182583
1111,-117.91416889450193
1112,-75.29299386820276
1113,-22.039333399043244
1114,3.2378256646534282
1115,-18.551504105344065
1116,-70.04931071489591
1117,-129.92758274519474
1118,-178.74530935048278
1119,-206.76648025576105
1120,-207.3180857544903
1121,-174.89911670631773
1122,-123.14656453475982
1123,-81.25742122492557
1124,-78.7486793212247
1125,-124.30633192505593
1126,-185.1813726925302
1127,-223.6987958321788
1128,-210.57859610262858
1129,-161.09076881034707
1130,-105.20730980731787
1131,-71.80521548875367
1132,-71.16348279080921
1133,-98.37210918826895
1134,-147.98509269226997
1135,-209.51543184799448
1136,-262.5941257323793
1137,-285.6961739518156
1138,-263.64457663987014
1139,-213.1433344549805
1140,-160.87044857815272
1141,-132.14192071068464
1142,-131.66575307187122
1143,-148.49194839671145
1144,-171.2915099336078
1145,-191.67344144209346
1146,-206.41274719053035
1147,-212.8004319538286
1148,-208.78350101115757
1149,-195.20696014365058
1150,-173.6858156321432
1151,-145.850074254864
1152,-113.38474328516895
1153,-78.026830489247
1154,-41.60534412385459
1155,-10.55029293403095
1156,1.9783138491930004
1157,-17.69953348895433
1158,-73.76384514469828
1159,-137.8846317934458
1160,-174.85390458750953
1161,-154.8076751538465
1162,-94.33595559179412
1163,-33.71275847079414
1164,-12.256096828130467
1165,-35.9059841666749
1166,-73.31243445262407
1167,-91.17546211323315
1168,-73.51508203457706
1169,-47.11130955927729
1170,-45.254160484262684
1171,-92.88365105852063
1172,-166.04679798084362
1173,-223.08861839759084
1174,-225.00012990043615
1175,-175.21435052413653
1176,-110.82129874429666
1177,-69.60099347512732
1178,-69.0674540672153
1179,-92.91070030529227
1180,-121.600752406006
1181,-140.08763101570548
1182,-149.91135720820967
1183,-156.42195248258759
1184,-164.2494387609513
1185,-171.5768383862378
1186,-173.30717411998194
1187,-164.5634691401483
1188,-147.09874703889
1189,-129.68103182036248
1190,-121.40034789852507
1191,-126.68672009493821
1192,-139.81017363658975
1193,-153.7007341536828
1194,-161.8184276774682
1195,-160.07328063805107
1196,-145.1053198622194
1197,-114.71457257126713
1198,-79.6110663788113
1199,-58.51482928864789
1200,-69.67588969256212
1201,-111.12427636817665
1202,-156.09001847679247
1203,-176.29314556124518
1204,-156.02368754373674
1205,-110.41167472369489
1206,-59.22713777563695
1207,-20.14010774702183
1208,0.30938394388249435
1209,-0.8686944898709044
1210,-25.90437520177875
1211,-67.99769070976072
1212,-114.54867389403626
1213,-152.97735799503425
1214,-175.2537766112291
1215,-178.9779636970925
1216,-162.1299535609396
1217,-127.99978086286865
1218,-92.5774806126301
1219,-73.69308816756529
1220,-83.9566392304987
1221,-110.86816984766665
1222,-134.42771640662613
1223,-136.32531563418888
1224,-115.9010045943669
1225,-82.77482068626159
1226,-46.66680164205172
1227,-16.076985524914562
1228,1.7445892730411288
1229,-0.2821159672093927
1230,-21.017140289533927
1231,-43.00052306062389
1232,-46.84230396794737
1233,-19.792523017726126
1234,25.61877946709137
1235,70.93156284884753
1236,99.6557861772053
1237,110.1814081911325
1238,107.66838732094584
1239,97.23668169027223
1240,82.9162491180723
1241,67.84704712062558
1242,55.13903291352108
1243,46.65216341363157
1244,42.536395241095306
1245,42.79168472128913
1246,47.85798788680586
1247,59.36526047939515
1248,79.09345795194349
1249,107.8125354704116
1250,141.30244791579207
1251,173.91314988604609
1252,199.96459569804938
1253,213.79673938951237
1254,209.7395347209258
1255,182.6929351774579
1256,138.20689397090428
1257,91.60136404156583
1258,58.40629806018296
1259,46.33164842983206
1260,51.00736728780066
1261,67.05340650751532
1262,88.50971770039905
1263,107.96625221776412
1264,117.7829611526904
1265,113.89979534188387
1266,108.97670536755686
1267,120.57364155928008
1268,162.55055399583398
1269,217.95739250707084
1270,254.3841066757468
1271,241.62064583935899
1272,187.9069590919953
1273,133.10299528614087
1274,117.29870303451935
1275,151.5540307118972
1276,208.58892645689775
1277,258.47333817381696
1278,281.8572135344075
1279,282.05049997969945
1280,265.24314472174956
1281,237.90509474547616
1282,207.36629681039267
1283,181.1766974524162
1284,165.70624298560324
1285,160.34487950394578
1286,161.9025528830989
1287,167.1992087821509
1288,173.50479264535898
1289,178.3292497038983
1290,179.34252497758825
1291,177.13456327662425
1292,174.96530920330224
1293,176.22470715374584
1294,183.78270131959107
1295,199.86923568972998
1296,226.63425405198723
1297,263.337699994825
1298,302.94951690902053
1299,337.64964798937945
1300,360.5780362363803
1301,368.31462445787474
1302,358.15935527073634
1303,329.5421711025374
1304,293.29301419319927
1305,264.061826596635
1306,254.6985501824147
1307,262.38312663738725
1308,276.32549746732184
1309,286.105603998536
1310,287.9533873795208
1311,283.12878858255135
1312,273.07174840531115
1313,261.0722074724763
1314,252.50010623734488
1315,252.6953849834117
1316,260.58798382595705
1317,264.8978427136444
1318,253.4649014300885
1319,223.10909959543278
1320,191.3003766679085
1321,178.47867194540595
1322,197.26392456702888
1323,234.02607351463485
1324,269.5650576143962
1325,287.7608155383223
1326,288.0832858058111
1327,274.83240678516086
1328,252.6881166951025
1329,229.08035360631584
1330,212.709055442936
1331,211.43415998406817
1332,224.075604865282
1333,243.7133275801025
1334,263.4272654815195
1335,277.3873557834395
1336,280.7435355622001
1337,268.8857417580148
1338,244.38391117645733
1339,218.13798048991885
1340,201.4878862390633
1341,199.62356483428448
1342,208.0749525571464
1343,221.5019855618266
1344,235.72459987655384
1345,248.94273140503356
1346,259.72631592788093
1347,265.09528910402514
1348,257.7995864721488
1349,229.77914345206955
1350,179.56389534615846
1351,131.7137773407394
1352,117.23872450747149
1353,158.11867180475565
1354,227.94355407909825
1355,284.0933060664993
1356,289.9278623938153
1357,251.94715758014536
1358,195.75112603817433
1359,145.53970207553175
1360,110.65281989616597
1361,91.93041360164716
1362,89.92241719256162
1363,102.42876456980775
1364,125.2493895359421
1365,154.10422579651095
1366,184.12320696136885
1367,209.87626654599262
1368,225.91333797278276
1369,226.8643545724044
1370,207.43924958504795
1371,162.6179561617464
1372,100.52040736568233
1373,47.966536173440545
1374,32.976275476314186
1375,63.10955808158724
1376,110.03631671378753
1377,141.79648401597115
1378,140.44999255097719
1379,118.15677480269551
1380,91.05676317730831
1381,71.40989000455738
1382,61.26608753897017
1383,60.98528796111714
1384,69.39742337883399
1385,80.42242582846484
1386,86.9202272760831
1387,84.50075961870789
1388,79.34395468554249
1389,80.29974423916246
1390,93.95805997674142
1391,116.308833531255
1392,140.18199647268193
1393,158.62748030918556
1394,165.9252164883328
1395,156.76513639825316
1396,128.80717136884596
1397,99.54125267295422
1398,94.79731152752174
1399,134.42527909480123
1400,190.23508648348434
1401,210.75666474988793
1402,152.089944899104
1403,43.69785788616355
1404,-44.24266538282609
1405,-47.65669404951586
1406,23.782702697817513
1407,114.0194556254155
1408,169.5014954551698
1409,179.56475286576097
1410,163.9191584937871
1411,142.2046429348793
1412,123.70213674483784
1413,109.47457044074326
1414,100.41487450206478
1415,98.08297937178031
1416,104.60781545748796
1417,121.82031313249172
1418,144.78140273692225
1419,162.12901457882253
1420,162.80107893524837
1421,149.4015260533506
1422,138.61928615147917
1423,147.29628942024465
1424,178.28246602361833
1425,218.88574610000433
1426,255.87905976331422
1427,283.9423371040375
1428,307.1055081903178
1429,329.9685030690107
1430,357.31125176674686
1431,394.15368429100636
1432,445.26573063115575
1433,505.4373207595236
1434,556.2683846324398
1435,578.9288521912858
1436,574.9686533635504
1437,573.9077180638706
1438,606.6759761950598
1439,671.3733576491741
1440,719.5697923085227
1441,700.2352100467288
1442,612.7095407297365
1443,529.6327142168557
1444,528.3646603617944
1445,624.5553090136709
1446,742.5645900180443
1447,800.2624332179457
1448,768.3387684548725
1449,696.3935255698361
1450,639.9166344043606
1451,622.6380248014921
1452,620.6576266068387
1453,606.5653696695354
1454,571.9711838432959
1455,536.8149989873982
1456,522.9567449676906
1457,534.3963516576077
1458,549.0237489391602
1459,542.9788667039338
1460,510.33163485410296
1461,470.71198330342486
1462,445.2898419782232
1463,435.5751408183987
1464,415.85780977842114
1465,359.1977788283166
1466,269.00197795467466
1467,188.99533716161386
1468,164.61378647180572
1469,199.85725592742892
1470,246.28367559119943
1471,253.18097554731685
1472,207.7350859024791
1473,142.4859367868612
1474,91.90745835509915
1475,68.359580787288
1476,59.345234289949076
1477,51.17534909702772
1478,34.00085547087292
1479,1.9686837032259064
1480,-49.78923588379621
1481,-108.88997293672219
1482,-146.28059706973545
1483,-133.9441778636865
1484,-76.54078486513026
1485,-7.695487585311639
1486,39.31164450079632
1487,53.37454195549071
1488,41.248135379320956
1489,10.345355412062418
1490,-29.909867266282163
1491,-68.6266019345021
1492,-95.5449178291874
1493,-108.24188414375749
1494,-109.3765700274489
1495,-101.94104458433867
1496,-91.3433768723662
1497,-84.37663590230841
1498,-86.40989063682355
1499,-90.54020998943815
1500,-83.69266282356148
1501,-56.272317951479636
1502,-23.982244133367203
1503,-13.549510076296428
1504,-44.333184433218776
1505,-90.85133580197544
1506,-110.87803272429483
1507,-74.500343684791
1508,-14.22533710994503
1509,17.720918632883695
1510,-13.959644763515826
1511,-73.14509554519827
1512,-104.89350189606375
1513,-73.67593193682478
1514,-11.681453723986124
1515,34.16686475115057
1516,35.56595556354296
1517,17.536750855399077
1518,14.53718283722992
1519,42.385183788865106
1520,73.17868606049342
1521,72.95262207368614
1522,31.998924322451785
1523,-12.922474625745963
1524,-20.335642128917243
1525,16.322354530473604
1526,49.12044814657747
1527,26.690571591194384
1528,-52.809342185146306
1529,-128.40436015215164
1530,-137.61954919868185
1531,-80.47197613170101
1532,-21.01670767520045
1533,-22.48481046912275
1534,-85.30235106827968
1535,-158.29639594129367
1536,-192.40601146948393
1537,-182.16626394580453
1538,-150.5422195737301
1539,-118.85294446617081
1540,-89.83850464437273
1541,-56.740966036799364
1542,-15.388394478039118
1543,21.428144292320212
1544,34.228584630809564
1545,10.9618609911995
1546,-25.040092074375934
1547,-39.930339914275464
1548,-14.89094777621358
1549,15.82001919385948
1550,6.273495952944359
1551,-61.884582437878635
1552,-134.93928081230297
1553,-147.8476638975917
1554,-78.93479631345326
1555,9.102257429174642
1556,44.742432929264396
1557,5.3246658969255805
1558,-60.82210784543895
1559,-101.13695236190506
1560,-100.75993160184953
1561,-85.7651093987206
1562,-82.7785494688269
1563,-94.10931541013088
1564,-102.45847070098353
1565,-92.07807869892895
1566,-69.09720263944473
1567,-52.56090563468388
1568,-58.88125067224246
1569,-84.85930061386716
1570,-118.98911819422756
1571,-150.43976601959366
1572,-171.84730656658758
1573,-176.8678021808846
1574,-161.3553150759053
1575,-128.32490733151644
1576,-82.2916408927249
1577,-32.436577568349094
1578,1.5532209703087574
1579,-1.1553068092161993
1580,-42.65222229917708
1581,-95.54258675029996
1582,-130.43746127039958
1583,-134.75290682301966
1584,-114.43198422605565
1585,-76.86275415037017
1586,-36.58727711840038
1587,-13.661613502757973
1588,-24.69082352481564
1589,-53.81796725328968
1590,-68.00510460281112
1591,-42.3972953324901
1592,0.3174009555405064
1593,20.63792481755445
1594,-6.305783030275052
1595,-51.71178171041174
1596,-74.54713018247276
1597,-53.93988724173687
1598,-16.818111517648504
1599,3.2821385277202353
1600,-5.635195398836004
1601,-21.949171420103085
1602,-21.946847486920888
1603,-3.1312813766126055
1604,14.94346930856409
1605,13.320347143011531
1606,-6.031705120656625
1607,-26.777744549981435
1608,-33.82682803108219
1609,-23.358012267024606
1610,3.432646223813208
1611,44.25909110935936
1612,92.11926624551961
1613,138.69611567782704
1614,174.10358364312742
1615,184.2576145712501
1616,154.67015308671398
1617,96.19314401043448
1618,62.336532361450736
1619,108.11626335864094
1620,218.9812824224864
1621,305.95253517681704
1622,284.6689674505833
1623,174.6635252796441
1624,65.76415490855106
1625,36.017802792363
1626,73.7464155984726
1627,129.96694020841824
1628,166.424323719757
1629,187.5655134478966
1630,208.25445692799804
1631,234.82210191683407
1632,254.04139639471032
1633,250.28328856736334
1634,223.43872686789837
1635,194.8296599587229
1636,186.23903673350287
1637,199.79280631914298
1638,221.05891807775515
1639,236.3383216086604
1640,242.62796675040954
1641,242.3188035828025
1642,238.3747824289294
1643,236.18485385723034
1644,241.8449686835702
1645,261.7120779733159
1646,302.78613304344617
1647,371.8380854646766
1648,457.2528870635615
1649,520.1904899246838
1650,522.1608463927914
1651,472.0319090749799
1652,419.8676308428985
1653,411.30596483496083
1654,442.46086445856054
1655,484.59728339233334
1656,513.1651755884031
1657,523.0294952746717
1658,514.3821969571036
1659,489.4782354220497
1660,455.4135657385541
1661,419.86014326072836
1662,385.1079236300884
1663,346.33086277794973
1664,299.20891692782607
1665,253.63404259783056
1666,230.12119660312055
1667,244.61433605834281
1668,280.55241838011716
1669,308.0264012895004
1670,305.81224281450886
1671,282.4459012926309
1672,252.74033537338073
1673,225.64450402084913
1674,199.60736651629668
1675,172.34588246073326
1676,149.5710117775543
1677,144.8147147151667
1678,169.12495184965155
1679,207.94968408743807
1680,233.1638726680012
1681,223.05347916656865
1682,184.40346549686546
1683,131.70479391386834
1684,76.97442701658656
1685,26.81132775083097
1686,-13.037540587927651
1687,-41.18921435175798
1688,-61.245729537393345
1689,-76.52512178334837
1690,-84.3024263670377
1691,-78.20467820183876
1692,-55.068911834161554
1693,-27.521161440470678
1694,-12.962460824317532
1695,-23.189843413318158
1696,-56.92034225614225
1697,-110.6329900194396
1698,-168.87881898478736
1699,-202.0758610455905
1700,-183.2701477039609
1701,-123.10071006757244
1702,-55.117578846511606
1703,-9.319784350087502
1704,2.907643516393364
1705,-24.27832474517345
1706,-82.09871822241257
1707,-129.46556558918928
1708,-122.54489510232088
1709,-62.88173459824975
1710,-1.8251114896756917
1711,12.303947237791363
1712,-15.759584970950527
1713,-52.30273423708604
1714,-73.68252624443448
1715,-98.37398623596891
1716,-155.26113901033023
1717,-242.07500891831296
1718,-298.51161985929684
1719,-262.0449952777035
1720,-151.85315815937793
1721,-61.21413102798215
1722,-70.46993594134437
1723,-148.0335944877752
1724,-213.89112778238632
1725,-212.88955646335125
1726,-166.68790068816452
1727,-111.32618012985222
1728,-70.12141397318373
1729,-48.51862091082148
1730,-49.40881913947851
1731,-60.65102635603216
1732,-60.06525975360273
1733,-31.62153601762111
1734,10.32112867813521
1735,42.3387186755499
1736,50.72821883616598
1737,41.789614545266886
1738,24.176891715924285
1739,4.022036793125153
1740,-14.9469632420969
1741,-28.439120868513783
1742,-27.59944802047903
1743,-1.5999560837444733
1744,49.49634410881845
1745,94.30644228148594
1746,96.60032871999829
1747,50.07499427588118
1748,-13.757569629167847
1749,-63.03037099889116
1750,-87.07541725804185
1751,-87.29271524791511
1752,-68.35127122189078
1753,-46.787090840869496
1754,-41.75617916876581
1755,-58.29454066789913
1756,-79.04117919439886
1757,-85.8910979935572
1758,-77.51029969515002
1759,-64.34778630873734
1760,-55.51455921892739
1761,-52.691619180603084
1762,-55.36596631413158
1763,-59.99360010051714
1764,-57.36351937655127
1765,-38.79072232989529
1766,-14.384206494183672
1767,-9.44896874402184
1768,-41.30900529002247
1769,-81.88131167374559
1770,-88.0148827626781
1771,-44.11771274509556
1772,8.060204875038835
1773,21.8628772832526
1774,-6.804687640247721
1775,-44.827481315342084
1776,-63.252494456732165
1777,-64.58971706864213
1778,-62.509138439472736
1779,-60.961747136456324
1780,-42.849531000229035
1781,9.850522860595447
1782,80.48842807491019
1783,121.61819901462331
1784,96.01585080018594
1785,31.377399306205916
1786,-21.701138832950164
1787,-38.36974621751688
1788,-48.05040467661274
1789,-84.55509526252536
1790,-138.04679824495543
1791,-161.66249310519743
1792,-119.54215853032292
1793,-40.568772407284996
1794,25.17668818297716
1795,45.38824697150085
1796,21.940928507285207
1797,-37.870241836692
1798,-104.0602378573949
1799,-129.36003251564034
1800,-84.1775979299473
