800,108.646308942627
801,87.95297193999431
802,78.8177825326693
803,90.3109028441977
804,115.32249494554344
805,135.27672085556515
806,131.37074254151048
807,92.45372191944807
808,37.351820854739344
809,-7.779798837573253
810,-17.25697539234534
811,15.005452906034407
812,68.63564772402242
813,121.40477067926076
814,153.28798334088788
815,162.33744722986557
816,155.4813238192528
817,139.70377453448782
818,121.13596075362875
819,103.73504380759914
820,91.1111849803965
821,86.57854550928823
822,87.81128658500347
823,87.41256935188358
824,77.80255490803575
825,54.46740430544742
826,27.87927855012458
827,13.091338602143878
828,24.9487453757647
829,65.13965973946506
830,114.64224251599444
831,152.61665448238818
832,160.41905636998672
833,140.07760886440883
834,105.01747260554839
835,68.76580818750881
836,41.473776158556575
837,23.990537021038108
838,15.584251231301096
839,15.404079199561238
840,20.348181289802596
841,25.225717819619604
842,24.769849060068736
843,15.43373523549053
844,1.9385365233247285
845,-8.514586946097552
846,-8.776475089771338
847,5.170032127738523
848,32.69409469406128
849,72.79687254873716
850,123.2815255829446
851,172.07121363920305
852,202.16109651105762
853,196.55333394274385
854,149.34508562886185
855,80.88151121400733
856,15.305770292397938
857,-24.334977592498035
858,-31.436572948390676
859,-12.099856334556534
860,27.2463316377125
861,79.09915030466618
862,131.9147589496515
863,173.21031680262422
864,190.84798303965545
865,183.28291678245478
866,161.13727709782688
867,135.71022299716424
868,117.10191343588849
869,108.40950731290104
870,110.20116347001021
871,122.99404069135562
872,144.3872977027895
873,167.0980931712911
874,183.38158570433006
875,186.7509338492182
876,182.22629609249088
877,180.86783085920615
878,193.79569651229576
879,224.19005135186126
880,256.3510536144822
881,271.8388614724954
882,253.75363303326412
883,207.02552633845517
884,152.65469936325826
885,112.06131001565518
886,100.24551613561198
887,110.83747549431973
888,132.92734579336138
889,155.97528466392578
890,177.15144966597109
891,201.29599828739083
892,233.60908794315947
893,276.61087597448204
894,320.6915196479149
895,352.71117615448384
896,359.80000260879024
897,340.5981560481123
898,308.625793431469
899,278.4030716387133
900,262.37014746957175
901,260.0071776427176
902,265.7943187947785
903,274.2717274793995
904,281.6595601662284
905,287.10797323994484
906,290.0371229992397
907,290.04716565580566
908,288.51825733332043
909,287.6805540663918
910,289.73421179952857
911,295.51938638608044
912,302.9462335871576
913,309.58490907057967
914,313.25556840976606
915,314.5183670826409
916,315.56346047055376
917,318.6310038571246
918,322.8311524271503
919,319.3540612654451
920,298.20988535571087
921,250.92877957938435
922,190.31089871445874
923,144.55639743432766
924,142.16543030658795
925,196.85815179186466
926,277.57471624259233
927,344.8552779018264
928,361.3599909020031
929,326.6990092637352
930,271.49248689456
931,227.31057758769748
932,216.30343502080177
933,227.34121275471443
934,241.91406423215267
935,242.20214277647392
936,224.68560159037224
937,199.46459375459017
938,177.13927222660095
939,166.06978983931185
940,165.39629929974944
941,171.9289531877239
942,182.49790395449054
943,193.57330392142103
944,201.24530527864954
945,201.63406008371567
946,192.24972026018986
947,177.10243759632067
948,161.99236374363682
949,152.49965021557364
950,147.9844483860743
951,140.69690948819334
952,122.53718461268
953,88.70542470657347
954,50.431780571769195
955,23.756402863607946
956,24.29944208942652
957,53.74104860711668
958,97.02137262368524
959,138.06056419379638
960,162.89877321830318
961,168.39614944278037
962,154.78284245607028
963,122.50900168877706
964,78.48477641179488
965,37.670315734807446
966,15.54576860479574
967,23.251283804536797
968,49.377009951080254
969,75.24309549425016
970,82.47968871510966
971,66.37693772444072
972,39.35499046120458
973,14.933994691016778
974,3.5540980045861943
975,-0.5845521838127752
976,-8.53180863792295
977,-31.047524301031444
978,-68.00155229755546
979,-105.67374593460772
980,-129.4739587035674
981,-128.3420442816623
982,-109.19785653354847
983,-84.65124951290272
984,-67.13207746401895
985,-61.08019482340751
986,-61.32545622138241
987,-62.087716483682016
988,-58.83683063308672
989,-53.14265389102184
990,-48.40504167917243
991,-47.9838496211396
992,-53.048933544021565
993,-62.32014948008691
994,-74.36735366839275
995,-86.87040255642933
996,-93.49915280175082
997,-86.80346127364646
998,-59.70318505477917
999,-16.148181442837085
1000,28.031692047794422
1001,56.35657768438796
1002,56.91661751419451
1003,36.84195336278208
1004,8.25272683235562
1005,-16.710920699908456
1006,-29.888848083543053
1007,-33.050914396484586
1008,-29.516978946739982
1009,-22.706901274084885
1010,-17.2605411517452
1011,-18.547758588103534
1012,-31.848413828383855
1013,-56.78236735635983
1014,-81.63947989604276
1015,-93.39961241339006
1016,-81.602626118025
1017,-54.868382464919705
1018,-30.55674315613578
1019,-25.83757014250841
1020,-44.130725625380364
1021,-68.40607205831293
1022,-79.9234721488101
1023,-64.23278886002663
1024,-29.87388541250948
1025,6.953374714088568
1026,30.40912777928861
1027,35.413509780031745
1028,28.746656448971407
1029,17.75870325274809
1030,8.629785390230609
1031,3.0100377907929214
1032,1.4995951125874853
1033,4.648591740791744
1034,11.697161785885328
1035,20.85543908190084
1036,30.343557184678502
1037,39.59164937013702
1038,51.11984863251746
1039,67.89828768265397
1040,91.87709894622094
1041,115.45641456197336
1042,126.0163663800322
1043,111.01708596010758
1044,69.53870456977347
1045,19.461353182705352
1046,-19.604837523069364
1047,-31.55973716689732
1048,-19.653215667281984
1049,6.2748567563885445
1050,36.51460958208554
1051,64.59617198339947
1052,87.43967282777157
1053,102.12524067475897
1054,106.80300377428102
1055,103.20309006486241
1056,93.7756271718954
1057,81.04074240588852
1058,68.42856276070597
1059,59.959214911827075
1060,59.63282521460678
1061,68.07951970250906
1062,79.45942408537303
1063,87.19266374767176
1064,86.66936374674333
1065,85.30964881106593
1066,95.16364333851197
1067,127.64147139459419
1068,177.28325671073253
1069,219.7691226825118
1070,229.79919236793103
1071,193.66358848567688
1072,135.7524334133832
1073,88.32584918587781
1074,80.25395749347626
1075,102.13687968022168
1076,120.4447367421617
1077,101.56764932562146
1078,37.565737725462895
1079,-34.56087811663565
1080,-73.25207861391209
1081,-47.11774453622456
1082,20.922242988182916
1083,89.89800247100538
1084,120.35965206212313
1085,104.47730954790131
1086,63.991092349479004
1087,21.81111752103243
1088,-5.552498251909128
1089,-17.99963865418431
1090,-18.08018774271477
1091,-8.364029948195821
1092,8.358949923196633
1093,29.178866688100243
1094,51.14583478428176
1095,69.16996826892682
1096,75.40138081696568
1097,61.84018571936576
1098,24.56649588145774
1099,-25.849576178752613
1100,-75.68791833226715
1101,-111.79841884077177
1102,-128.17096635830785
1103,-123.20544993294789
1104,-95.47175900847287
1105,-51.48978342601913
1106,-10.509413425761522
1107,7.069460351442103
1108,-12.58305313760502
1109,-54.07684534011423
1110,-93.92180810892751
1111,-110.15783370418649
1112,-103.34481479496753
1113,-90.70264446092006
1114,-89.79121619390571
1115,-109.17042389962626
1116,-140.66016189924994
1117,-174.21032493103303
1118,-200.43080815195935
1119,-213.1715071393246
1120,-207.3123178923761
1121,-178.53313683390297
1122,-135.9438608118562
1123,-99.5343871009336
1124,-89.54461340417947
1125,-113.03443785458512
1126,-150.94375901666353
1127,-181.0724758880424
1128,-186.23048790102985
1129,-175.80769492420404
1130,-167.92399726397161
1131,-179.68929566613588
1132,-211.05349131745425
1133,-247.88648584720067
1134,-275.6981813287075
1135,-285.0984802809162
1136,-276.75728566992075
1137,-252.4745009104936
1138,-215.51002986762978
1139,-176.3337768580659
1140,-147.71564665180085
1141,-141.72554447361472
1142,-160.34337600457548
1143,-197.8290473835532
1144,-248.26246520870882
1145,-303.54353653899307
1146,-351.82216889564006
1147,-380.85827026365223
1148,-381.9117490932713
1149,-361.45251430145254
1150,-330.0804752733402
1151,-297.8455418637259
1152,-268.5076243984968
1153,-241.72663367609675
1154,-217.10248096896612
1155,-195.91507802497654
1156,-181.8743370688735
1157,-178.87017080369333
1158,-187.22249241219106
1159,-195.00121555825353
1160,-187.68625438830168
1161,-153.4075235327
1162,-103.51493810715874
1163,-61.148413714108756
1164,-48.827866444085885
1165,-68.20321287713159
1166,-97.53437008413493
1167,-113.89125562821573
1168,-106.97378756607031
1169,-97.69188444933934
1170,-111.66546532592656
1171,-166.6644497413654
1172,-234.26875774013024
1173,-269.35830986697147
1174,-230.32302716823142
1175,-131.98283119314692
1176,-33.89764399516207
1177,3.6426118667659466
1178,-39.65198667309414
1179,-117.28136318856559
1180,-176.39544176280833
1181,-180.594146989617
1182,-154.42740397465423
1183,-136.53513833672696
1184,-159.97727620902515
1185,-209.50374424035363
1186,-244.9844695963693
1187,-227.6293799608302
1188,-158.72840353676293
1189,-82.00146904771282
1190,-43.09850573893891
1191,-62.49944337859415
1192,-105.91421225892373
1193,-131.8227431974392
1194,-109.00496753810148
1195,-55.06081715246182
1196,-2.100224440835518
1197,20.366877666549044
1198,11.660555708429456
1199,-11.04912430864897
1200,-30.582096911432018
1201,-39.37829716108172
1202,-41.69766065429212
1203,-42.500123524381706
1204,-43.905622442376625
1205,-41.114094618098534
1206,-28.24547780125431
1207,-2.5297102824752074
1208,22.963269105603104
1209,29.9835209873072
1210,2.561105442877306
1211,-48.98391799256933
1212,-97.30149033004272
1213,-115.36155312772098
1214,-97.48404849193685
1215,-64.29891907818273
1216,-38.026108092095456
1217,-30.695559290439633
1218,-30.09721698207977
1219,-20.52102602893865
1220,8.493068153054992
1221,42.12511959301082
1222,57.96518176414611
1223,36.613307582863854
1224,-10.740450592164052
1225,-55.03604096091112
1226,-67.90341228288162
1227,-45.62251387801916
1228,-10.973295627567495
1229,12.064292025053874
1230,10.650298073378508
1231,-5.875229052944633
1232,-25.592241488999207
1233,-38.05069193543568
1234,-38.3205336592946
1235,-22.81172049480847
1236,10.595793155776846
1237,52.82205232141496
1238,89.73710146148915
1239,107.91098446501383
1240,105.84374464988286
1241,91.78542476211805
1242,74.26606697511306
1243,60.715712888912094
1244,57.02440352947451
1245,68.93217934795757
1246,96.39908022002965
1247,124.50514544514772
1248,135.970413745903
1249,118.90492326732056
1250,87.13871157620451
1251,62.121815660497305
1252,62.74427192861367
1253,84.26611620882795
1254,109.32738374862856
1255,121.15810921412594
1256,116.84832668944182
1257,106.10806967611643
1258,99.02737109253394
1259,99.92626327334256
1260,104.27477796890525
1261,106.73294634474587
1262,104.55079898100303
1263,101.6783658719196
1264,103.1556764253055
1265,112.88275946205249
1266,129.45964321562678
1267,149.9263553315741
1268,171.29292286708187
1269,190.20937229047377
1270,203.17572948079214
1271,206.96201972733434
1272,203.05826772924047
1273,196.8344975950622
1274,193.7007328423715
1275,196.2369963973415
1276,203.26331059438962
1277,213.3296971757809
1278,222.70617729127844
1279,222.87277149778856
1280,204.63949975903233
1281,163.99638144519668
1282,115.3134353326368
1283,77.04067960356406
1284,64.71813184574967
1285,76.26580905225273
1286,103.06372762114006
1287,136.1319033552354
1288,162.65035146186347
1289,167.5490865526299
1290,137.02812264317618
1291,83.53747315299734
1292,43.6071509052108
1293,54.03716812638413
1294,120.30753644637298
1295,203.81826689812806
1296,262.7293699175643
1297,275.93085534340935
1298,267.11273241709205
1299,265.8450097826026
1300,289.40769548639946
1301,313.3507969773309
1302,304.4143211065384
1303,239.18827412739302
1304,147.4726616954431
1305,76.8274888683718
1306,69.20276010596535
1307,117.97847927009207
1308,191.71464962470236
1309,259.8412738358329
1310,307.18835397162184
1311,330.27589150234235
1312,326.1838873004599
1313,300.05234164066496
1314,265.8512541999553
1315,237.87062405772485
1316,222.0304496958397
1317,210.92072899876075
1318,196.00145925366633
1319,175.6826371505631
1320,164.45425878245078
1321,179.056319645475
1322,227.38881463910366
1323,287.3417380662886
1324,330.4650836337005
1325,334.4888444518965
1326,308.23301303558037
1327,270.19758130380615
1328,238.14254058024926
1329,224.14788159346244
1330,237.79359447714523
1331,286.51966877043196
1332,354.1760934182057
1333,409.7428567713923
1334,423.43994658729935
1335,392.38735002996873
1336,336.90505367050173
1337,277.97304348745274
1338,232.8313048671971
1339,214.29982260431825
1340,234.73858090204158
1341,289.5875633726282
1342,347.58675303781274
1343,375.2161323292694
1344,358.7056830890524
1345,326.58538657008467
1346,312.83522343663753
1347,337.46517376483644
1348,379.93521704317754
1349,412.345332173054
1350,415.155497469299
1351,401.7856906607467
1352,393.80588889079445
1353,407.8260687179991
1354,433.6162061166651
1355,452.0262764774561
1356,446.7162546080217
1357,421.9061147336506
1358,390.92583049789573
1359,366.2753749632702
1360,352.04472061191336
1361,347.5038393462819
1362,351.42270248987734
1363,356.2212807879496
1364,349.7495444082524
1365,320.837462941774
1366,280.7550054035255
1367,261.37214023330307
1368,293.99883529649196
1369,369.07505788486924
1370,430.1607747174294
1371,419.2559519412207
1372,330.98055513219697
1373,234.7945492960771
1374,205.33789886923478
1375,268.31056771958174
1376,363.39251914749
1377,421.7037158866897
1378,407.9341201052448
1379,359.24369340646444
1380,322.21239682989835
1381,326.5701908523042
1382,357.27703538864444
1383,391.9428897930975
1384,413.03771286008487
1385,418.7514628253066
1386,410.474097366794
1387,390.1455736059834
1388,361.9458481087968
1389,330.5948768867329
1390,301.962615397988
1391,287.2490185485858
1392,299.2640406935152
1393,345.0576356378806
1394,398.7897566380798
1395,422.9403564029981
1396,388.2293870951962
1397,321.276800332138
1398,272.0025471874087
1399,282.72657819197957
1400,333.6088433354489
1401,374.76929206733985
1402,362.2278732983723
1403,310.22453540177594
1404,265.26922621461745
1405,269.65189303913394
1406,314.1924826440736
1407,357.3709412660828
1408,360.48721461107016
1409,329.84124785562017
1410,303.4629856483825
1411,317.45237211151834
1412,367.11935084214383
1413,415.6838649137753
1414,427.2858568778083
1415,399.19526876501186
1416,357.38204208702336
1417,327.80611783787936
1418,314.7674364955328
1419,302.1159380234203
1420,273.6415618720148
1421,232.43424698041417
1422,201.44393177794336
1423,203.89055418574935
1424,244.48405161843584
1425,307.38436098571583
1426,375.7514186940516
1427,434.3451606483486
1428,469.82552225362633
1429,469.55243841673655
1430,441.21584354808147
1431,418.0156715633384
1432,434.00185588523345
1433,490.904329445284
1434,547.9130246856093
1435,562.107873560697
1436,527.8288075392502
1437,490.5557576059964
1438,498.748654263547
1439,562.6374275342405
1440,638.292006962045
1441,678.162321614429
1442,662.7683000842935
1443,613.519870491873
1444,554.9469604866954
1445,506.2694972495283
1446,478.75740749435863
1447,482.88061747037864
1448,518.4990529639836
1449,569.6126393008126
1450,618.9713013477613
1451,652.544963515049
1452,661.1235497582857
1453,636.1069835805465
1454,581.3151880344958
1455,519.0280857244779
1456,472.78559880866305
1457,451.8376490011942
1458,444.66415757435607
1459,438.26504536074754
1460,428.8202327554882
1461,425.58963971842786
1462,438.5131857763681
1463,462.12079002532664
1464,469.66237113278294
1465,433.5778473399623
1466,358.02713646413576
1467,289.200155900915
1468,275.1068226266052
1469,319.2770532005143
1470,369.0507637673454
1471,369.4578700595521
1472,310.4182873997361
1473,235.64193070306283
1474,190.89871447967016
1475,189.69855283712968
1476,209.26135948288538
1477,225.36704772674057
1478,226.20553048334114
1479,213.04672027469132
1480,187.76052923266616
1481,152.97686910155062
1482,112.05565124061468
1483,68.76678662665108
1484,34.71018585661113
1485,28.365759150166923
1486,66.31341635235185
1487,130.80306693620332
1488,176.374620005412
1489,160.66798429699338
1490,95.36306818397861
1491,31.3397796781137
1492,16.158026432594852
1493,46.967715744782254
1494,88.26875455897971
1495,106.98104946919557
1496,99.95450672191691
1497,81.21903221894536
1498,64.50453152018235
1499,59.440909846507566
1500,73.52807208258491
1501,111.27592277977783
1502,155.6343661590072
1503,180.1533061136779
1504,164.0326462125813
1505,120.94228970284166
1506,77.42213951287886
1507,54.6720982553652
1508,46.86206823022076
1509,39.611951427621534
1510,22.661649531008152
1511,3.0710639201515733
1512,-7.539904325825773
1513,-0.7213544253536384
1514,20.816614108673093
1515,51.963901471981444
1516,86.04040757206894
1517,111.88603203132516
1518,117.59067419020175
1519,99.29423311036226
1520,71.93660757790349
1521,53.137696106539806
1522,51.537396940837425
1523,58.62560805944668
1524,63.98222717837234
1525,59.11715175423706
1526,38.61027898758039
1527,-2.3284941738402267
1528,-54.279271031715325
1529,-89.78215513384748
1530,-81.66725027078792
1531,-37.984660472464384
1532,-2.8944900047845294
1533,-19.13684336622464
1534,-78.04182528440651
1535,-128.71954071264372
1536,-124.09009482650072
1537,-77.62359302028563
1538,-42.26014090358149
1539,-63.89984429772085
1540,-121.40280923225146
1541,-159.38914194140307
1542,-133.44894886052316
1543,-71.11233662247287
1544,-28.179412054061686
1545,-45.380282172420266
1546,-91.19505418135486
1547,-112.63383546772639
1548,-76.24673359775443
1549,-17.693856313358992
1550,12.194688471559857
1551,-14.09120732518204
1552,-63.00165195030604
1553,-91.30675381131368
1554,-76.26662147272873
1555,-35.10136365232029
1556,10.458910782726889
1557,44.16409281961569
1558,57.664073303758414
1559,43.79874294266665
1560,10.007992309789188
1561,-20.378288151583547
1562,-24.930208124411365
1563,-8.417877413992755
1564,2.39859405597781
1565,-17.130903752617087
1566,-63.67648098837708
1567,-117.35824790635888
1568,-160.29631486408834
1569,-190.24079231752512
1570,-211.58179081702838
1571,-226.66942100328743
1572,-228.23379360324907
1573,-206.15501942603078
1574,-158.64320935880278
1575,-111.15847436264448
1576,-94.6709254684265
1577,-123.00067377263258
1578,-171.34783043318203
1579,-209.84250666522894
1580,-222.92481373694864
1581,-217.53486296531264
1582,-202.55276571183276
1583,-185.15863337829614
1584,-170.6425774024883
1585,-163.73470925387664
1586,-161.80514042931645
1587,-156.52398244869073
1588,-140.771346850579
1589,-119.28734518787678
1590,-103.09208902341015
1591,-100.56568992553184
1592,-104.73825946370744
1593,-103.15990920406512
1594,-87.98075070495179
1595,-68.09089551245415
1596,-56.19045515591097
1597,-58.89954114340071
1598,-68.38826495723151
1599,-74.85673804938051
1600,-74.02507183694797
1601,-70.35337769758371
1602,-68.84176696488612
1603,-69.89035092379345
1604,-69.0592408059565
1605,-62.2985477850998
1606,-53.27838297235212
1607,-50.96885741157348
1608,-61.150082074653255
1609,-65.4921678567971
1610,-34.95522557180993
1611,45.00063405267065
1612,124.62530037993565
1613,136.41866286897493
1614,51.400611079288865
1615,-55.28896532430372
1616,-91.82017656682729
1617,-27.143132758292268
1618,67.36205611115838
1619,112.69528017614357
1620,91.1664297009429
1621,50.65539508442998
1622,38.642066864980734
1623,56.6663357254547
1624,75.22809249815509
1625,69.67722816981222
1626,52.40363388659716
1627,51.23720095914359
1628,83.46782086758503
1629,124.87538526660137
1630,141.1297859905153
1631,117.00091505836645
1632,81.04866467902139
1633,67.46292725631065
1634,87.28359539414669
1635,119.5205619017197
1636,141.66371979863106
1637,145.28296232013054
1638,133.79818292229356
1639,112.39927528726548
1640,98.32613332850087
1641,114.86865119602953
1642,175.55672328173569
1643,248.6502442246492
1644,289.30910891626445
1645,275.3232125058639
1646,242.63245040587753
1647,235.81671829723564
1648,265.1959121347554
1649,290.32992815253783
1650,269.02866286938297
1651,203.38201309422948
1652,134.00987593159152
1653,99.06214878704122
1654,104.8687293726689
1655,141.75951571262158
1656,197.69440614857012
1657,250.77329934529735
1658,276.37609429620534
1659,262.66269032890705
1660,227.86298711081145
1661,194.39688465472136
1662,176.1742833244498
1663,175.92508384045686
1664,194.7091872855126
1665,220.56649511035903
1666,231.78690913939317
1667,210.29033157638696
1668,163.82666501018684
1669,110.7658124204736
1670,70.92767718349751
1671,68.98216307786242
1672,130.1991742903101
1673,241.63861542152335
1674,321.8803914919572
1675,286.5944079476594
1676,147.63057066614965
1677,10.928785962280017
1678,-26.571039405882402
1679,13.261001768858478
1680,45.62481714875685
1681,8.230314857057238
1682,-60.5825965160584
1683,-95.3640079074703
1684,-65.78400977516321
1685,-17.882692092194702
1686,-6.210144340680927
1687,-39.5764555057649
1688,-74.60171406954214
1689,-69.80600800499815
1690,-34.99942476992146
1691,-10.972051300781459
1692,-29.473974006625212
1693,-76.13527876292574
1694,-122.70605090541721
1695,-152.22637522393597
1696,-174.1263359562272
1697,-201.06601678173683
1698,-228.09550081537782
1699,-229.4148706013093
1700,-182.31420810666896
1701,-110.47359471530035
1702,-65.88311122146297
1703,-86.01283782352766
1704,-137.3428541176636
1705,-165.49323909147643
1706,-142.14407111768014
1707,-96.85542794769754
1708,-66.12738670529689
1709,-64.23002388017449
1710,-81.00341532152379
1711,-105.46763623161678
1712,-130.7827611593475
1713,-152.40886399374358
1714,-166.40601795749717
1715,-171.27429560045493
1716,-166.14376879309566
1717,-152.0045087200033
1718,-133.30658587330254
1719,-114.79007004610321
1720,-99.91503032590481
1721,-90.93153508799878
1722,-90.06965198885337
1723,-99.79944795947449
1724,-122.67098919877026
1725,-156.0643411668516
1726,-181.68956857839657
1727,-178.63673539591582
1728,-146.97590482304622
1729,-116.12713929783604
1730,-114.71050048596408
1731,-134.17604927401953
1732,-141.18384576268545
1733,-111.63394925996727
1734,-67.9764182743711
1735,-46.441310508065726
1736,-64.53868285007229
1737,-101.04859136937193
1738,-130.5810913080404
1739,-140.336237074358
1740,-129.47408223591083
1741,-99.10467951264582
1742,-60.93808076995265
1743,-31.27433701170048
1744,-22.223498373259645
1745,-33.87561411452043
1746,-64.01073261289639
1747,-104.66890135629728
1748,-140.65016693609505
1749,-157.65457504006918
1750,-154.7621704453577
1751,-138.74299701135533
1752,-117.16709767262182
1753,-100.39451443177677
1754,-99.3252883523528
1755,-116.44945955166804
1756,-140.90706719366062
1757,-160.58814948170766
1758,-162.86274365142708
1759,-134.72088596348476
1760,-70.5326116963679
1761,0.7220448608568404
1762,40.033050415813705
1763,27.300372680054352
1764,-22.076019623624234
1765,-88.7861567539112
1766,-153.480067943623
1767,-196.76778139241105
1768,-201.2693242593905
1769,-160.83472265579076
1770,-73.15400163756385
1771,43.28281480199439
1772,126.80570373966657
1773,114.22464332973504
1774,15.03961281141892
1775,-97.71940748368434
1776,-160.08243612408478
1777,-173.45949057096914
1778,-162.45058717066604
1779,-141.30574114713272
1780,-101.74496659443867
1781,-33.7982764691933
1782,48.31431741698543
1783,108.992804405063
1784,117.50717499618986
1785,75.82742085929203
1786,-2.4164651613027672
1787,-91.37448903821496
1788,-139.6466555533807
1789,-97.09296829037157
1790,5.946570373282157
1791,70.92195927379362
1792,22.683198468830597
1793,-78.1197107547705
1794,-126.50676587323687
1795,-77.57796311812308
1796,-1.7232974685339286
1797,22.567237356655824
1798,-8.886351093377016
1799,-43.67405399361087
1800,-41.615861235337434
