800,152.6781640331301
801,185.14846144656258
802,214.0519489522212
803,228.07187629793953
804,224.31849281124414
805,205.86904739644524
806,175.9227885317723
807,139.17796426650057
808,106.19882221812804
809,88.98160956957327
810,99.25557306635164
811,137.56895901382813
812,189.38701327444505
813,239.1109812650011
814,272.6231079539193
815,287.86863785857713
816,288.7268150426007
817,279.11388311324663
818,262.0850852187232
819,238.50066404560857
820,208.87186181624384
821,174.00292028614786
822,140.20708074146205
823,118.75758399641563
824,121.09667039080705
825,154.05257978749978
826,201.79955156992946
827,241.59582463966763
828,250.9816374139591
829,224.62622782329163
830,184.20483330900606
831,153.75269082090563
832,154.62303681487174
833,182.8541072505359
834,220.53513758892586
835,249.62536279017695
836,258.0700173112127
837,250.24633510348212
838,233.34054961069705
839,214.3408937665954
840,196.38059999272082
841,179.04290019620385
842,161.77502576759252
843,144.4062075786842
844,128.60067598035857
845,116.57066080046206
846,110.53839134168265
847,112.8870963794634
848,126.24400415991113
849,153.2603423977398
850,195.28133827423335
851,242.7612184351965
852,280.7292089889743
853,294.2205355044425
854,277.07642300902444
855,244.03909598675637
856,212.86077837632365
857,200.2656935691466
858,207.54206440748567
859,224.0391131825254
860,238.80106163252276
861,244.27013094093127
862,245.64654173458803
863,251.1235140818626
864,268.64126749087154
865,298.22002090767273
866,330.76999271450586
867,356.7214007280181
868,368.124462197542
869,366.53939380336124
870,357.0064116550002
871,344.5257312895392
872,333.8275676699286
873,329.1221351833392
874,334.58964763951917
875,353.42031826914535
876,380.07435972224084
877,404.3719840665526
878,416.12340278599186
879,410.24882677905225
880,393.84846635727445
881,375.82253124369527
882,364.58123057135344
883,361.87477288175796
884,364.563366123426
885,369.3472176503983
886,374.1065342207803
887,380.5315219953118
888,391.1223865359243
889,408.20933280434474
890,430.07256516069356
891,451.01228736209487
892,465.1387025613276
893,468.44201330546275
894,465.4724215345177
895,463.2901285801545
896,468.7853351643553
897,481.7882413981424
898,493.0390467802936
899,492.65795019607685
900,473.51514991599834
901,445.73084359458517
902,426.0152282691415
903,430.9485003585578
904,463.98085566211375
905,506.86248935829644
906,539.3435960036586
907,543.7343695316267
908,523.7850032514089
909,493.73568984684607
910,467.8566213753202
911,455.1879892666493
912,453.95998432201304
913,461.02279671288125
914,473.34661597997365
915,488.73163103220395
916,505.5080301456619
917,521.9860009626118
918,534.5757304904764
919,534.8674051008584
920,513.6512105285765
921,463.2073318706971
922,395.4559535855915
923,336.5672594920143
924,313.03143276815536
925,339.7286559507811
926,396.5791109342881
927,456.87297896987
928,495.0404406646212
929,504.6116759806955
930,495.2068642344602
931,476.89618409567265
932,458.01981358666126
933,440.5979300815179
934,425.28071030531646
935,412.65833033333183
936,402.31096559027355
937,392.8287908495331
938,382.75198023243865
939,371.39070720754717
940,360.9951445898969
941,354.595464540329
942,355.0518385647865
943,361.0944375136369
944,367.1534315810077
945,367.4289903041172
946,357.0812825626617
947,335.6104765781474
948,303.7067399132975
949,262.22023947144044
950,216.87114149590525
951,178.88961156944788
952,159.83581461366703
953,167.6999148884588
954,193.2720759914555
955,222.23246085749815
956,240.50123175810586
957,243.08855030095583
958,235.9245774293886
959,225.57947342191983
960,217.18339789174752
961,208.49650978629506
962,194.97896738674353
963,172.2009283075913
964,140.6625494962209
965,107.00398723247054
966,78.22539712821163
967,60.066934126976776
968,51.64875250351906
969,49.94100586348759
970,51.953847143007806
971,55.98742860836319
972,61.94190185561456
973,69.83741781028039
974,79.05412672700731
975,85.64217818925863
976,84.59172110898908
977,71.03290372637639
978,44.995873609508635
979,12.670777654140693
980,-19.3622379166045
981,-45.19302755245553
982,-62.40144637625417
983,-69.66735018419786
984,-65.80059544603682
985,-54.54103930531528
986,-45.558539579538774
987,-48.89295476041298
988,-71.25414401398666
989,-103.09196718083331
990,-129.86628477624436
991,-137.44695799032888
992,-123.123848688203
993,-97.4968194100984
994,-71.8957333715025
995,-55.270454463248825
996,-45.56084725164328
997,-37.576776978554335
998,-26.278109561484598
999,-11.144711593664397
1000,3.5035496558939485
1001,13.056806242339007
1002,14.485189544919194
1003,11.138830266972946
1004,8.07785843586862
1005,10.342403403006756
1006,19.13259384379853
1007,25.9285577576793
1008,20.740422468097677
1009,-5.031685377458416
1010,-45.297639807422456
1011,-85.28731552614045
1012,-110.1705879137935
1013,-112.0173330263824
1014,-96.48742759563174
1015,-70.81074902893306
1016,-42.287175409273914
1017,-18.586585495122563
1018,-7.538858720363351
1019,-16.83387519416101
1020,-45.37151570086826
1021,-78.99166169988348
1022,-102.4241953255405
1023,-103.44899938693925
1024,-86.20595736782343
1025,-60.27495342641123
1026,-35.10587239522829
1027,-16.34859978093482
1028,-5.483021764141085
1029,-3.739025199223761
1030,-10.906497614118052
1031,-21.195327210118194
1032,-27.585402861648618
1033,-23.53661411604662
1034,-10.188851193352093
1035,5.257995013978871
1036,15.44403294127369
1037,17.669370351937687
1038,20.624114337690116
1039,34.77837131885644
1040,68.59224704463304
1041,112.5858465933834
1042,147.71927437293198
1043,155.1026341208635
1044,131.37602890485505
1045,98.48956112294763
1046,80.71333250392854
1047,96.13744410762774
1048,128.93199632526557
1049,151.79708887982088
1050,138.53282082636179
1051,91.819290552432
1052,44.53659577840517
1053,31.0548335578751
1054,71.27410027803307
1055,138.24449166007435
1056,195.52610275958614
1057,209.94902796696624
1058,187.41336100782792
1059,159.2891949434361
1060,157.25662217111858
1061,192.52573442473113
1062,237.47662277506242
1063,260.09937763033304
1064,235.3640887366073
1065,181.45084517829127
1066,133.0297353785827
1067,123.74084709998169
1068,157.64426744473167
1069,205.82008285535085
1070,237.6283791151145
1071,232.81924134856308
1072,205.32275402201776
1073,176.11900094409793
1074,164.55806526625747
1075,171.51002948329915
1076,186.2249754339391
1077,197.81298430132665
1078,200.48413661361883
1079,197.33851224453065
1080,192.3961904139087
1081,189.11724968829003
1082,188.0017679814955
1083,188.549822555211
1084,190.32149001956532
1085,193.50684633376295
1086,198.89596680664545
1087,207.31892609733222
1088,217.015798215838
1089,219.69665652367985
1090,206.0015737345111
1091,168.9506219147679
1092,120.73387248429572
1093,82.68139621701448
1094,75.65326324156013
1095,99.87954304194864
1096,129.21030445823817
1097,135.81561568721372
1098,101.51554428304553
1099,42.43015715799265
1100,-17.750479416916278
1101,-57.26629981119004
1102,-75.88723903417122
1103,-86.82323273431575
1104,-103.374217198505
1105,-130.63012935130791
1106,-160.49090675425396
1107,-183.67648760512566
1108,-192.71681073718537
1109,-188.24181561847035
1110,-173.14144235102685
1111,-150.435631670156
1112,-125.33432494366025
1113,-104.61746417108043
1114,-95.11499198291858
1115,-99.88685163988157
1116,-115.10298703206354
1117,-136.12334267820734
1118,-158.06786372487477
1119,-174.66649594567025
1120,-179.22918574042524
1121,-165.69588013441535
1122,-138.66652677750608
1123,-111.34107394338025
1124,-97.1894705286777
1125,-103.29166605219689
1126,-124.15761065403603
1127,-152.75725509477343
1128,-182.53055075460543
1129,-209.16744963251585
1130,-229.11790434540853
1131,-239.05186812725515
1132,-239.41929482822343
1133,-233.78013891381124
1134,-225.75435546398876
1135,-217.6519001722845
1136,-209.1827293449296
1137,-199.73679989995617
1138,-189.35406936630716
1139,-181.09449588293865
1140,-178.9980381979076
1141,-186.91465566747502
1142,-205.95430825518633
1143,-235.13695653094874
1144,-273.3725616701104
1145,-315.74108545254785
1146,-350.5424902617033
1147,-365.4167390836774
1148,-352.08379550626887
1149,-320.21362371803116
1150,-284.31618850732775
1151,-258.0214552613688
1152,-244.62938996525736
1153,-240.73995920101697
1154,-242.84313014662985
1155,-247.50887057505315
1156,-251.567148853248
1157,-251.8179339412054
1158,-245.39119539093008
1159,-230.54690334547922
1160,-205.78502853794998
1161,-170.64554229047462
1162,-133.6584165132408
1163,-107.95362370344446
1164,-106.22113694430482
1165,-127.95092990403282
1166,-157.84297683482328
1167,-179.81725257180733
1168,-184.6437325320312
1169,-179.89239271342558
1170,-175.71320969375665
1171,-180.69616062960085
1172,-194.351223255273
1173,-212.85837588178038
1174,-232.3175973957841
1175,-247.31886725851655
1176,-251.22216550473422
1177,-237.46747274162954
1178,-206.95477014778407
1179,-172.99403947207065
1180,-150.13526303257822
1181,-148.21842371553976
1182,-159.863504974217
1183,-173.73049082782745
1184,-179.6493658604577
1185,-178.13011521993394
1186,-175.13272461674205
1187,-176.4571803229028
1188,-181.93346917086274
1189,-185.07157855239893
1190,-179.14149641745644
1191,-162.2732112730755
1192,-143.17671218221585
1193,-132.02198876266448
1194,-136.1790311858622
1195,-149.96783017580856
1196,-163.86837700787873
1197,-169.04066350769244
1198,-164.83468204997553
1199,-155.61042555738823
1200,-145.67788749937426
1201,-134.22706189099517
1202,-114.18794329177581
1203,-78.09052680451714
1204,-26.584808074145258
1205,19.9092167134786
1206,37.971550832737194
1207,10.902197019440791
1208,-42.988842527993256
1209,-94.09156614734457
1210,-115.13597271139406
1211,-106.15206162672257
1212,-84.79983283252477
1213,-68.79928679938712
1214,-65.84042452808899
1215,-71.25324754838766
1216,-79.64775791780448
1217,-85.6939582204086
1218,-84.27185156558153
1219,-70.31144158681127
1220,-41.262732440452965
1221,-6.835728804489918
1222,19.579564122692318
1223,25.923140623548534
1224,13.584994462615214
1225,-8.184881112234507
1226,-30.176493368555384
1227,-46.81985008807169
1228,-56.50495956540908
1229,-57.771830606854564
1230,-49.56047252907774
1231,-31.480895157877967
1232,-3.2331088269002066
1233,33.59287562362442
1234,70.22704684816745
1235,96.18939299716294
1236,103.07990171831807
1237,98.07856015787183
1238,95.41535496190227
1239,108.44027227761399
1240,135.20329775462596
1241,161.3044165462852
1242,172.1736133109498
1243,164.0108722133191
1244,148.3861769257146
1245,138.04951062941473
1246,141.5108560159515
1247,156.290195288444
1248,178.1875101629048
1249,203.33278186957796
1250,229.3859911542586
1251,254.49711827962346
1252,276.7961430265641
1253,294.5930446955317
1254,306.2978021078634
1255,310.5903936071336
1256,311.7607970605077
1257,319.2589898600727
1258,342.49494892419534
1259,379.0586506988984
1260,408.3300711591819
1261,408.15918581042206
1262,368.2059696897013
1263,309.25039736720464
1264,257.16244294757234
1265,232.9720800712821
1266,235.019281916022
1267,255.0740211980683
1268,284.8962701736709
1269,316.3460006404439
1270,341.31318393874426
1271,352.33779095306636
1272,352.4897921134452
1273,353.49915739684
1274,367.075856328549
1275,393.91985798359565
1276,420.20113098815636
1277,431.1096435209565
1278,417.98536331468677
1279,385.41825765741123
1280,339.68829339400145
1281,287.6354369275359
1282,237.9796542207514
1283,199.84091079744758
1284,180.9291717439246
1285,180.22440171042763
1286,193.49656491255882
1287,216.27562513273733
1288,241.61154572163832
1289,261.11428959962177
1290,267.0038192582051
1291,264.54009676149326
1292,270.9630837476434
1293,303.63274143031595
1294,363.86903060014265
1295,430.4819116261733
1296,480.6313444573625
1297,502.807288624017
1298,510.06970323927817
1299,518.7085470005986
1300,539.3437781912126
1301,563.3553546816165
1302,578.0832339310491
1303,573.7973729889964
1304,556.6677284966499
1305,538.1842566884261
1306,528.5069133934376
1307,526.2956540370051
1308,524.3304336421625
1309,515.9512068311433
1310,502.93792782689707
1311,493.5305504545977
1312,495.69902814315174
1313,507.1233139267242
1314,514.0833604462387
1315,502.4891199509111
1316,468.9505442997688
1317,427.05758496317867
1318,391.910193024376
1319,373.96831918099997
1320,372.9319137466191
1321,387.0109266522759
1322,412.26530744803676
1323,437.44500530452024
1324,449.7699690144527
1325,439.96014699420994
1326,416.34548728539085
1327,392.71593755634785
1328,381.19144510375736
1329,381.22195685418956
1330,386.5574193656503
1331,391.21777882917377
1332,392.3929810703794
1333,389.2929715510436
1334,381.28769537068365
1335,370.22709726813264
1336,360.07112162312114
1337,354.7997124578669
1338,355.3528134386561
1339,359.1803678774486
1340,363.5623187334495
1341,367.7086086147283
1342,373.94917977980185
1343,384.85397413925784
1344,400.03293325733284
1345,412.67599835355395
1346,415.17311030431847
1347,403.0542096445406
1348,380.93923656924926
1349,355.09813093520097
1350,331.0708322625396
1351,311.4272797363865
1352,297.97741220849093
1353,292.78116819886054
1354,298.93848589739173
1355,319.92930316551974
1356,356.80355753784534
1357,393.14118622380556
1358,404.7821261092886
1359,370.8763137583246
1360,304.1536854147016
1361,236.5741770036566
1362,198.52772413351522
1363,195.614262097366
1364,215.3037258747263
1365,244.84605013321197
1366,275.3011692302098
1367,301.259017214561
1368,317.5395278282267
1369,322.82263450799655
1370,320.1682703871393
1371,312.9063682971264
1372,304.3368607693119
1373,297.7496800366189
1374,296.42475803525485
1375,300.3220264064021
1376,303.66141649793826
1377,300.11285936611966
1378,287.386285777322
1379,271.9916262097322
1380,261.57881085509325
1381,261.76776962039366
1382,272.7484321296288
1383,293.81072772549305
1384,320.744585471135
1385,337.9199341518979
1386,327.40670227703595
1387,279.33481808147553
1388,215.72420952754328
1389,166.42480430673822
1390,155.31652984146422
1391,177.66931328678584
1392,220.2530815322025
1393,269.6277612033955
1394,311.4432786640027
1395,330.96956001738545
1396,316.5865311084017
1397,277.7341175251695
1398,232.6522446008712
1399,198.46083741551956
1400,183.12982079775247
1401,190.18911932660376
1402,221.7786573333342
1403,266.7783589031842
1404,306.7381478772113
1405,324.2879478540781
1406,315.27768219185964
1407,283.8572740098534
1408,235.20664619040508
1409,186.06572138071897
1410,161.34442199467776
1411,184.1226702146796
1412,246.09038799345763
1413,314.2174970559154
1414,356.24391890096376
1415,366.149574803374
1416,360.62438581559763
1417,356.6482727696348
1418,361.0511562788888
1419,370.92295673999615
1420,383.0935943347158
1421,395.9429890317733
1422,409.48106058874873
1423,423.8777285539145
1424,441.1129122681432
1425,465.1865308667693
1426,500.03850328146655
1427,543.6387482421651
1428,586.9171842789019
1429,620.7437297237393
1430,648.7083027126555
1431,690.3108211874587
1432,765.5212028976712
1433,870.009365402464
1434,967.5352260725522
1435,1020.318702092125
1436,1019.7197104607621
1437,997.1081679953659
1438,986.4239913320853
1439,1004.3070969282562
1440,1042.8074010643395
1441,1092.014819845861
1442,1138.8092692053597
1443,1165.390664904342
1444,1153.8789225352339
1445,1103.3239575233492
1446,1037.8356851288336
1447,983.3940204486571
1448,955.1688784185772
1449,952.2501738151041
1450,972.227821257502
1451,1004.1317352097685
1452,1024.1818299826045
1453,1007.9380197354458
1454,953.2602184784246
1455,891.0783400743985
1456,854.592298240952
1457,853.4320065524025
1458,862.8673784418152
1459,855.7783272030338
1460,824.104765992708
1461,786.9166078323105
1462,764.9837656101718
1463,761.1361520835453
1464,753.4436798806182
1465,718.5662615025776
1466,652.6438093256656
1467,577.576235603221
1468,516.7234524677642
1469,480.1253719330507
1470,460.9819058961457
1471,451.3429661395003
1472,441.16846433303726
1473,417.88831203622976
1474,369.4724207002055
1475,302.9707016698285
1476,246.96306618581002
1477,229.92942538680836
1478,249.91969031155168
1479,273.0637719009337
1480,265.1615810001513
1481,218.46302836082577
1482,150.7180246431344
1483,80.67648041794564
1484,25.468306168955678
1485,0.8034122948411095
1486,20.661709111409436
1487,71.97310685374578
1488,119.89751567839994
1489,131.62484566552303
1490,111.4450068210499
1491,90.5779090788892
1492,97.85346230309551
1493,126.47157629004505
1494,146.58216077065845
1495,131.27512541257056
1496,87.57037982235306
1497,41.957833547709015
1498,18.807396079710088
1499,22.608976854990033
1500,47.86248525798692
1501,87.06783062317118
1502,119.12492223728623
1503,117.01366934157886
1504,61.59398113406132
1505,-18.234233228246012
1506,-75.64106462704694
1507,-74.77660398050648
1508,-35.51094224098597
1509,4.705829607233682
1510,17.183620550251362
1511,10.212339546813382
1512,1.8318955306094722
1513,5.242197412586393
1514,16.743154083231275
1515,28.964674414915862
1516,36.16666726418043
1517,37.389041474072656
1518,32.501705876484266
1519,21.544569294459507
1520,5.027540544577278
1521,-16.49947156073722
1522,-40.4465582108478
1523,-60.383810594532406
1524,-69.55131989764777
1525,-66.4591773007196
1526,-57.94747397660103
1527,-51.39630108805977
1528,-48.94574978540368
1529,-46.02591120407851
1530,-37.876876462254586
1531,-25.508736658437556
1532,-15.801582869034974
1533,-15.685506145940963
1534,-27.27059751410343
1535,-48.79694796908552
1536,-77.93464847462747
1537,-107.17378996021034
1538,-125.64446331856743
1539,-123.95675940325236
1540,-106.3007690261602
1541,-83.82658295504552
1542,-66.80429191105031
1543,-59.75398656620564
1544,-64.90575754094789
1545,-81.8296954015932
1546,-97.30589065785898
1547,-94.34443376032323
1548,-64.91541509790295
1549,-32.668924995339694
1550,-28.215053710642678
1551,-65.30389143256252
1552,-113.55552827802603
1553,-135.64005428957535
1554,-115.27755943281772
1555,-77.2081335938401
1556,-50.621866576630055
1557,-49.02884810048636
1558,-63.209167797442205
1559,-82.3029152096351
1560,-100.2601797867137
1561,-116.27105088322423
1562,-129.76561775597474
1563,-140.13396956140423
1564,-146.7261953529669
1565,-148.8923840784464
1566,-146.09262457733166
1567,-137.82700557814496
1568,-123.87561569576792
1569,-105.78854342877275
1570,-85.91587715673631
1571,-68.06770513753872
1572,-63.15411550466888
1573,-84.17519626452486
1574,-134.11103529367756
1575,-183.16172033616567
1576,-194.92733900075473
1577,-156.837978758198
1578,-109.95372693848367
1579,-102.18467072809472
1580,-147.3508971672327
1581,-205.66249314703964
1582,-233.71954540683328
1583,-218.64214053131036
1584,-181.18036494774242
1585,-143.1443049231857
1586,-116.16404656166196
1587,-103.99967580133307
1588,-109.41127841166781
1589,-127.90893999061882
1590,-151.1227459617603
1591,-171.10278157144057
1592,-182.46913188590952
1593,-180.77188178845972
1594,-164.90111597653413
1595,-146.15691895883356
1596,-138.6593750524371
1597,-146.9885683798675
1598,-153.2245828661944
1599,-136.4575022361114
1600,-94.61741001098198
1601,-55.024389505921135
1602,-46.4885238268198
1603,-70.40989586740761
1604,-99.66858830626552
1605,-107.73468360385777
1606,-92.71826399953534
1607,-69.68941150854153
1608,-52.24820791901766
1609,-40.82473478896463
1610,-30.03907344323852
1611,-16.721304970504207
1612,-7.661510220199489
1613,-12.399769799476417
1614,-32.39616407014364
1615,-47.35077314559021
1616,-33.563676887708425
1617,13.21504509620172
1618,64.37531345652678
1619,89.1470491044638
1620,82.5501732151206
1621,67.26460723065065
1622,65.52027286340854
1623,76.84709209909488
1624,85.39498719989024
1625,78.78388070764959
1626,70.0936954470817
1627,83.03435452893063
1628,130.84578135316042
1629,185.63789961220027
1630,209.5006332941357
1631,185.58390668594075
1632,145.25764437672842
1633,126.1017712610028
1634,140.42621254189726
1635,165.56089373447503
1636,177.60574066898698
1637,175.70067949418262
1638,178.3656366805899
1639,202.2105390238521
1640,242.12531364803908
1641,282.01988800897743
1642,308.0741898976048
1643,317.4081474433169
1644,310.32168911734516
1645,293.0847437361226
1646,287.31724046467934
1647,316.7191088200343
1648,382.2402786746188
1649,451.1606802596816
1650,489.7702441687288
1651,495.99890136097565
1652,495.3665831647777
1653,511.26322128112406
1654,541.2587477870966
1655,569.993095139358
1656,584.6461961776695
1657,584.3479841283788
1658,571.4983926079531
1659,546.6873556265182
1660,506.2948075913937
1661,446.4306833106639
1662,377.3249179967261
1663,327.81744726989564
1664,325.4882071619795
1665,361.3171341198886
1666,398.8741650092561
1667,406.28923711805146
1668,386.70228816024246
1669,357.61325627943006
1670,333.582080052518
1671,318.97869849339077
1672,315.9230510565958
1673,319.4350776410538
1674,311.84471859375844
1675,275.0819147135153
1676,212.18660725466725
1677,146.8587379308574
1678,102.07824891877681
1679,86.10508286194454
1680,99.43918287450651
1681,137.3504925450252
1682,172.91895594027665
1683,173.24451760911325
1684,125.73712258626801
1685,61.85671639622524
1686,18.11324505707489
1687,8.176655084393133
1688,19.676893495139666
1689,38.733907811534664
1690,50.82764606501041
1691,41.038056800114646
1692,0.9750890784616786
1693,-46.13130751730387
1694,-67.4911828795648
1695,-49.95458637171214
1696,-26.061566824173497
1697,-33.85217253040537
1698,-76.32645124285409
1699,-114.99445016893696
1700,-113.34621596697616
1701,-82.67179474214754
1702,-63.35123204239426
1703,-85.7545728543464
1704,-130.39186159920428
1705,-163.12314212862475
1706,-164.0784577205941
1707,-145.05785107526572
1708,-121.91136431081577
1709,-104.33903895925323
1710,-95.35091596224447
1711,-97.33703566689837
1712,-110.00743782155587
1713,-131.61216157155468
1714,-158.58124545497776
1715,-179.85472739840043
1716,-182.64264471261413
1717,-165.77503408832854
1718,-149.8019315918682
1719,-156.27337266086397
1720,-179.26939209990087
1721,-187.9300240761895
1722,-157.15530211517762
1723,-109.31525909619813
1724,-87.29992724804833
1725,-113.21933814460135
1726,-145.1635227003717
1727,-129.99251116607775
1728,-60.11633312419508
1729,8.164982515536394
1730,18.481407520572247
1731,-27.27708565993271
1732,-88.35052389058728
1733,-129.77893334526016
1734,-148.03233950250615
1735,-148.93076714103154
1736,-137.87424033508432
1737,-119.24278244989546
1738,-97.06641613703141
1739,-70.24516332979329
1740,-32.749045238570034
1741,17.571917653820492
1742,54.49770559681019
1743,39.50829957676251
1744,-41.60631867830671
1745,-133.07616669402887
1746,-167.9372612449297
1747,-130.95861834966854
1748,-72.31725326628293
1749,-41.8881804873854
1750,-43.844413735372655
1751,-56.36596595759511
1752,-61.882849321516915
1753,-60.315075209868155
1754,-55.722654215776856
1755,-51.5255961378698
1756,-50.143909975364295
1757,-53.577603923176866
1758,-59.0566853669352
1759,-60.5101608780642
1760,-53.470036208796955
1761,-41.359316287174806
1762,-29.897005212051226
1763,-23.133106248065815
1764,-21.994621820602333
1765,-27.071553510715603
1766,-38.954902050070814
1767,-58.253667315839266
1768,-83.48984832558017
1769,-101.99544323212831
1770,-97.4244493184251
1771,-66.43586299236631
1772,-32.73767978159594
1773,-22.02489432834227
1774,-33.84450038416071
1775,-44.87949080471117
1776,-36.865857544496976
1777,-25.17259165159703
1778,-37.09368326236654
1779,-80.82712159612129
1780,-123.28989494982125
1781,-127.84799069270048
1782,-93.71739526091915
1783,-51.94809415216878
1784,-30.055071920272894
1785,-28.75631216975853
1786,-39.275797550400966
1787,-54.58550975179787
1788,-71.35442949785283
1789,-86.6515365412979
1790,-96.50680965816173
1791,-96.06422664224374
1792,-83.12276429954909
1793,-69.66039844271472
1794,-72.20010388541414
1795,-90.6458544367415
1796,-93.05462289557727
1797,-47.47938104493369
1798,24.122900353711884
1799,58.777251566125415
1800,12.06870389102005
