800,149.10719904246707
801,180.6158039116317
802,196.40667238466995
803,184.6530562502876
804,150.59920650762888
805,111.57437336369549
806,85.1568062307997
807,83.90475372403034
808,100.75546365879745
809,123.84318304838416
810,141.42915810153863
811,146.95763422011805
812,140.85485599675394
813,124.04806721256045
814,98.0565108348801
815,69.33942901506816
816,46.76906308629896
817,39.225653561424224
818,52.131440130868214
819,82.08066166053322
820,124.2775561897779
821,173.65336092939742
822,219.69931225965956
823,247.02164572836864
824,240.06259604895695
825,189.10739709862537
826,113.08428191651092
827,39.67648270187874
828,-3.712769187632148
829,-6.928243237744937
830,13.024290220756484
831,36.75206001036895
832,47.011294105229354
833,46.81321962953098
834,50.321062855947275
835,71.79604920410293
836,116.3254032390787
837,163.74134866993882
838,189.58610834829233
839,170.8629042669054
840,113.64695755831599
841,50.85248849350228
842,16.39071648056688
843,34.320860063474356
844,81.34913692079135
845,119.9427638644811
846,113.12795683871991
847,53.713930918740516
848,-21.214099690283547
849,-70.97192165433898
850,-60.46132251162271
851,-1.123090673580009
852,72.43898457409432
853,125.51411307048693
854,138.02050377851901
855,124.48836478404701
856,104.46390329495352
857,96.36432564032202
858,101.82483726959163
859,109.49164275177009
860,107.68394577465824
861,88.95994914411676
862,61.828854783351744
863,38.54086373223345
864,31.02417614663591
865,41.67399129781279
866,61.90850757180033
867,82.54592246883476
868,96.12043260282462
869,105.21923370081186
870,116.06852060249457
871,134.83848725975895
872,163.14632673623692
873,194.9982312069069
874,223.67939195769486
875,243.178999385128
876,253.82524299599118
877,259.3013114070309
878,263.31639234466456
879,266.6806726447321
880,263.3373382522632
881,246.21757422127394
882,209.22656471458595
883,159.9784930036767
884,116.20154146853747
885,95.85789159758497
886,110.08572398756314
887,147.08021834350893
888,190.21755347869203
889,223.4349073146377
890,243.26745688111532
891,258.76237831619983
892,279.4998468663189
893,312.4700368863514
894,352.6341218397283
895,391.4702742985737
896,420.5486659438566
897,434.95846756556966
898,434.3538490629371
899,418.69697944463223
900,388.9260268290227
901,352.14415844445193
902,317.81454062951525
903,295.3313388333845
904,288.5577176161387
905,292.2178406491166
906,300.1698707153064
907,306.9299697097331
908,312.4072986398887
909,319.15701762616663
910,329.7382859023319
911,345.49926181600586
912,365.2491028291597
913,387.49196551865225
914,410.41900557676854
915,428.90737781178905
916,435.82523614857564
917,424.0287336291685
918,390.83902241343276
919,344.8592537796794
920,296.44457812534984
921,255.6961449676901
922,229.12210294445867
923,220.63359981464419
924,234.0847824592156
925,269.33779688188133
926,314.1687882098604
927,354.0869006946896
928,375.16527771303936
929,373.2670617675467
930,352.47339448766706
931,317.12141663054626
932,272.43326808191614
933,226.75208785699215
934,189.1090141014056
935,168.17918409213235
936,165.0377342384818
937,173.53880008303713
938,187.23851630267563
939,200.03601670956596
940,207.18043425220458
941,204.25790101645543
942,187.14154822661476
943,158.97150624648384
944,130.52890458046204
945,112.9718718746717
946,114.0265359180612
947,126.19602364356615
948,137.73646112926144
949,137.22097359952568
950,122.59268542625068
951,102.45172013002775
952,85.98220038137333
953,80.65224800197575
954,85.70798396592
955,97.91752840098343
956,114.04700058988965
957,130.65051897162084
958,144.03620114271507
959,150.49516385859897
960,146.99752303492278
961,133.9263937489177
962,112.74989024074239
963,84.98312591488866
964,53.896213341560724
965,24.927264258087234
966,3.657389570336818
967,-5.294300645829935
968,-2.3326971431379206
969,10.514308498581158
970,31.162823873859452
971,55.69095575308347
972,77.8628100839851
973,91.28849199315846
974,90.63410578759431
975,76.07875495620283
976,49.59054217137418
977,13.209569290540458
978,-28.36506264225318
979,-67.11725339476288
980,-94.82390354494419
981,-104.52491447933426
982,-95.73918839145153
983,-70.05362828013676
984,-29.25713794792864
985,17.701378000614568
986,53.20701416055272
987,59.10286432826615
988,23.495021503149474
989,-34.96942211071473
990,-88.31637510282235
991,-109.25474685453264
992,-91.83344753733763
993,-54.81738811110881
994,-18.358480322365722
995,1.2453632975139044
996,5.385229434039502
997,0.5012039914290654
998,-7.0586279056515195
999,-13.399181910228435
1000,-17.310374451248208
1001,-17.7071227317374
1002,-13.931344726972384
1003,-7.096959182637875
1004,1.220114387006106
1005,9.43195570100761
1006,15.907643713584548
1007,18.87325661599243
1008,16.5318718384151
1009,7.20756605186034
1010,-9.569584829932865
1011,-33.55050564859266
1012,-64.44312199918932
1013,-97.6143602283064
1014,-119.88414743209978
1015,-117.06541145436677
1016,-78.63808088458245
1017,-21.67908505594096
1018,24.14564595660522
1019,29.515181338330876
1020,-11.843410463283362
1021,-71.75506173656868
1022,-119.19870550365522
1023,-129.0732755184781
1024,-107.99870626476331
1025,-73.17593295400184
1026,-41.48289152343568
1027,-20.3305186340167
1028,-6.711751668372017
1029,2.9244712712606997
1030,11.400211365047653
1031,18.866529077657106
1032,24.856484160305627
1033,28.994135652827026
1034,32.29054188576447
1035,36.839760482444035
1036,44.76984836106203
1037,56.38486173678757
1038,67.5108561238685
1039,73.28088633772313
1040,69.68700649706261
1041,60.44127002601272
1042,53.361729656231546
1043,56.208437429038895
1044,70.16144469755272
1045,85.69380212882243
1046,92.29655970597923
1047,82.21076673039352
1048,62.72147182379558
1049,46.226722930485266
1050,44.72656731944153
1051,60.07805158653355
1052,83.51122165666493
1053,105.74012278596638
1054,119.27479956397838
1055,122.46429591580818
1056,114.83165510435538
1057,96.58891973248683
1058,76.04613174523729
1059,66.79833243200846
1060,82.42356242877395
1061,123.63086172029216
1062,166.65626964230796
1063,184.97682488378996
1064,158.6025654891182
1065,107.96352886033128
1066,68.91875175934001
1067,76.18827031016917
1068,131.15212000116844
1069,198.10833568726412
1070,239.3889515921892
1071,230.19800131072225
1072,188.07951781094744
1073,139.28253343646975
1074,108.24407990869076
1075,98.75718832904931
1076,101.60288918127299
1077,107.40221233363263
1078,110.93018704121278
1079,114.24784194814856
1080,120.15320508991681
1081,130.2403038955763
1082,139.7191651900448
1083,141.66681519635858
1084,129.59927953796432
1085,105.96958324095795
1086,81.6057507363821
1087,67.64980586250203
1088,68.82577186705566
1089,73.3236714095583
1090,66.67852656357172
1091,37.506358818982335
1092,-1.0918109157137224
1093,-24.26196231113863
1094,-7.730075614726957
1095,48.24986835153322
1096,112.11188819339804
1097,150.2430019466501
1098,139.06122707939903
1099,90.48358049433773
1100,24.273078531072315
1101,-40.19326303163325
1102,-87.90642897353428
1103,-106.6014046306409
1104,-84.31517589289615
1105,-27.46972920193366
1106,28.010948451261356
1107,43.51786952860493
1108,-6.46395405277508
1109,-89.29051091825386
1110,-156.14979023342494
1111,-161.59178170180712
1112,-108.34747556255388
1113,-34.95386258816143
1114,19.33206591781709
1115,31.870318123044854
1116,11.009901668716338
1117,-31.504176328169706
1118,-83.62190927252959
1119,-131.7282910888989
1120,-161.70831621915386
1121,-160.5539796202247
1122,-133.3902767618074
1123,-100.10720362409666
1124,-80.9507566954835
1125,-85.74493297029949
1126,-103.56172994651752
1127,-121.01214562348468
1128,-127.60117849963899
1129,-128.1958275702491
1130,-132.72909232511483
1131,-150.60197274632628
1132,-182.2464693059701
1133,-220.7465829638677
1134,-258.95431516531426
1135,-289.416667838801
1136,-304.077643393759
1137,-294.80024471830257
1138,-256.7244751769522
1139,-201.39133860840047
1140,-145.4918393232274
1141,-105.23498210167236
1142,-89.64177219136582
1143,-102.26421530508742
1144,-146.3883176185209
1145,-215.13808576799056
1146,-283.77252684824634
1147,-325.7286484101933
1148,-321.76345845868855
1149,-284.42096545027016
1150,-234.84017829094046
1151,-193.11410633394735
1152,-166.74175937753353
1153,-155.04214766272526
1154,-157.12228187110668
1155,-168.63817312260653
1156,-180.2138329732643
1157,-182.07627341304214
1158,-168.08250686358588
1159,-144.4835461760431
1160,-120.17140462883981
1161,-103.20109592548943
1162,-94.3916341923923
1163,-90.86503397663546
1164,-89.71831024381027
1165,-87.92247837581635
1166,-82.33255416867178
1167,-69.7995538303494
1168,-51.6864939785828
1169,-40.48939163868636
1170,-50.39926424141049
1171,-90.9591296207509
1172,-144.53300601178125
1173,-183.62591204851196
1174,-182.7828667617232
1175,-149.0288895768099
1176,-115.15100031164002
1177,-114.36121917439777
1178,-156.56356676145515
1179,-212.76706405522782
1180,-250.276732422044
1181,-245.77859361001174
1182,-210.70066974690235
1183,-164.48998333800955
1184,-125.67055726406397
1185,-104.60941477908636
1186,-107.48357950830723
1187,-139.78707544604367
1188,-190.14592695360443
1189,-229.34615875720738
1190,-227.38879594586433
1191,-173.34286396931566
1192,-97.73238863593906
1193,-36.56139611065737
1194,-17.678912912910164
1195,-30.205965914521585
1196,-51.78858233769279
1197,-61.60478975290789
1198,-55.88361607689694
1199,-41.44308957057547
1200,-25.21923883701311
1201,-12.601092819368205
1202,-7.088680798877249
1203,-12.05003239281723
1204,-28.253177552465786
1205,-50.0431465611
1206,-70.80397003197504
1207,-84.67767890629875
1208,-89.73630445124763
1209,-85.3328782579465
1210,-71.48443223949107
1211,-55.95599862893869
1212,-51.532609977337415
1213,-70.66029915173567
1214,-110.73909933321193
1215,-150.6360440149092
1216,-168.10016700006054
1217,-152.09850240003107
1218,-118.20308463237416
1219,-85.8589484188742
1220,-69.81012878359797
1221,-62.193661050976516
1222,-48.370580843846255
1223,-15.848924081545192
1224,25.89727302202664
1225,54.58297396031048
1226,48.63814193599865
1227,9.934739862961578
1228,-34.46326963188949
1229,-56.33692420667285
1230,-42.27026180267603
1231,-8.106320642453284
1232,26.870860772040032
1233,47.8002436613242
1234,56.62978897025096
1235,59.27845736987547
1236,60.971209259309035
1237,61.694004767558
1238,59.06380375536901
1239,50.89056581707155
1240,38.422250282401365
1241,25.706816218333188
1242,16.836222430887574
1243,14.215427466961046
1244,17.823389616114582
1245,27.447066912385708
1246,41.95841713608388
1247,57.89339781557101
1248,71.40896622905711
1249,80.25507940636817
1250,89.76269413071532
1251,107.51276694047556
1252,139.27825413092978
1253,174.3361117560271
1254,193.1652956301332
1255,177.49576132977018
1256,135.56346419533838
1257,99.79435933286913
1258,103.08340161572778
1259,152.60154568633334
1260,215.97574595787046
1261,257.47295661599674
1262,255.457131620542
1263,225.47922470718368
1264,189.15718938914688
1265,164.73197895888734
1266,154.67554648975056
1267,156.87084483764374
1268,168.3838266426992
1269,179.47144433091853
1270,176.97265011584204
1271,148.95239600016794
1272,104.14663377738543
1273,68.2913150334316
1274,67.1343911482818
1275,105.91981329758892
1276,162.7675324542779
1277,213.96249939015433
1278,242.99566467751356
1279,248.8369786907133
1280,232.45039160775923
1281,197.2388534119018
1282,155.2993138931888
1283,120.66572265004106
1284,105.10002909081413
1285,106.72218243532734
1286,118.60213171645046
1287,134.05982578160365
1288,149.28921329432706
1289,162.16824273577367
1290,170.5848624062528
1291,171.97102042674123
1292,163.3456647403891
1293,141.89474311401682
1294,113.13120313961372
1295,94.27999223583538
1296,103.40105764947839
1297,147.00434645695168
1298,206.6148055657577
1299,260.4773817159439
1300,291.03002148157975
1301,294.9686712721759
1302,272.00927733416756
1303,224.74778575231358
1304,171.26514245116414
1305,134.80829319644909
1306,135.42018359653594
1307,165.30175910381695
1308,202.4499650161124
1309,225.72174647809334
1310,228.33004848264864
1311,214.31981587230803
1312,188.16099334057435
1313,158.42652543334952
1314,138.1973565502576
1315,140.62343094603966
1316,167.75969273189912
1317,204.07908587684688
1318,232.51355420904292
1319,242.888041417149
1320,240.88749105164607
1321,234.43484652615734
1322,229.2660511187787
1323,223.7360479733743
1324,214.6367801009037
1325,199.47719038070136
1326,179.35322156178336
1327,156.48181626413316
1328,133.836916979968
1329,119.99946607504535
1330,126.07040578989654
1331,161.26967824111853
1332,213.4762254226116
1333,257.1509892068407
1334,267.9809113460724
1335,247.8069334736283
1336,221.0489971050938
1337,212.2510436395678
1338,225.99801436087
1339,243.48385043876806
1340,244.75049293015945
1341,222.49688278031135
1342,189.4319608240312
1343,160.02066778686276
1344,143.74894428627158
1345,139.4567308328369
1346,144.60796783140722
1347,155.46859558226788
1348,164.80055428231572
1349,164.73978402621287
1350,151.33022480752697
1351,136.07681651987696
1352,134.3174989580857
1353,157.62321181929292
1354,197.3428947040993
1355,238.08348711767576
1356,265.0559284708852
1357,267.9801580813946
1358,238.5681151747758
1359,171.40973888560075
1360,89.64496825854803
1361,32.775742249477844
1362,37.20599972652235
1363,93.56167947115318
1364,159.04072017927137
1365,191.81206046224725
1366,185.26863884800878
1367,165.18539378207788
1368,157.78726362862653
1369,165.8591866715251
1370,165.31110111537055
1371,131.1559450865425
1372,67.73765663420272
1373,21.119173731345654
1374,40.111434275801
1375,131.6133760912562
1376,228.9749369282581
1377,258.2650544652188
1378,188.0796663094152
1379,78.85570999798438
1380,2.9921229989085987
1381,4.895842711992373
1382,54.76280646985833
1383,110.6199515389053
1384,140.86021512028492
1385,147.49953435085627
1386,139.3678463041615
1387,123.45908799137032
1388,99.57519636221878
1389,65.736108305975
1390,24.00276065237267
1391,-4.379909827461233
1392,7.557033579934796
1393,77.28552753128133
1394,168.1025086274749
1395,224.09791341450546
1396,199.90367838439306
1397,122.09073997604901
1398,47.178034576236314
1399,24.33849852043204
1400,42.44606809373727
1401,61.25767953176364
1402,45.25926902152969
1403,6.004772702332048
1404,-18.858873333356314
1405,4.666266960965004
1406,66.20912958672307
1407,127.49865050111293
1408,152.58676561798347
1409,142.2184108086749
1410,123.06852190289464
1411,120.7490346895629
1412,135.63488491765565
1413,148.25600829705945
1414,139.76934049939882
1415,112.30681715888568
1416,86.22837387315121
1417,81.61894620407111
1418,99.82746967859384
1419,124.41087978957694
1420,138.78511199657623
1421,140.12010172670307
1422,139.7577843754043
1423,149.46209530728447
1424,174.38596985692493
1425,212.3493433296626
1426,260.65015100241544
1427,311.7243281244664
1428,352.281809918255
1429,369.07953158018427
1430,362.65342828139364
1431,350.8224351685567
1432,352.1664873646587
1433,371.1925199697762
1434,393.8694680618646
1435,405.1862666975121
1436,402.7708509127351
1437,401.61415572374426
1438,417.68811612769787
1439,453.12466710348235
1440,490.4157436124642
1441,510.7452805992598
1442,505.77721299248697
1443,482.42447570553304
1444,448.8660036372785
1445,416.1617316728971
1446,399.62459468455563
1447,414.6795275321965
1448,463.17946506427324
1449,526.7043421184862
1450,585.2170935225404
1451,621.8326540948674
1452,624.3759586453834
1453,581.4229419762214
1454,501.274538882446
1455,421.51168415282336
1456,381.52931257053206
1457,391.01735891388853
1458,416.2437579570924
1459,420.5314444709529
1460,392.36835322361003
1461,356.1734189812705
1462,338.6615765089118
1463,345.2487605710412
1464,351.9119059323839
1465,333.0079473586302
1466,285.4128196171514
1467,235.91645747770417
1468,212.71779571318075
1469,219.02076910030337
1470,226.38331242036475
1471,205.09036045991706
1472,151.2438480115179
1473,91.8507098744467
1474,55.17088085539217
1475,52.38329576921569
1476,75.4608894396315
1477,114.99259669993808
1478,152.80435239373583
1479,161.5460913756433
1480,115.06374851201144
1481,23.09025868164281
1482,-69.95544322348906
1483,-120.1324222975145
1484,-119.86174361996927
1485,-93.78847225505706
1486,-66.93667325093702
1487,-52.15041163900787
1488,-52.46175243317157
1489,-69.84676062913059
1490,-95.5335012036594
1491,-112.94703911386932
1492,-106.91543929649924
1493,-80.94676666718442
1494,-50.66908611973122
1495,-30.958462525386494
1496,-27.035960732111562
1497,-38.59064556385056
1498,-64.29358181979478
1499,-94.86283427365925
1500,-117.00746767294186
1501,-119.37054673818238
1502,-104.77913616223123
1503,-82.2343006095034
1504,-60.38610471524589
1505,-45.56361308478154
1506,-43.227890292775555
1507,-55.30300088247168
1508,-65.75100936495437
1509,-52.87298021840434
1510,-4.40397788730661
1511,52.11893321825846
1512,78.65668872341303
1513,51.75122428922441
1514,-1.2375243865244556
1515,-41.89062156856198
1516,-46.69613148336066
1517,-34.83311831836545
1518,-33.03364622121626
1519,-55.14777929896263
1520,-84.80358161727963
1521,-101.37011719969632
1522,-94.27745002678603
1523,-72.22964403538026
1524,-46.095763117780734
1525,-25.704871120944517
1526,-19.257031845681922
1527,-34.451309045867674
1528,-65.59176642759303
1529,-89.99246764838972
1530,-84.80247631637394
1531,-50.10485598944433
1532,-9.478670174452418
1533,13.19301767363686
1534,7.157144152592082
1535,-27.57035408626689
1536,-89.16554033720786
1537,-158.31247783923027
1538,-204.2662297752231
1539,-199.66285927109493
1540,-148.11742939490614
1541,-69.0570031560128
1542,17.545356495831584
1543,89.2725866713372
1544,122.7206245425823
1545,102.72440734387783
1546,53.33587237269967
1547,10.265956990564518
1548,-0.8124013760443631
1549,10.303734765226181
1550,26.00230297352573
1551,35.60024087572492
1552,46.528486167340816
1553,69.0609766134985
1554,103.29665004984963
1555,129.52844438353895
1556,126.07429759415572
1557,87.52414773470628
1558,32.105932932572614
1559,-20.434408609491584
1560,-60.09493861239753
1561,-87.45771871971556
1562,-103.46081049667555
1563,-106.19827542916391
1564,-91.49317492271621
1565,-56.45757030148525
1566,-12.31952280722362
1567,21.349906401763292
1568,27.67265625165055
1569,9.35766575415255
1570,-22.586125992425877
1571,-56.11677980211243
1572,-74.51135640019129
1573,-59.64391642213741
1574,-5.520520412504993
1575,54.21277117616046
1576,77.9028979844461
1577,46.82679974716848
1578,-6.108583705479759
1579,-41.27831244681511
1580,-43.34944645250653
1581,-35.130045599420555
1582,-41.98816966446611
1583,-66.7698783234191
1584,-87.50623114975315
1585,-82.65628761342305
1586,-56.4661070796883
1587,-33.01974880790476
1588,-33.55327195028622
1589,-48.86173555069399
1590,-53.65219854338466
1591,-29.50771975176758
1592,1.8956421128623333
1593,4.708828452572561
1594,-41.65221921588818
1595,-101.78655925983912
1596,-127.53824992933733
1597,-94.09434935587888
1598,-31.97591555107465
1599,20.52199359469705
1600,42.04732031362437
1601,37.72300696180355
1602,15.273996020650884
1603,-10.227769901761349
1604,-16.077348069289656
1605,17.750204383679375
1606,72.53183045363949
1607,102.89347326939424
1608,71.94407609350128
1609,8.94958232371755
1610,-27.438064505537113
1611,5.063079278297664
1612,75.54595748741303
1613,132.899514075134
1614,145.01069313741937
1615,131.15543891441303
1616,119.06269579196123
1617,125.86040830317506
1618,150.7495211300029
1619,190.91697910479888
1620,235.68772721192363
1621,265.9807105893451
1622,263.9758745302697
1623,232.81916448476477
1624,189.8555260614139
1625,152.09090502898653
1626,132.25224731808885
1627,141.30449902289
1628,184.36360640280873
1629,243.66951588422125
1630,295.8641740622352
1631,326.75452770239826
1632,343.1835237424875
1633,354.7711092942791
1634,364.26923164535765
1635,364.9128382609051
1636,349.896876785544
1637,323.60329504517904
1638,299.85204104884724
1639,290.74706299058926
1640,291.20630925135447
1641,287.47072840089095
1642,269.9392691996745
1643,248.50788060085142
1644,238.70051175218214
1645,250.58511199801615
1646,280.16263088129745
1647,321.12801814554587
1648,363.701223736889
1649,392.9451978061097
1650,394.67989071069496
1651,376.31525301690635
1652,364.06023550188365
1653,380.801789155752
1654,415.8778651837365
1655,441.7834150083254
1656,438.6563902714206
1657,420.949742836543
1658,412.52342479099025
1659,422.6183884480997
1660,425.9375863494661
1661,392.92197126719293
1662,324.5564962061817
1663,262.136114406414
1664,246.4517793452851
1665,270.79644473990265
1666,292.9690645494811
1667,276.8745929776851
1668,233.2669844750235
1669,192.13719374127868
1670,177.54217572791822
1671,193.05488564057123
1672,237.73127894147365
1673,294.97031135197903
1674,320.16893885507125
1675,268.3441176978931
1676,151.86280439430993
1677,39.2499557274723
1678,-5.787471247569556
1679,14.71348079874133
1680,63.86776947311773
1681,109.48035266208535
1682,141.2951885346638
1683,154.98823554508
1684,148.64645243549603
1685,125.59579823875083
1686,89.89823228114074
1687,47.129714185211924
1688,4.597203872579485
1689,-30.280338433234647
1690,-49.95895220393413
1691,-46.82167660356936
1692,-18.062550485617066
1693,15.804387609949117
1694,27.239099459605313
1695,1.584547159273825
1696,-45.73630687268178
1697,-95.1834998924287
1698,-133.10306882760415
1699,-152.8330502742474
1700,-149.12948049370243
1701,-127.75639540947486
1702,-101.1888306041019
1703,-80.4418213159588
1704,-69.07140243607137
1705,-68.42860850488978
1706,-78.59647370902076
1707,-96.8590318779734
1708,-119.77331648084692
1709,-134.594360623003
1710,-118.36419704270611
1711,-53.33885810775064
1712,24.268624187940986
1713,48.74821822776266
1714,-20.27110722411726
1715,-118.90638301928266
1716,-157.31563962153996
1717,-104.04590710338925
1718,-36.469215142449684
1719,-39.5465930178716
1720,-112.29906960670542
1721,-175.82767338026042
1722,-161.78243240042048
1723,-97.5813743159406
1724,-52.07252635871282
1725,-68.08291534000455
1726,-108.22256764666054
1727,-120.49150923729485
1728,-86.2127656384364
1729,-33.44536194064767
1730,6.874677205382795
1731,12.094327592760237
1732,-34.944434537628695
1733,-137.97163249313598
1734,-236.90628912532156
1735,-252.84542682589563
1736,-158.4540675226417
1737,-32.60123267529434
1738,35.86705672860535
1739,26.35878017788491
1740,-16.98008235805264
1741,-51.48955042498892
1742,-63.59864307961925
1743,-52.24937888525619
1744,-23.516775907495685
1745,-3.845851709850649
1746,-22.51362334935766
1747,-77.2201073721535
1748,-125.77031980900301
1749,-128.19127617082086
1750,-92.57099144413769
1751,-54.41348008654859
1752,-40.88475602212293
1753,-46.10283263677138
1754,-56.39272277360578
1755,-61.903438728235415
1756,-58.86099224405007
1757,-44.7933945074692
1758,-27.257656143137865
1759,-20.858787209110233
1760,-35.8057971919925
1761,-60.95069500204772
1762,-78.9504889682612
1763,-79.52918683339067
1764,-65.67679574895828
1765,-42.11732227022094
1766,-17.896772351108666
1767,-5.5651513391103435
1768,-13.857463970145545
1769,-30.400714363381667
1770,-35.81190601602975
1771,-21.70304179809591
1772,-2.5841239470892106
1773,4.435845937279737
1774,-12.532133101532054
1775,-60.811061371507094
1776,-141.2879385266424
1777,-218.74976356148
1778,-245.18853480560028
1779,-199.92424991808548
1780,-121.3989058819352
1781,-54.176498998444
1782,-11.494024881554651
1783,21.21552154783967
1784,55.44414606763348
1785,79.44385516027069
1786,73.29665601856414
1787,32.03155655154296
1788,-17.900434609664444
1789,-47.52530810589724
1790,-54.17905384399273
1791,-57.492660990783406
1792,-73.12711796705025
1793,-91.84041244142827
1794,-96.29153132428655
1795,-81.16146076155383
1796,-64.19118612851071
1797,-63.93369202354825
1798,-71.93296226186158
1799,-59.18297986912876
1800,-8.038727075134375
