800,168.32515778597372
801,180.57131514623688
802,182.28368553268228
803,174.39748040760787
804,161.44991096488957
805,150.51718812730905
806,148.72752254381885
807,159.88612458688476
808,174.79720434979572
809,181.0799716440215
810,166.67663599655498
811,132.82740664729317
812,98.71949254640822
813,84.806102351753
814,108.18744442625575
815,158.48172683534358
816,211.80815734439784
817,244.2249434161604
818,239.8462922082308
819,203.33541057051661
820,142.58950504272798
821,65.86178185186691
822,-11.770553090245812
823,-69.07529418946433
824,-84.61823617176924
825,-44.30017408572894
826,30.051096695073284
827,105.60478046960452
828,149.87208120697687
829,149.9952025440416
830,124.081347783007
831,92.94371988905732
832,75.75952148799297
833,76.22595486388127
834,89.51322195672583
835,110.7105243601236
836,134.80806331896747
837,156.54903972714783
838,170.6336541252549
839,171.98910669830184
840,160.08059727348518
841,138.5653253178989
842,111.25348993632542
843,81.66328986899498
844,51.91092348937673
845,23.6975888019806
846,-1.2495165598429594
847,-19.591195336068267
848,-25.5922506421648
849,-13.323485971253831
850,21.48629480375712
851,69.3032874280525
852,113.71668726277676
853,138.29468928293682
854,134.0104880753115
855,109.34427783636966
856,75.31525237020287
857,42.72960508646429
858,19.287528998327616
859,10.275216720463504
860,20.9208604669966
861,52.61865204951573
862,92.36078287507371
863,123.75544394419376
864,130.90882584889914
865,112.61811877075888
866,84.58251247892986
867,63.43619632822083
868,62.885359257164964
869,79.5231897861031
870,103.75187601528887
871,126.04360562298461
872,143.02256586358635
873,161.58894356576457
874,189.61192513058086
875,233.206696529689
876,282.70544330344455
877,320.0643505591197
878,327.1916029690801
879,295.1613847689914
880,236.78087975602284
881,168.07127128707543
882,104.61974227701285
883,56.172475196908636
884,28.154652072311364
885,25.897454481491877
886,50.925063553755535
887,92.01765996768881
888,135.26842394950836
889,167.26453527134254
890,185.7511732495659
891,199.53651674313915
892,217.90174415194633
893,247.59603341515685
894,283.6555620096042
895,317.6905069481454
896,341.46104477806875
897,351.57735157949173
898,350.989602963773
899,343.0279740719361
900,331.05263957310126
901,318.4037736629416
902,308.4515500621237
903,304.49614201479017
904,307.4477222870373
905,314.2164631653941
906,321.3525364553243
907,325.63611347974984
908,325.99736507756097
909,322.4164616021517
910,314.8635729199632
911,304.30886840903986
912,293.81251695758874
913,286.64468696256154
914,285.82554632823485
915,291.1152624648166
916,300.38400228703176
917,311.44193221276873
918,320.73921816168695
919,321.31602555386235
920,305.64251930843966
921,267.42886384228586
922,216.8952230686682
923,176.18176039592618
924,167.728638726172
925,203.74602045398933
926,265.65406746514236
927,329.0929411352954
928,370.5828023287595
929,382.5038113972223
930,370.4961281785072
931,340.65991199533164
932,299.8553216540895
933,257.8125154436366
934,224.8816511340665
935,210.99288597554005
936,217.13637669708623
937,235.85227950542867
938,259.2907500838246
939,280.321943590905
940,294.52601465953376
941,298.15311739567915
942,287.7234053772736
943,265.647031653114
944,240.574148741749
945,221.4649086303907
946,214.3394627738253
947,212.19796209334527
948,204.43055697567252
949,180.7773972719242
950,141.93863229654198
951,101.10441082628495
952,72.10488109918151
953,65.15019081352511
954,72.76048712687953
955,82.17591665505643
956,80.95662547115899
957,66.98275910458142
958,50.554462540068926
959,42.72188021673173
960,51.27515602712083
961,67.33443331628769
962,76.78985488084618
963,65.92156296806752
964,35.24969927496386
965,2.9844049474013445
966,-11.544179420812725
967,5.274086211222311
968,37.269341330613315
969,58.64172486980715
970,44.26137520575503
971,-6.181569840933662
972,-61.73697300682579
973,-89.41469758648782
974,-64.75460743328586
975,-7.556566960216514
976,47.959558859341996
977,68.23390449080216
978,43.826603837620496
979,-4.542209759487378
980,-54.25240352328001
981,-86.22384524076188
982,-99.44640326390436
983,-98.63994651037865
984,-88.5943444642744
985,-75.52946717682062
986,-67.40518526706364
987,-72.31136992258507
988,-95.03789290015811
989,-124.30462652644383
990,-143.97144369863236
991,-138.2982178851289
992,-105.54482312615801
993,-60.18113403444295
994,-17.57702579580291
995,9.477625830217221
996,20.002944509737063
997,16.41905333394243
998,1.2060748184903787
999,-21.085869097069008
1000,-43.666657049863716
1001,-59.63616825427562
1002,-63.92428250248486
1003,-59.04088016501555
1004,-49.5358421912897
1005,-39.92905011013136
1006,-33.760386030313384
1007,-32.089732641044975
1008,-35.5769732124827
1009,-44.661991596240114
1010,-57.62467222583837
1011,-71.45490011720904
1012,-83.1325608691659
1013,-91.29754066383248
1014,-97.7897262671213
1015,-104.86900502915341
1016,-113.97526488471522
1017,-120.60839435365779
1018,-117.56828254132233
1019,-97.75481913895055
1020,-61.51789442407062
1021,-20.25739926089591
1022,13.67677489928974
1023,30.334736017779505
1024,32.49659146806698
1025,27.222448035490743
1026,21.402411916889832
1027,17.4165887202671
1028,12.675083464464478
1029,4.358000578831707
1030,-8.184556097072345
1031,-17.432483313792545
1032,-14.025678412275738
1033,10.615960675855604
1034,52.20253542801038
1035,96.38414673036641
1036,128.5608948776062
1037,139.70287957267465
1038,134.57019992650567
1039,120.01295445782489
1040,102.46124109288758
1041,84.67515716527669
1042,67.38479941567857
1043,51.35026399170056
1044,37.851646447652456
1045,29.02904174437026
1046,27.122544249035855
1047,33.37224773500748
1048,43.5982453816614
1049,51.800629774223125
1050,52.179492903640494
1051,44.084926166429796
1052,32.2470203645571
1053,21.69586570530737
1054,16.531551801177557
1055,17.964167669771996
1056,26.613801733690707
1057,42.83054182046544
1058,63.8044751624584
1059,84.63568839678737
1060,100.43426756527333
1061,108.16029811437511
1062,108.38386489514778
1063,102.0350521631899
1064,90.89394357860874
1065,81.66062220601452
1066,82.915170514485
1067,102.84767037755773
1068,136.95820307323083
1069,166.77684928396775
1070,173.0436890967212
1071,145.44880200293483
1072,102.97226689859235
1073,70.61416208423543
1074,70.78456526503214
1075,96.16355355081942
1076,120.71120345614872
1077,118.2875909003742
1078,79.80279120772684
1079,26.10687910739216
1080,-18.95007126640303
1081,-35.75798637426669
1082,-27.406793271573406
1083,-4.516419608318756
1084,22.503206371004126
1085,48.50215582750752
1086,73.18049932806935
1087,96.45830684547764
1088,116.82564775857463
1089,129.16259085242564
1090,127.78920431847109
1091,108.23555575472528
1092,75.82171216594725
1093,40.547739963825734
1094,12.273704967192316
1095,-6.290327597784199
1096,-21.50429309737774
1097,-40.33812749009667
1098,-67.56176732643507
1099,-100.14514974865415
1100,-133.3882124905267
1101,-162.4608938770998
1102,-181.41313282442934
1103,-183.63486883930818
1104,-162.63604201900307
1105,-121.75659305096997
1106,-80.1764632125687
1107,-58.49559437077187
1108,-70.44392898184378
1109,-99.36141009105813
1110,-120.1179813323597
1111,-109.54358692804453
1112,-72.63817168844253
1113,-35.311681011553446
1114,-23.85406088272248
1115,-49.04525787427883
1116,-92.83521914517223
1117,-133.98389244060854
1118,-155.11122609166887
1119,-158.46716901494437
1120,-152.55167071212054
1121,-145.56468126959953
1122,-141.0461513580958
1123,-138.78603223221216
1124,-138.43427573002919
1125,-138.21083427268786
1126,-133.54566086394698
1127,-119.49870908973571
1128,-94.07993311772952
1129,-70.68928769687773
1130,-67.81672815694765
1131,-102.54221040805714
1132,-168.20569094020175
1133,-238.71712682277393
1134,-287.476475704063
1135,-298.7436958107719
1136,-278.0087459475053
1137,-233.2115854962667
1138,-173.17217441592948
1139,-111.09047324173298
1140,-61.56644308472278
1141,-38.60004563124676
1142,-47.37124314237735
1143,-86.31999845338578
1144,-153.59627497315705
1145,-237.27003668365433
1146,-307.7012481393158
1147,-333.40987446650433
1148,-293.3958813629015
1149,-212.05923509691092
1150,-126.06990250707895
1151,-69.72785100146393
1152,-48.95304855703944
1153,-51.17546371907156
1154,-63.64506560047994
1155,-78.74182388120971
1156,-96.4357088075958
1157,-117.25669119171835
1158,-139.91474241071774
1159,-156.94983440617943
1160,-159.55193968342974
1161,-140.8610313108711
1162,-110.87708291931449
1163,-88.16006870126512
1164,-90.63996341024904
1165,-115.70674236009836
1166,-137.7903814242527
1167,-130.12085703503544
1168,-82.21814618293683
1169,-23.78222641587854
1170,9.386924161504794
1171,-10.600673111368451
1172,-65.30499745029556
1173,-119.48602862553344
1174,-139.96374696102794
1175,-126.79813333365564
1176,-106.41916917243725
1177,-105.74683645777259
1178,-132.62111772062963
1179,-163.10199604177433
1180,-170.19945505095347
1181,-137.74347892609148
1182,-89.5340523924715
1183,-58.601160721927954
1184,-73.2547897320037
1185,-120.39492578512363
1186,-165.6815557877526
1187,-175.71466718955344
1188,-146.34424798252076
1189,-104.37028670014115
1190,-78.04277241649652
1191,-80.40169474543654
1192,-91.42704383965247
1193,-86.76881038981264
1194,-49.416985623682194
1195,2.548438694801007
1196,40.66747026641133
1197,39.38011625755462
1198,5.506383301191818
1199,-34.10372250225009
1200,-52.790195583946115
1201,-42.19303090571702
1202,-16.402223959112234
1203,9.112229235561244
1204,23.590332130177558
1205,27.672087649765672
1206,23.767498193476058
1207,14.366565635553343
1208,2.4792913263190712
1209,-8.744323906847058
1210,-16.474279758498596
1211,-21.860576444134495
1212,-28.653214699190357
1213,-40.44219577802505
1214,-54.54752145290149
1215,-60.58919401295134
1216,-47.68721626316619
1217,-13.81159152334294
1218,22.177676372964925
1219,38.340583079478165
1220,19.047123738269875
1221,-21.182707019195732
1222,-58.77891507096865
1223,-72.04150680355633
1224,-58.36048911083344
1225,-26.305869392957902
1226,15.302344444718983
1227,53.86414399276691
1228,72.7495203387607
1229,55.25846406841083
1230,1.4109652666775219
1231,-55.662986481116604
1232,-78.93340208813424
1233,-44.370292964908
1234,22.816328981814877
1235,85.73645135021616
1236,111.94006124456428
1237,102.29714527638134
1238,72.76768956559499
1239,39.00167974172473
1240,10.439100945053724
1241,-8.560062172173275
1242,-13.825825444577276
1243,-3.718205192431924
1244,19.802781779539146
1245,54.47711818335665
1246,95.134786249022
1247,129.12576772572538
1248,142.63004388308036
1249,127.55759551235133
1250,103.16840292770394
1251,96.87244596743767
1252,131.42970399525439
1253,187.34015590149102
1254,222.54378010441178
1255,197.20055455146758
1256,119.99045672055763
1257,43.90346362132914
1258,22.899551796464948
1259,72.45869732295978
1260,148.8708758134435
1261,203.406062417469
1262,207.08423182282968
1263,183.06535825688115
1264,162.99941548786592
1265,171.1363768262163
1266,197.26621512594284
1267,221.09890278591774
1268,224.49441175126958
1269,207.43271351469411
1270,178.89377911785596
1271,148.02757915271832
1272,124.36408376293912
1273,117.84326264522133
1274,137.97508505072437
1275,178.1895197864378
1276,210.55653521656677
1277,205.74609926395897
1278,153.47817941147696
1279,84.10274270343871
1280,33.30975574702097
1281,25.839184713689974
1282,47.61099534061759
1283,75.87515293213255
1284,91.09162236116026
1285,92.92036807065597
1286,88.15135407507296
1287,83.12454396180874
1288,79.39990089268213
1289,75.7073876053928
1290,70.85696641500545
1291,65.71859921542455
1292,63.0322474808836
1293,65.57787226744585
1294,73.39543421449889
1295,82.67489354625286
1296,89.3162100732643
1297,93.58934319394211
1298,105.13425189607733
1299,134.8308947583664
1300,186.6792299519384
1301,241.3292152419217
1302,274.46080798895855
1303,267.95396515076754
1304,237.03864328370764
1305,208.0847985443379
1306,203.99238669097394
1307,217.56136308527675
1308,226.21168269382906
1309,208.95330008971905
1310,169.63616945412832
1311,130.910244577939
1312,115.25547886332788
1313,128.21182532538114
1314,156.72923659369735
1315,186.82766491402435
1316,207.29706214987164
1317,211.30737978415164
1318,192.43856892080476
1319,153.90058028645763
1320,121.07336423205925
1321,122.42687073453999
1322,173.50104939847188
1323,245.88584945773437
1324,301.8512197771852
1325,310.9571088543307
1326,279.11346482102635
1327,223.5702354451496
1328,161.58736813229552
1329,110.19480992748504
1330,86.34250751685977
1331,104.97040722940073
1332,158.62845503864446
1333,225.71659656439806
1334,284.74477707448386
1335,320.20294148644643
1336,321.72103436932593
1337,279.8489999453741
1338,208.34678209181402
1339,148.16432434261333
1340,141.2815698902159
1341,193.1384615873303
1342,251.45494194870662
1343,258.96095315289494
1344,195.5964370440488
1345,120.74133513371089
1346,104.04558860260113
1347,182.17913830242833
1348,295.99192475769087
1349,369.01388816749386
1350,348.1349684073648
1351,272.59510503107595
1352,204.49423727248723
1353,193.992304047355
1354,227.0192439552011
1355,268.1049952811427
1356,285.7294959977535
1357,277.42268376690663
1358,253.524495941665
1359,224.3648695681204
1360,199.57374138728846
1361,188.37104783698123
1362,198.78672505370014
1363,222.68070887451177
1364,240.06293483896297
1365,231.73333819097206
1366,200.58185388074344
1367,169.67841656667952
1368,162.17296061730121
1369,178.61542011316124
1370,193.73572884880377
1371,181.28382033467824
1372,139.07962779907393
1373,99.18308419009009
1374,95.9841221775805
1375,137.94267415510512
1376,187.98867224190508
1377,204.56204828486625
1378,169.62273386050038
1379,115.93066027691384
1380,82.88575857581236
1381,92.50795953448505
1382,120.69719366779645
1383,135.8333912302005
1384,119.22648221774216
1385,94.06639637008448
1386,92.10306317250615
1387,132.4564118579583
1388,184.7263714090659
1389,206.26287056018737
1390,167.455837799449
1391,100.93520137078667
1392,57.84088927602352
1393,78.25282927689295
1394,139.14094889713488
1395,195.07517542456662
1396,207.8954359131294
1397,188.99165718500262
1398,170.40376583268335
1399,179.28168822106636
1400,202.95535048955753
1401,209.49467855417424
1402,171.61959810965527
1403,107.62003463157635
1404,61.04591337846978
1405,70.99715939396447
1406,123.37369750889229
1407,170.6154523434525
1408,168.27234830933958
1409,120.86430961191218
1410,67.43126025231504
1411,45.753124029677565
1412,62.02982454324956
1413,97.6712851945922
1414,133.81742918975215
1415,159.22817954143466
1416,169.33345907120747
1417,160.15319041168368
1418,136.1272960087299
1419,109.67569812366492
1420,93.2683188354822
1421,91.81508004304851
1422,102.55590346734607
1423,122.33071065369586
1424,146.96942297397436
1425,171.23196162888598
1426,189.91824765017736
1427,200.77820190290004
1428,205.10174508767886
1429,204.42879774295034
1430,202.05928024724926
1431,203.57311282148112
1432,214.58021553118851
1433,236.740508288849
1434,266.5439108561586
1435,300.14034284632726
1436,334.5397237263951
1437,367.9519728195137
1438,398.5870093072881
1439,420.7247522320631
1440,423.12512049928773
1441,394.39803287980794
1442,339.1334080122306
1443,285.1611644052409
1444,261.8112204399695
1445,279.0934943723387
1446,318.37790433541704
1447,358.93436834178647
1448,390.922804285914
1449,420.8431299465283
1450,456.29526298898963
1451,492.61912096770175
1452,506.8046213284724
1453,474.79168141094306
1454,397.24021845097377
1455,311.45014958305
1456,257.251391842723
1457,247.68386216900035
1458,256.74747740679413
1459,255.7321543093476
1460,235.9778095406691
1461,217.4143596779886
1462,221.80172121418946
1463,252.63981056028388
1464,288.17854404786704
1465,305.1478379315704
1466,293.01760839155577
1467,258.1877715359915
1468,208.34824340352134
1469,154.7689399657611
1470,113.2597771298133
1471,99.36067074074163
1472,110.99153658409887
1473,124.8422903884275
1474,117.07284782778697
1475,83.76312452427374
1476,43.42303605055895
1477,15.172497932415354
1478,2.451425651268437
1479,-7.630265353263894
1480,-28.10265968080421
1481,-57.87584196767057
1482,-82.19989688429814
1483,-86.61490913268244
1484,-72.84096344377758
1485,-56.88814457494482
1486,-54.24653730733917
1487,-63.486226443323176
1488,-69.58729680386205
1489,-58.52983322592809
1490,-35.663920559874896
1491,-20.42964366683009
1492,-30.537087416056238
1493,-60.05633668234259
1494,-87.70747634334475
1495,-94.20059127697277
1496,-83.09576635870508
1497,-71.07308645897137
1498,-72.3826364404631
1499,-79.40450115550448
1500,-73.50876544333369
1501,-40.3855141274762
1502,2.4151679869883083
1503,23.533196116064573
1504,-1.0215145004112856
1505,-50.00904859612456
1506,-85.29949087552814
1507,-77.57292601115842
1508,-42.08943864090725
1509,-8.199113365300946
1510,1.9179652552465996
1511,-3.6082872968563606
1512,-8.717955493622867
1513,-3.9211237587296637
1514,-2.737876464781948
1515,-23.71829793053803
1516,-71.4124724181438
1517,-110.3104841303757
1518,-97.88241720784026
1519,-23.928355726200607
1520,45.94161630661256
1521,35.71741495319111
1522,-75.32104365052146
1523,-201.8938432924515
1524,-247.73106768156504
1525,-181.33280044505045
1526,-72.33912512548886
1527,1.9898748219729896
1528,8.124116032464372
1529,-31.996484765755667
1530,-93.09201074846351
1531,-157.46254499260795
1532,-215.08817047342927
1533,-256.4589700616216
1534,-274.91502652043164
1535,-266.1264225027917
1536,-227.35324054841294
1537,-174.11556308092258
1538,-133.8534724049423
1539,-130.2770507031728
1540,-153.24638003350628
1541,-175.3015423260913
1542,-172.04261938042146
1543,-139.59969286238083
1544,-82.2028443013387
1545,-8.252155087177016
1546,53.85229353264367
1547,69.79042045603273
1548,20.332144729251013
1549,-60.45261445012875
1550,-126.74393773025986
1551,-147.86190560202704
1552,-132.69659839605993
1553,-96.49809627975446
1554,-53.57647925425226
1555,-16.251827151452744
1556,3.4757803690099536
1557,2.1462638227731077
1558,-11.410456096218695
1559,-27.44445851268938
1560,-38.04582236698843
1561,-37.29462641205282
1562,-20.270949210354956
1563,3.9351308691420854
1564,14.88353565406942
1565,-5.805812828300986
1566,-51.91299234796497
1567,-102.71808046911428
1568,-139.73115454705112
1569,-161.55229172508552
1570,-174.0215689314373
1571,-181.5390628761379
1572,-181.49485004790586
1573,-169.20900671103118
1574,-144.27160890224695
1575,-120.28273242761134
1576,-113.67245285934405
1577,-130.16084553270048
1578,-151.43798554281057
1579,-156.0439477415257
1580,-135.02880673424988
1581,-98.9826368767699
1582,-60.09551227208249
1583,-25.927506767195155
1584,1.0013060500386928
1585,18.660852854152836
1586,28.191060585228115
1587,33.211856452144275
1588,37.07316793577229
1589,40.15492279220416
1590,41.31704905598417
1591,39.029475043344064
1592,29.892129355444922
1593,9.834940881624789
1594,-23.462161197330715
1595,-65.79924740593924
1596,-111.4563879707639
1597,-149.59365281710234
1598,-157.16111156573606
1599,-109.88883352962694
1600,-16.186887710618976
1601,64.43465720385575
1602,70.52573284409118
1603,3.736271161425975
1604,-68.70379556843727
1605,-81.46453474209738
1606,-32.666013425132405
1607,35.93170165126321
1608,86.33854409361265
1609,114.86444784951891
1610,133.01934721103498
1611,150.17317681801978
1612,165.9958716615256
1613,177.42736708717894
1614,181.61759879856982
1615,176.17650286064236
1616,158.8840157031209
1617,135.55007412389023
1618,125.48461529244014
1619,148.36757675327135
1620,198.92889642934097
1621,245.23851262548487
1622,256.506364031884
1623,233.2823897274866
1624,197.266529183511
1625,168.2487222668642
1626,150.18890924363768
1627,140.43703078259932
1628,137.7530279586499
1629,146.38684225633915
1630,171.9084155733708
1631,211.47769022408465
1632,242.93460894298914
1633,241.89911488828875
1634,206.121151645395
1635,163.97066323047693
1636,144.6275940939886
1637,152.21188912424077
1638,169.79349365093913
1639,181.39235344874942
1640,185.05841474087902
1641,185.9116242026539
1642,188.95192896508706
1643,198.33927661849157
1644,217.9836152160624
1645,246.23489327751122
1646,267.1830597926346
1647,262.9880642249809
1648,234.95985651545016
1649,212.68838708594012
1650,226.10360684298212
1651,268.00546718140504
1652,298.9139199879737
1653,284.43891764506225
1654,242.39041303432532
1655,216.82835954038273
1656,240.88271105448985
1657,298.61342197824706
1658,360.57044722729006
1659,401.4937422349976
1660,406.0932629562194
1661,361.07896587098185
1662,276.79080798822906
1663,194.7287468495524
1664,155.72274053294313
1665,159.95274765654176
1666,177.1487273823932
1667,180.39063942021676
1668,169.95844403118645
1669,157.30210203169554
1670,151.95157479716545
1671,156.65682426583044
1672,172.6778129425511
1673,193.65450390260958
1674,199.6668607955471
1675,170.6248478489797
1676,114.62842987243675
1677,67.38757226120288
1678,61.08224100015832
1679,84.7724026676533
1680,104.6980244393526
1681,95.24907409212938
1682,67.1455200079181
1683,40.937331177632586
1684,28.529477205027433
1685,23.00592831063659
1686,15.208655335651201
1687,2.586629745856044
1688,-9.857176364446786
1689,-17.341790268510522
1690,-21.857238603197402
1691,-29.491547365032602
1692,-45.15474190624445
1693,-67.78384693080625
1694,-94.50188649045776
1695,-121.33988398072506
1696,-141.77586213694485
1697,-149.07384303024628
1698,-141.4108480635732
1699,-122.78989796765381
1700,-97.6260127969872
1701,-71.09521192582724
1702,-48.82451404412859
1703,-35.18093715351279
1704,-28.437498563225745
1705,-25.07921488606553
1706,-23.777102034322525
1707,-28.023175215706942
1708,-41.54544892926606
1709,-56.5019369612819
1710,-52.35765238118984
1711,-11.866607537460368
1712,45.13318594651537
1713,78.5257171765279
1714,59.71597599171946
1715,7.852952968685713
1716,-45.91136057436415
1717,-83.9099725734377
1718,-113.63189021462495
1719,-144.4891199299018
1720,-169.68566739296148
1721,-167.72353751503033
1722,-122.49273444066603
1723,-60.02826154354989
1724,-24.623121422288023
1725,-44.23431589617758
1726,-96.56084600097711
1727,-149.9267119846918
1728,-183.30491330329096
1729,-190.61944861650045
1730,-167.95231578348466
1731,-124.161511858636
1732,-76.62303308724768
1733,-40.2698749012543
1734,-17.434031914932348
1735,-6.68349792058325
1736,-5.737265884243243
1737,-10.56432794133434
1738,-17.068675392367368
1739,-24.315298698578772
1740,-34.379187477594314
1741,-49.23033049908008
1742,-69.27771568036769
1743,-94.25433008209802
1744,-120.41515990382322
1745,-134.03819047963043
1746,-120.04240627374202
1747,-79.80979087611195
1748,-35.5183269980098
1749,-8.398996467583856
1750,3.3352197745425656
1751,14.58634167972923
1752,35.407390095771916
1753,56.803386771345686
1754,65.32435436048218
1755,53.01331642703735
1756,20.64129744918864
1757,-28.934677176093828
1758,-75.78058112853068
1759,-87.9673871600171
1760,-46.74206709013197
1761,3.6024081984251097
1762,0.6700687643442507
1763,-75.64305438773954
1764,-166.13592930268533
1765,-206.2395230703005
1766,-187.27580182074962
1767,-145.7607307199869
1768,-113.90827396516033
1769,-93.49739478001356
1770,-76.17805541027701
1771,-60.179217119057284
1772,-57.41384018219833
1773,-80.10288388366462
1774,-114.28730651087426
1775,-123.13106535006955
1776,-79.66011668163446
1777,-18.32341577543957
1778,4.653083113849789
1779,-32.840573248548026
1780,-79.08533707281458
1781,-75.66715953984567
1782,-21.10799079651406
1783,35.50822004904148
1784,51.84752493216183
1785,34.61297683640623
1786,7.86962979830605
1787,-10.582461087858974
1788,-16.219239665309942
1789,-6.794648709970716
1790,9.190370074322345
1791,14.134876060606985
1792,-3.3880702963742806
1793,-20.500407455370805
1794,-3.2630727837877203
1795,51.67299744715092
1796,89.00286806725853
1797,51.589605012213724
1798,-45.36472467153544
1799,-131.61405282191663
1800,-152.5043101563424
