800,159.57944444015993
801,147.2048006281384
802,125.68100073386813
803,101.12831808334522
804,78.47702563099847
805,61.767395954613676
806,55.02970125030697
807,60.91421332753089
808,76.72120360409826
809,98.41094310126755
810,121.97370243884325
811,143.94975183031966
812,161.61936107805195
813,172.32279956847924
814,173.86033626735116
815,167.94223971502652
816,158.14877802177216
817,148.07021886311122
818,139.85682947521855
819,131.84887665031238
820,121.8466267321237
821,107.78034561136883
822,90.79029872126375
823,74.87675103307629
824,64.13996705171303
825,61.88021081131774
826,67.40774587093438
827,78.81283531019108
828,94.21574172500186
829,111.2767272233159
830,127.00605342090057
831,138.35398143715793
832,142.65077189095064
833,140.52668489650023
834,134.48198005928134
835,127.00691647196618
836,120.4017527103897
837,116.29674682956829
838,116.24215635972723
839,121.6082383023604
840,129.89524912634442
841,135.13344476405837
842,131.19308060754338
843,113.83441150470753
844,87.85769175553833
845,60.81317510836561
846,40.20111475612612
847,31.511763332720875
848,37.29537290932058
849,59.852194990762655
850,100.2624805119558
851,149.59647983432478
852,193.92444274226364
853,219.29661843965187
854,219.0532555463651
855,203.70460209485645
856,186.2709055267169
857,179.08241268931488
858,184.2793698324367
859,196.13202260496473
860,208.6906160515773
861,217.09539460949418
862,220.58660210523522
863,219.33448175141893
864,213.61927614358137
865,206.8912272570269
866,206.2205764437167
867,218.86756442916703
868,249.47243130939933
869,287.23541654789915
870,315.77675897260815
871,318.8466967729546
872,291.38546749689885
873,246.983308048013
874,200.9904546826092
875,167.78714300681713
876,152.76360797382222
877,156.5700838810044
878,179.8068043671683
879,218.22400240979914
880,256.0719103223255
881,275.8607597514165
882,261.79078167432635
883,220.8622063962339
884,176.98526354761998
885,154.4501820816895
886,168.86719027180698
887,206.68651570894326
888,248.21838529917295
889,274.5430252611932
890,283.5906611238588
891,290.0115177237567
892,309.2058192027853
893,350.92378900579024
894,398.93564987820537
895,429.4816238637177
896,419.39193230196906
897,369.0567958262909
898,309.38643436143684
899,273.3110671213526
900,286.92091260700545
901,333.4461886041772
902,379.6471121813338
903,392.5638996874841
904,361.98676675010574
905,315.36592827304594
906,283.6915984344869
907,293.513990684909
908,335.0033177451023
909,380.43979160419076
910,402.08362351766664
911,386.3350240054788
912,348.8042028501204
913,308.7613690947619
914,284.1867310413854
915,279.7604962489586
916,292.0928715316295
917,317.6540629569463
918,350.0342758440929
919,375.5037147621588
920,379.1825835284235
921,347.7210852066655
922,288.6094221055155
923,224.40779577679314
924,177.99640701389944
925,165.51545585021813
926,182.63514155755365
927,221.18566264455876
928,272.85721685524004
929,326.94000116742245
930,370.7342117912958
931,391.4300441679334
932,382.13769296787723
933,356.59735208969687
934,333.13921465863314
935,329.2034730251962
936,343.43031876384157
937,356.58994267163143
938,348.77253476694204
939,306.95828428817185
940,246.0773796924841
941,188.05000865457987
942,154.20635806546852
943,150.336614031281
944,165.84096187209252
945,189.3995861207677
946,210.53267052184128
947,222.70039803039617
948,220.4829508109815
949,198.7305102365426
950,161.06325688736797
951,121.02137055007915
952,92.70503021661352
953,87.21441408323517
954,101.37969954959044
955,127.71106321773914
956,158.6886808912568
957,185.8727275743022
958,199.73337747076584
959,190.63080398338207
960,152.82517971290326
961,100.0466764572684
962,52.1954652107961
963,28.771716163417295
964,35.015598699894326
965,58.4072813990897
966,85.3369320332331
967,103.83471756722247
968,110.62080415793935
969,105.2453571535716
970,87.36854109298656
971,61.83051970507768
972,39.94145590817425
973,33.42151180945075
974,49.700848704344025
975,73.80962707601793
976,83.50800659480774
977,57.08614611772282
978,-7.325796312044986
979,-86.75766346562887
980,-156.69929892891378
981,-196.14054710299206
982,-202.05125320459047
983,-177.11126326646627
984,-124.31042413780051
985,-56.77858348456539
986,0.044410210128262406
987,19.97870764569052
988,-14.965541296243828
989,-82.68818755215034
990,-148.82908287685677
991,-179.81807984382613
992,-166.425031845396
993,-127.58979309300412
994,-83.84221861741571
995,-52.11216426888859
996,-32.90948671737169
997,-22.034043452660626
998,-15.435692784532876
999,-13.184293842874467
1000,-19.81970657780039
1001,-40.10179175972917
1002,-75.81041097947309
1003,-116.23542664827983
1004,-147.36670199790024
1005,-155.2141010805899
1006,-134.3674887691286
1007,-100.94673075681567
1008,-74.41169355744205
1009,-72.38224450525558
1010,-93.30825175490281
1011,-124.3195842813584
1012,-152.43611187983151
1013,-168.3977051656875
1014,-170.25423557428985
1015,-156.93557536090157
1016,-128.2915976005188
1017,-91.20217618770948
1018,-55.75718583642629
1019,-31.966502079818383
1020,-24.180001270016874
1021,-28.267560577904078
1022,-39.41905799288361
1023,-52.62437232260709
1024,-61.913383192719266
1025,-60.9959710465464
1026,-43.862017144827405
1027,-12.331403565371147
1028,23.11598679726376
1029,51.550270232120965
1030,64.86156221219608
1031,65.27997739482089
1032,57.4556296220544
1033,46.008631921091364
1034,34.95909650464637
1035,27.847134771434867
1036,28.25285730659016
1037,38.16637388212985
1038,55.82779345743438
1039,78.88722417972713
1040,104.94477338458637
1041,130.96054759645995
1042,153.60465252918584
1043,169.48719308655382
1044,175.07827336284208
1045,166.4879966433964
1046,139.80646540523412
1047,94.14378131760168
1048,45.13004524261669
1049,13.985357235887932
1050,21.039816547145165
1051,63.08352162088704
1052,112.25657009705901
1053,139.51905881171115
1054,126.26108379770994
1055,87.6927402854235
1056,45.89412270343928
1057,21.76532467929792
1058,22.21643904022676
1059,44.997557813909225
1060,87.67877222921925
1061,142.89017271703779
1062,193.86184891100856
1063,222.79388964836835
1064,216.18638297074722
1065,187.27941612498398
1066,159.53307556400796
1067,155.76744694764238
1068,180.5326151435056
1069,218.04866422785017
1070,251.4656774864834
1071,268.14373741565214
1072,269.402925722954
1073,259.4033233282571
1074,242.28501036464695
1075,221.92806617935094
1076,202.04256933472243
1077,186.30859760918247
1078,176.97622799822238
1079,173.76553671538204
1080,176.1165991932521
1081,182.81949008450283
1082,189.09428326289162
1083,188.96105182430074
1084,176.78986808780428
1085,154.02080359669344
1086,128.69392911957948
1087,109.08931465144269
1088,99.07702941475327
1089,90.97714186055236
1090,75.28971966955578
1091,44.57482975330822
1092,7.542538255282125
1093,-19.317089447957187
1094,-19.893988745598108
1095,5.781904208561173
1096,37.06065249731182
1097,51.942318441206226
1098,35.60696359974463
1099,-1.4253512273862725
1100,-43.004565999148326
1101,-74.1106214318861
1102,-92.3834589981052
1103,-103.32302092523241
1104,-112.53925019436065
1105,-123.19209053897248
1106,-134.58148644368703
1107,-145.62738314294802
1108,-154.73972661976222
1109,-157.91846360437376
1110,-150.5235415729585
1111,-128.57490874630457
1112,-97.82251408847878
1113,-71.25630730548801
1114,-61.966238843928295
1115,-75.20225988962738
1116,-101.57432236627574
1117,-130.11237893404905
1118,-151.60638298821868
1119,-165.79628865776795
1120,-175.28205080397856
1121,-182.60362501901727
1122,-189.27096762451765
1123,-195.94403567015434
1124,-203.27278693218977
1125,-210.86717991204569
1126,-216.2871738348258
1127,-216.85272864787112
1128,-210.59380501926898
1129,-199.37036433638787
1130,-186.24236870436835
1131,-174.29978094464605
1132,-166.48256459342156
1133,-165.59068390016728
1134,-174.37410382609232
1135,-191.57279004260818
1136,-208.05670892979833
1137,-213.75582757487064
1138,-202.08011377058574
1139,-183.78953601371904
1140,-175.0740635034672
1141,-190.96366613989267
1142,-229.21831452230253
1143,-274.4379799476883
1144,-310.942634409108
1145,-328.82225059407756
1146,-328.1968018829466
1147,-310.2562623472895
1148,-278.4806067482659
1149,-246.5698105349711
1150,-230.933849842806
1151,-246.08270149180862
1152,-283.53634298499856
1153,-319.8947525067124
1154,-331.777908920918
1155,-311.6757917695377
1156,-275.16838127075425
1157,-239.68565831731576
1158,-217.73760447483983
1159,-205.1242019800775
1160,-194.08543373922294
1161,-178.18128332617925
1162,-162.15173498081276
1163,-156.496773607234
1164,-171.2063847720492
1165,-201.16055470258652
1166,-224.31927028517202
1167,-217.77251906333913
1168,-173.40028923607133
1169,-119.66256965600587
1170,-90.55934982767394
1171,-112.25061990569156
1172,-164.7863706929711
1173,-211.53659363890802
1174,-218.2612808375925
1175,-188.91042502596065
1176,-157.73401958200157
1177,-159.47205852292063
1178,-202.79453650329197
1179,-252.7714488132424
1180,-270.34279137658086
1181,-230.40856074896328
1182,-159.55875411602756
1183,-96.30336929152509
1184,-74.70240471546276
1185,-89.89585945222098
1186,-116.99373318866492
1187,-131.60602623226987
1188,-126.38273950922667
1189,-111.99387456253135
1190,-99.98943355009942
1191,-96.91941924284038
1192,-98.50383502275872
1193,-99.04268488101116
1194,-93.90597341600733
1195,-83.56370583146418
1196,-69.9958879344631
1197,-55.18252613352706
1198,-41.05362743666046
1199,-29.53919944939298
1200,-22.459250372845418
1201,-18.94378900173433
1202,-14.782824722440637
1203,-5.546367510998607
1204,9.655572068846595
1205,23.082982867639657
1206,25.715853152205455
1207,10.814170607625783
1208,-16.462077660749856
1209,-47.08290512530948
1210,-72.33832583417097
1211,-86.98835440916446
1212,-88.05300604382501
1213,-72.74229650137204
1214,-42.92624211267321
1215,-6.284859774230426
1216,29.141833053872688
1217,55.73381834999054
1218,66.90107753297889
1219,56.183591464223355
1220,21.03134044970102
1221,-22.225695757952053
1222,-51.60753795740857
1223,-48.09420749655146
1224,-22.675726270434097
1225,-3.9021167191804125
1226,-19.39340182592423
1227,-66.27960511472702
1228,-108.93075064848017
1229,-110.23686302682836
1230,-55.90796738405879
1231,23.31591061297695
1232,91.37474476698117
1233,121.64850835230754
1234,123.31717411707905
1235,114.02071428529234
1236,109.50910055894383
1237,111.19230412015168
1238,114.02029563327596
1239,113.08304524703817
1240,106.67052259668526
1241,95.67269680609388
1242,81.1395364899272
1243,67.98100975578382
1244,66.60708420632182
1245,87.88772694143881
1246,134.15290456040384
1247,185.97258316402804
1248,220.47672835682533
1249,220.85530524916794
1250,199.3082784594735
1251,176.6756121163544
1252,171.88726986080655
1253,186.60321484838641
1254,213.24340975139603
1255,244.1878167610539
1256,272.40639758970246
1257,291.47911347298395
1258,295.0859251720485
1259,283.91679297572773
1260,269.4216767027756
1261,263.9405357040341
1262,273.4433288646651
1263,287.13001460633495
1264,291.4105508894663
1265,277.5648952154115
1266,259.39300462870597
1267,257.28483571927063
1268,287.8003446246348
1269,335.38948703218375
1270,368.45221818136815
1271,357.51849286594916
1272,310.8482654362324
1273,267.7114898012951
1274,267.4981194312568
1275,316.02810735948697
1276,374.7214061848881
1277,402.0779680741143
1278,377.43774476383805
1279,324.9906875630113
1280,274.67674735511173
1281,248.92587460040704
1282,243.1580193382124
1283,246.82313118917227
1284,250.74115935750706
1285,253.9920526332935
1286,258.7157593947413
1287,266.9322276104558
1288,279.101404841731
1289,294.7932382448125
1290,313.4676745731922
1291,332.4546601798884
1292,347.1841410197303
1293,353.1260626516505
1294,352.75037024097765
1295,358.3470085617191
1296,382.87592199886967
1297,428.58705455070594
1298,474.46034983108257
1299,496.43575107173456
1300,479.3032011245832
1301,437.9326424640494
1302,393.54401718934787
1303,364.6072670268077
1304,354.59233333218253
1305,361.9691570929699
1306,384.6876789307189
1307,416.1378391033504
1308,447.3795775074814
1309,469.92283368075186
1310,482.21754680414233
1311,487.89365570429254
1312,490.68109885585363
1313,491.64981438379436
1314,489.0397400657421
1315,480.9608133343172
1316,465.25297127947306
1317,439.3561506508231
1318,400.73028785999304
1319,353.61531898294015
1320,317.9511797623254
1321,315.8878056098365
1322,357.7751316085378
1323,414.08309251522587
1324,446.77162276276977
1325,427.23065646246687
1326,373.7801274063986
1327,319.4099690697785
1328,293.1701146133091
1329,295.08049688554456
1330,312.0710484252486
1331,331.5617014637519
1332,346.8923879273134
1333,355.13303943948995
1334,353.60358732350505
1335,343.1139626045988
1336,327.5240960124138
1337,310.71391798335753
1338,294.923358662978
1339,280.42234790831935
1340,267.3608152903307
1341,254.76869009621078
1342,239.85590133179358
1343,219.7123777239358
1344,196.38804772287767
1345,182.4728395046477
1346,191.94668097343492
1347,229.6894997639647
1348,274.19122324389355
1349,299.1317785161955
1350,287.1910924215463
1351,256.4390915407166
1352,233.7257021969599
1353,241.1608504584019
1354,275.48446214043906
1355,324.9464628081314
1356,376.76677777859004
1357,410.96533212339637
1358,404.35205067097013
1359,338.3268580089898
1360,240.42967848678563
1361,164.56043621774188
1362,160.9790550816997
1363,224.34545872737
1364,308.72957057471285
1365,368.7413138173815
1366,389.0306114250925
1367,381.8373861460623
1368,360.2715605094054
1369,332.38305682754253
1370,300.36179719861684
1371,266.2077035089078
1372,236.66069743524713
1373,225.3007004474257
1374,246.037633810618
1375,298.1414185877984
1376,355.2419756421532
1377,388.3592256395168
1378,380.63308905076883
1379,341.28348615427603
1380,282.9203370383075
1381,219.73356160344883
1382,169.91307956504534
1383,152.3788104556188
1384,176.28067362729598
1385,219.22858825422918
1386,252.43247333503496
1387,254.91224769521796
1388,236.62782998961302
1389,215.0991387047925
1390,204.48609216153454
1391,202.72860851722362
1392,202.98660576830844
1393,198.91000175272166
1394,187.30871415232832
1395,166.0126604953639
1396,134.87175815885894
1397,107.07592437110179
1398,101.39507621405392
1399,132.7091306258153
1400,184.60800440304956
1401,225.49161420343808
1402,227.4098765481158
1403,198.0127078241312
1404,164.7100242868746
1405,152.86174206254327
1406,162.48777715057076
1407,177.70804542609767
1408,183.3424626424112
1409,177.47094443338574
1410,167.48340631596147
1411,161.17976369256758
1412,169.049931853604
1413,203.6938259798717
1414,276.2613611450579
1415,370.03245231815526
1416,444.1670143659576
1417,458.8749620554918
1418,415.036210056498
1419,352.070672943868
1420,309.95826520012815
1421,304.4389012178872
1422,326.24249530231646
1423,364.9689616735959
1424,410.54821446938513
1425,453.2401677473026
1426,483.5547354873761
1427,500.09183159452186
1428,510.99136990101033
1429,524.8932641689426
1430,548.2274280927068
1431,584.6137753014609
1432,637.3122193616146
1433,701.3926737792917
1434,761.1450520028011
1435,800.4192674251299
1436,816.9252333864079
1437,827.3628631763895
1438,849.6020700369318
1439,890.4127671644783
1440,940.7748677125346
1441,990.438284794167
1442,1026.85293148446
1443,1034.1487208230228
1444,996.6655658164618
1445,923.933379440874
1446,862.7520746443352
1447,862.2115643493853
1448,928.3417614555201
1449,1002.882578841678
1450,1022.9939293687385
1451,967.1157258820112
1452,875.3878812137336
1453,792.6503081855572
1454,742.3929196110548
1455,716.4356282982208
1456,704.0883470519457
1457,697.3209886765471
1458,692.0334659782511
1459,684.4156917676919
1460,671.7875788624442
1461,652.9690400894815
1462,626.9899882877198
1463,595.5003363105043
1464,563.7599970281335
1465,537.1588833303485
1466,514.9869081288543
1467,488.3639843598339
1468,448.120024986456
1469,394.3249430013966
1470,338.6986514293367
1471,293.52106332950643
1472,263.3920917981668
1473,243.8116499711632
1474,229.81965102643517
1475,219.68600818651976
1476,215.33063472110553
1477,218.5534439495368
1478,223.58434924333233
1479,216.72326402874205
1480,184.60010178924495
1481,129.09477606809196
1482,66.81720047084855
1483,14.72728866790385
1484,-15.355045602977043
1485,-16.149888534133424
1486,18.13267375455871
1487,72.46255521817511
1488,114.9896698893408
1489,115.6339318807295
1490,75.88525538761678
1491,20.113554690435194
1492,-27.85125584268826
1493,-56.91926175338085
1494,-64.26054849047796
1495,-48.79520140747991
1496,-25.39330575997883
1497,-18.11494670312095
1498,-46.46020928905091
1499,-90.24917846434437
1500,-109.3219390674567
1501,-70.97857582616962
1502,2.8108266449962684
1503,66.26618384731592
1504,81.9074114004452
1505,63.374425044976306
1506,43.32714064501852
1507,46.6954741907648
1508,59.12934180105003
1509,53.82865972596301
1510,13.663344349368344
1511,-37.87668780845706
1512,-66.5815200882862
1513,-50.021235689342575
1514,-6.935917666716705
1515,34.95435107121557
1516,56.77948776538324
1517,64.84940980861393
1518,69.97403474822022
1519,76.13328028859178
1520,71.34706429379912
1521,41.45530479018271
1522,-13.88208003103864
1523,-68.49517181116607
1524,-93.59405202143716
1525,-83.1788019603755
1526,-66.83950275123789
1527,-76.49623533935119
1528,-115.51908048954101
1529,-151.01811878348417
1530,-149.26343061711668
1531,-112.37509619800039
1532,-79.22319554270325
1533,-87.90780847417773
1534,-134.98901461913192
1535,-182.93689340539822
1536,-196.15152405931804
1537,-174.10298560307638
1538,-139.21135685210538
1539,-112.63671641241308
1540,-101.40914267795233
1541,-105.30871382799342
1542,-123.07550782446015
1543,-147.02960240927496
1544,-166.94107510173308
1545,-174.2700031958284
1546,-168.4564637576077
1547,-151.30053362250328
1548,-125.42228939267443
1549,-96.16180743435689
1550,-69.50916387516918
1551,-49.54443460146649
1552,-35.40769525565702
1553,-25.449021233527674
1554,-17.958487681573388
1555,-11.046169494304195
1556,-2.9021413115679024
1557,5.3235224841318995
1558,8.120747770333764
1559,-0.1805393126942363
1560,-20.290412359254333
1561,-47.58894469553343
1562,-77.08620937687556
1563,-102.42227918510616
1564,-116.17722662581036
1565,-112.12112392562267
1566,-97.17404302951218
1567,-86.00605559806536
1568,-91.15723300477475
1569,-109.76764633330276
1570,-132.42736637476446
1571,-150.8564636249921
1572,-162.39500828179553
1573,-165.99307024224618
1574,-158.96071909991224
1575,-133.05802414214122
1576,-79.02505434727937
1577,-4.631878381955175
1578,43.9414354017008
1579,16.014818968793406
1580,-90.13179539556404
1581,-199.33847508348663
1582,-231.9952871615551
1583,-174.49229836802988
1584,-85.9395751100983
1585,-26.4271834610754
1586,-13.875189157628483
1587,-33.74365759698594
1588,-69.53265383415783
1589,-94.85224257912341
1590,-78.0524881940546
1591,-0.003454690491707879
1592,86.84479427344922
1593,104.73219539589809
1594,8.338685734015598
1595,-128.49579729313518
1596,-204.8513159018239
1597,-170.3079319407807
1598,-94.27570688840024
1599,-62.65470184987862
1600,-104.57497755439181
1601,-160.43659435224617
1602,-165.1196122120382
1603,-108.31409071777671
1604,-36.69008906606359
1605,3.562333936793948
1606,6.363119877634745
1607,-6.737789260678255
1608,-14.950451096379766
1609,-7.084922845939218
1610,23.808738678835653
1611,78.85047707368176
1612,133.45023634477548
1613,155.92796091163473
1614,132.46359561000645
1615,97.49708569478389
1616,93.17837684293045
1617,132.0774151563637
1618,176.87414716491548
1619,186.80851982922286
1620,157.14048054368504
1621,121.69997713939301
1622,113.12695788705605
1623,125.16137149997667
1624,125.2531671369743
1625,88.17229440535812
1626,41.94870336388158
1627,36.78234452572542
1628,103.78316886144057
1629,198.7511278019556
1630,259.15617324153936
1631,252.82825754080295
1632,217.32733352968899
1633,199.24335451046318
1634,213.3362742607369
1635,230.34604703645527
1636,219.8426275749389
1637,187.2859710978846
1638,168.39603331440594
1639,195.22277042405221
1640,260.24613911985944
1641,335.99609659140697
1642,398.5626005278282
1643,441.4056091209168
1644,462.9550810681503
1645,464.2109755757774
1646,452.6732523618939
1647,436.8118716595036
1648,421.0067942196365
1649,403.607981314417
1650,382.8053947401695
1651,363.00899682052477
1652,354.0387504095397
1653,364.8146188947976
1654,395.0265662005513
1655,439.70455679083716
1656,492.00855567262624
1657,536.8985283989641
1658,557.0744410721127
1659,539.906260346721
1660,483.8139534329821
1661,389.397488099803
1662,281.53683267796987
1663,217.08195606336994
1664,249.58282772013627
1665,352.50941768387383
1666,439.5816965648537
1667,437.2796355512328
1668,368.133206412258
1669,294.08238150151374
1670,260.40713376013264
1671,255.10743672005083
1672,254.09326450724438
1673,240.45459184499305
1674,210.19139405713213
1675,161.1236470713393
1676,102.16132742239097
1677,53.02441225545408
1678,30.822879329389252
1679,24.8367070200311
1680,9.555874323501484
1681,-31.94963914046275
1682,-78.59985312521167
1683,-99.13478675383158
1684,-80.44445851580713
1685,-48.888886263695895
1686,-35.32808720976027
1687,-50.49207792259949
1688,-82.07087432379558
1689,-116.75449168451996
1690,-144.12294462216596
1691,-155.4962470969349
1692,-146.55441240845357
1693,-133.86745319233705
1694,-140.34538141680605
1695,-174.38820837922322
1696,-210.55594470268625
1697,-219.47860033256075
1698,-199.6661845330491
1699,-182.74870588370868
1700,-197.7861722760008
1701,-224.95859090979138
1702,-214.66596828988258
1703,-133.60831022250204
1704,-27.815621811816527
1705,33.332092543612816
1706,17.074829154313193
1707,-28.27741495652299
1708,-45.15464204953969
1709,-23.126853665626186
1710,-3.534050622401992
1711,-25.146233010602373
1712,-77.7934001905378
1713,-124.52555078847945
1714,-136.8226826930786
1715,-121.6347930517586
1716,-94.89187826709167
1717,-70.48393399317501
1718,-58.58095513200533
1719,-68.04293582981336
1720,-90.69986947343932
1721,-102.9117486866362
1722,-85.52856532642363
1723,-55.410310479381224
1724,-45.00697445796868
1725,-72.08854679681644
1726,-109.24501624900768
1727,-121.01637078236126
1728,-99.15259757569038
1729,-73.50368301506751
1730,-74.21961269004714
1731,-99.49037138992753
1732,-126.22594309995657
1733,-133.78631099754966
1734,-115.51145744849055
1735,-68.96136400312389
1736,-4.1860113925486075
1737,43.084620475241536
1738,35.88055251916194
1739,-20.848193511075806
1740,-82.34159503113733
1741,-107.18962861816544
1742,-88.98227000690531
1743,-36.35949408581291
1744,35.57872510686502
1745,93.45241438699122
1746,101.38160142847664
1747,54.07631476721872
1748,-15.1134161949376
1749,-72.09756118625046
1750,-100.57608906110181
1751,-94.34896779599876
1752,-53.67616448559966
1753,-2.7876453386707
1754,28.566624325898374
1755,23.9666800831601
1756,-11.73744159385933
1757,-70.95570333010255
1758,-134.3680668444067
1759,-174.44449294542756
1760,-171.4249415275408
1761,-143.01937156673193
1762,-117.71774111648483
1763,-107.57000730364234
1764,-93.69612632428107
1765,-56.09605343952171
1766,-11.75974297139146
1767,-7.657148298629181
1768,-75.78822185249373
1769,-163.03291511255338
1770,-187.99117860246588
1771,-117.9229618857571
1772,-21.35821356156157
1773,23.94311873964034
1774,5.0810883602734975
1775,-34.144250380031735
1776,-54.96284218013716
1777,-58.65463075309526
1778,-60.73955882181872
1779,-66.74756811474981
1780,-60.55859936149136
1781,-24.812592288451924
1782,27.63051438552793
1783,57.090782953584494
1784,32.658276725223914
1785,-20.566939969256055
1786,-57.7648017743104
1787,-54.26524230472569
1788,-27.968194141143613
1789,-1.473588825590923
1790,14.668643143038935
1791,20.128572313449695
1792,16.236270286490253
1793,11.351809719677476
1794,16.085264331755752
1795,32.64670890725938
1796,47.07621930107598
1797,44.72387244305355
1798,28.009746342608196
1799,12.343920093340785
1800,9.646473877681274
