800,153.62137301036455
801,160.76594876176205
802,158.98205600147776
803,147.5029351938756
804,126.34582642696296
805,96.07096940842166
806,57.25360346168782
807,12.766967522034975
808,-25.45869986728576
809,-43.28616055889688
810,-26.8981768051126
811,24.487488738275715
812,94.02807300823042
813,163.64981253075348
814,216.78694341716255
815,249.18470136044016
816,262.64632163154965
817,259.0120390758548
818,241.3970881095047
819,216.17070271587
820,190.206116442012
821,170.0525623951744
822,156.0582732392977
823,142.99948119155488
824,125.45341801894938
825,99.64631503489
826,69.87640309582457
827,42.899912597900766
828,25.42307347363385
829,20.54611518862839
830,25.70826673829106
831,37.84275664462257
832,53.95381295296647
833,71.69566322884748
834,89.06853455480268
835,104.08665352725075
836,115.69524625337908
837,125.40653834805198
838,135.17575493078584
839,146.69212062267616
840,156.4258595434203
841,156.03819530833607
842,137.00835102539168
843,94.34554929229125
844,40.08201219357397
845,-8.645038702275997
846,-34.86038234567968
847,-30.518798208782755
848,-0.828066288260743
849,47.92303289189658
850,108.83171827762817
851,169.8682082821033
852,216.43772078297116
853,233.96847311972488
854,216.39468209102233
855,177.79656395206257
856,135.17233441197277
857,104.75220863124923
858,91.42140121916782
859,91.2751262312795
860,100.1975971668835
861,114.02702696653432
862,128.48662800960847
863,139.2686121118386
864,142.25419052291363
865,138.9385739240788
866,137.26697242577393
867,145.54659556528532
868,169.5456523044286
869,200.20535102724534
870,223.0978995377336
871,223.93350505758463
872,199.0703742239748
873,162.65171308733807
874,130.50772710919045
875,116.98062115997709
876,123.0615995169137
877,142.66186586189542
878,169.6376232793882
879,197.9740742543545
880,221.99442067021846
881,236.06186380682266
882,234.97860433844107
883,219.70384233178447
884,195.72877724403588
885,168.65560792092583
886,143.5285325947989
887,123.53374888273538
888,111.46145378466099
889,110.09784368150576
890,122.11911433336172
891,150.0864608776883
892,196.5630778275081
893,260.8551590696479
894,327.2068978629941
895,375.4934868367509
896,386.08111798876234
897,358.85598268381364
898,319.0062716519551
899,293.38217498688573
900,303.08088214432246
901,333.2515819403816
902,355.2054625500259
903,340.5277115054796
904,282.87651569470836
905,212.38706135988105
906,162.6275340958873
907,162.64611884883925
908,204.32699991462687
909,261.30836093746984
910,307.16338490850467
911,326.8592541643666
912,328.87515038583297
913,324.62125459644085
914,324.547747161163
915,329.03480778505946
916,332.3626155120073
917,328.76134872339026
918,314.37118513685346
919,290.27230180503284
920,258.3048751143506
921,220.7290807838017
922,185.52509386376005
923,164.79208873481184
924,170.72923910659847
925,208.57571801669474
926,262.5506978294852
927,312.9083502350695
928,340.8088462481828
929,342.6623562071509
930,327.669049772825
931,305.46909592757765
932,284.9226629742898
933,272.2799185353724
934,273.201029551783
935,292.8361622820885
936,325.08548230152337
937,353.19915450107874
938,359.97734308660984
939,334.3702115779306
940,289.9279228079813
941,246.3906389219792
942,222.91852137656497
943,223.8817309390215
944,238.12042768645733
945,253.69477100505173
946,260.49491958928047
947,256.46103144117296
948,241.7532638695884
949,216.60177348952493
950,182.45671622139162
951,142.1482472903699
952,98.61652122572559
953,55.67169186018509
954,21.573912329309678
955,5.883335070871908
956,17.79011182427712
957,53.974393629976475
958,96.03633082891065
959,124.70607306196871
960,125.16376926945486
961,105.25956769057848
962,79.99361586294981
963,64.10606062211446
964,62.397048101081964
965,67.26672372986286
966,70.39523223505421
967,65.23271763940647
968,54.68932326144568
969,44.75519171504129
970,41.270464909084694
971,44.61528404710407
972,48.319789626913916
973,45.50412144031907
974,30.65841857277701
975,5.622819403126414
976,-25.362538396730088
977,-58.02751786205772
978,-87.23198273555681
979,-106.66579746759999
980,-109.97882721644783
981,-93.11093784847435
982,-63.96199593832898
983,-34.20186876914704
984,-15.300424332694092
985,-12.607531329529593
986,-23.993059169128173
987,-46.856877970014466
988,-78.09885855986067
989,-112.17887247559156
990,-142.79679196345205
991,-163.71248997907605
992,-171.59584018754867
993,-166.40671696342724
994,-148.32499539077617
995,-118.25055126317966
996,-80.55326108373265
997,-40.57300206502077
998,-3.619652129100359
999,26.016910092548642
1000,45.2068052590821
1001,50.860153320354584
1002,41.467073517018434
1003,22.227684380599385
1004,0.07210373362249811
1005,-18.069551310276438
1006,-27.37716434620961
1007,-28.47061967789341
1008,-22.75980231747235
1009,-12.214597985375804
1010,-4.474893110096673
1011,-10.490574828021636
1012,-41.171530983194316
1013,-95.8376501271141
1014,-151.01882151847713
1015,-180.52493512295223
1016,-162.72588161289423
1017,-110.15155236708233
1018,-50.85183947044243
1019,-12.736635713736177
1020,-7.865834593252657
1021,-24.679330310485966
1022,-49.67701777181901
1023,-70.80879258814457
1024,-83.89455107453796
1025,-87.4141902498668
1026,-79.87760783642807
1027,-62.12470225953439
1028,-37.485372647126496
1029,-9.429518829347217
1030,18.072958661878147
1031,39.31215859328586
1032,48.118179030725514
1033,39.01111733961807
1034,16.941070185434
1035,-5.011866465836647
1036,-13.557597347171395
1037,-2.246027890018013
1038,18.43293577622171
1039,35.419386824723915
1040,37.23341773178072
1041,26.965120277349342
1042,15.414585545608134
1043,13.361903925537263
1044,24.227165111498834
1045,39.500458103819255
1046,49.531871209406745
1047,47.28149204235888
1048,39.719407524578855
1049,38.58570388642511
1050,55.170466667343135
1051,89.47378071653111
1052,129.61573019359275
1053,163.16639856922302
1054,179.1458686258975
1055,171.37422245855123
1056,134.6115414752985
1057,65.44790639814528
1058,-18.03660273628884
1059,-83.75190657603707
1060,-99.50792645302863
1061,-55.384584382347384
1062,16.22819693854035
1063,78.20049413055676
1064,99.1723831337913
1065,83.50393920831084
1066,49.195236934936474
1067,14.096350216077553
1068,-9.282647723459377
1069,-14.351684335635582
1070,5.169312251662632
1071,50.52041323546291
1072,106.46168913856854
1073,154.35320981044606
1074,177.08504442805497
1075,175.27726149678165
1076,160.74992885130632
1077,145.39311365651156
1078,135.65688240839518
1079,128.33130093498403
1080,119.28643439728148
1081,105.56234729018252
1082,90.68910344343749
1083,80.30676602258791
1084,79.77539752995472
1085,87.86505980559741
1086,97.23581402827767
1087,100.28772071648564
1088,92.85083972939901
1089,79.56523026791729
1090,66.47095087565685
1091,59.1980594399829
1092,60.08661319302519
1093,69.93666871274036
1094,89.33828192392684
1095,113.06150809931205
1096,128.35640186057935
1097,121.99301717946219
1098,85.38140737882532
1099,26.25162513371106
1100,-44.04627752751003
1101,-114.01224922208894
1102,-170.75623921176157
1103,-200.488197401648
1104,-189.58807433911898
1105,-138.97582121266532
1106,-72.77138985077727
1107,-17.23473272076808
1108,7.284197072347524
1109,6.7354457870333135
1110,-5.660940953603131
1111,-17.48491816065689
1112,-28.196441478206907
1113,-46.105467182156644
1114,-79.62195217902809
1115,-128.49585400475735
1116,-176.3471308234948
1117,-205.0057414263665
1118,-201.0616452302802
1119,-175.3548022766663
1120,-146.40517323026324
1121,-131.88271937785066
1122,-135.24740262703017
1123,-148.33918550493217
1124,-162.6980311569714
1125,-171.64390334558993
1126,-171.9867664489484
1127,-160.96658545965693
1128,-138.17332598349458
1129,-115.60695423809739
1130,-109.41743705167028
1131,-134.52474186166728
1132,-186.1388367134732
1133,-243.25969025910126
1134,-284.4872717558337
1135,-298.37155106492355
1136,-292.90249865023
1137,-278.3000855768769
1138,-262.8242835099081
1139,-244.67506471292472
1140,-218.93240204671747
1141,-181.6662689679033
1142,-143.15663952754767
1143,-124.59348836978279
1144,-147.19679073041152
1145,-212.42652243553312
1146,-287.08265990013024
1147,-334.4251801266673
1148,-327.7240607036856
1149,-283.7092798043741
1150,-230.88081618517208
1151,-195.87864918431478
1152,-183.13275872042504
1153,-182.66312529106654
1154,-184.26972997128905
1155,-181.39255441220666
1156,-172.6615808395236
1157,-157.1867920520781
1158,-135.6481714203892
1159,-114.40570288517483
1160,-100.95937095589034
1161,-101.95916070923522
1162,-116.49505778768435
1163,-139.80704839798454
1164,-167.03511930966852
1165,-192.35925785355357
1166,-208.80945192023864
1167,-209.36568995859307
1168,-192.30796097424354
1169,-169.00625452805434
1170,-152.79056073460924
1171,-154.28087026067806
1172,-168.10717432368438
1173,-183.09946469016904
1174,-188.4977336742486
1175,-180.0019741360702
1176,-158.41217948025405
1177,-124.78834365434523
1178,-85.97046114725163
1179,-58.49852698767063
1180,-59.85253674253909
1181,-99.06248651544047
1182,-153.98837294503392
1183,-195.29019320347834
1184,-196.8779449948379
1185,-161.34162655349792
1186,-105.98123664256127
1187,-48.07677455226258
1188,-0.9482400983561092
1189,26.27436637950086
1190,24.721044019332112
1191,-5.428208561517749
1192,-44.25339326478024
1193,-69.21451250962309
1194,-63.661569231033354
1195,-38.804566878196056
1196,-14.153509412835774
1197,-7.58840130759927
1198,-19.10924754440566
1199,-37.62605361279384
1200,-52.03882550828166
1201,-57.30756973070493
1202,-55.822293282566534
1203,-50.44300366737116
1204,-45.14970888796597
1205,-46.66241744486797
1206,-62.14113833458396
1207,-95.19588104795366
1208,-131.00665556845343
1209,-148.82347237053182
1210,-130.01634241790453
1211,-81.08527716188473
1212,-24.77028853967022
1213,16.258611027338702
1214,32.03140863524095
1215,28.238090899330928
1216,11.518643955821972
1217,-10.796946536462201
1218,-29.778695394370516
1219,-36.25661790870072
1220,-23.420729842497167
1221,4.308952570687325
1222,39.092412628500824
1223,72.60963316152811
1224,91.17059653503202
1225,77.98528465066192
1226,17.42367894820927
1227,-74.35423959266336
1228,-147.04849045066112
1229,-148.8690935611412
1230,-64.04606931433591
1231,52.10056144637747
1232,135.89077742623886
1233,142.30455688087022
1234,97.2518776180168
1235,43.41271699932986
1236,18.66705194210772
1237,24.854858921087725
1238,47.45611397020184
1239,72.46079268434733
1240,94.7388702211756
1241,116.49032130285923
1242,140.08512021787647
1243,166.48324082278486
1244,194.63465654402535
1245,223.32934037969608
1246,249.74726490135254
1247,266.98840225578533
1248,267.492724166832
1249,246.7602019371643
1250,214.9208064500981
1251,186.43450817138
1252,174.17127715101014
1253,176.3710830250402
1254,183.49389501737824
1255,186.3296819416064
1256,184.17841220279843
1257,184.07005379932707
1258,193.21457432468924
1259,211.68194096932166
1260,228.63212052242125
1261,232.27507937377777
1262,216.5707835155954
1263,190.51919854432163
1264,165.6402896624786
1265,152.84402168049564
1266,160.37035901854324
1267,195.67926570837335
1268,263.14070539515706
1269,341.1246413393146
1270,395.011036418382
1271,392.22985312882884
1272,336.3710535879218
1273,260.74459953556834
1274,199.15045233616547
1275,169.11857298045288
1276,166.68892208736725
1277,186.40145990589554
1278,220.1161463169392
1279,253.94294083515888
1280,273.2618026108521
1281,268.4526904318027
1282,247.72556272515976
1283,223.29037755928402
1284,205.64709264562407
1285,195.02566534060497
1286,187.90605264745864
1287,181.1382112181327
1288,175.8920973551467
1289,175.89766701347253
1290,184.50487580241133
1291,197.54367898746568
1292,203.85403149223748
1293,192.34588790028465
1294,166.9592024570302
1295,152.83392907162488
1296,176.6000213188454
1297,245.43743244098187
1298,324.3961153497203
1299,372.99602262804
1300,363.83710653210073
1301,313.829318993141
1302,249.33261161936025
1303,194.17693569783478
1304,158.8722421963921
1305,149.41848176553867
1306,170.24560474032296
1307,212.07356114226423
1308,258.59230068125
1309,294.2017727574257
1310,314.3119264631241
1311,322.7027105847483
1312,323.2740736046908
1313,317.9859637032405
1314,306.7283287604878
1315,289.3011163582414
1316,268.8742737819466
1317,253.92774802257554
1318,253.4014857785678
1319,270.98543345773396
1320,298.29953717916214
1321,325.27374277516356
1322,344.09799579316314
1323,354.62224149763097
1324,358.3164248720095
1325,355.8904906206244
1326,344.02438317061933
1327,318.1880466738621
1328,276.0314250088977
1329,231.43446178284285
1330,205.54710033333686
1331,216.89928373046496
1332,253.7709547786726
1333,285.42205601871865
1334,282.492529729594
1335,246.02231793044848
1336,203.33136238254338
1337,181.98960459115915
1338,190.1669858075511
1339,213.3034470308794
1340,235.64892901014537
1341,249.12337224612202
1342,257.7867169933015
1343,266.75890326184344
1344,277.36987081948973
1345,282.83955919352775
1346,275.3879076727262
1347,253.10485530927144
1348,231.220340920725
1349,228.09430309195523
1350,255.26668017708835
1351,297.35741030145255
1352,332.34643136353407
1353,342.17368103691115
1354,330.0690967722112
1355,306.3426157990616
1356,280.40417512803106
1357,254.77371155259607
1358,228.9611616510756
1359,202.77646178859868
1360,179.21954811905198
1361,163.10035658702327
1362,158.90882292977767
1363,166.2948826791926
1364,181.37847116373814
1365,200.2995235104081
1366,221.52797464668947
1367,245.6737593025373
1368,273.1668120122995
1369,297.1070671167072
1370,302.1744587648227
1371,273.0089209160087
1372,215.45038734187438
1373,165.48879162825506
1374,161.12406717717386
1375,210.28614720880068
1376,268.1749647634151
1377,284.7804527033786
1378,237.21254371510804
1379,161.1711703110268
1380,100.00626483153064
1381,82.38775944698318
1382,98.00558615966474
1383,130.1996768057379
1384,165.22996305723245
1385,198.986376424009
1386,229.2588482557312
1387,252.7673097438419
1388,261.8616919235392
1389,247.7919256757359
1390,207.18794172905837
1391,162.12967066179408
1392,142.29704290389782
1393,169.4499887389411
1394,220.18843830610422
1395,255.122321602159
1396,242.22156848343366
1397,199.96610866779702
1398,167.82587173665524
1399,179.19078713690942
1400,217.69078418294703
1401,242.87579205862494
1402,219.22573981925416
1403,159.7205563935786
1404,104.22017058576239
1405,89.15451107738045
1406,109.04350642939062
1407,132.04708508413387
1408,128.40517536731204
1409,101.61770548998174
1410,78.71460355054114
1411,85.46579753672268
1412,120.42121532757119
1413,160.77078469545086
1414,184.0744333080238
1415,186.02208873024756
1416,177.9736784263696
1417,171.53912976192078
1418,172.2583700057039
1419,179.90132633179383
1420,193.9279258215356
1421,211.82809546553472
1422,229.01176216565727
1423,241.06885273702756
1424,250.38929391003512
1425,266.9030123323155
1426,300.47993457077064
1427,346.8599871135593
1428,385.01309637210034
1429,393.57918868307206
1430,374.1481903104286
1431,357.1500274473856
1432,374.23462621844374
1433,432.25191268138224
1434,505.3918128292644
1435,565.8942525924613
1436,597.949157840636
1437,602.1864543847769
1438,580.6260679791922
1439,543.5279243235182
1440,512.9319490647486
1441,511.33806779923
1442,539.5462060746886
1443,566.6762893922278
1444,559.9782432083593
1445,518.9219929370174
1446,490.6974639515611
1447,525.5545815868154
1448,627.8632711410664
1449,733.3734578780968
1450,773.0550670292105
1451,724.748023795235
1452,636.3922533485584
1453,561.1676808351567
1454,523.1442313766001
1455,503.1818300721043
1456,478.9404020005277
1457,445.0998722224231
1458,421.2301657820626
1459,428.43120770944915
1460,467.4729230223729
1461,510.0952367284244
1462,526.2080738270361
1463,504.0213593115077
1464,457.0550181710569
1465,400.57897539284386
1466,345.1431559640023
1467,295.0174848736933
1468,253.95188711513583
1469,222.6062876876531
1470,197.69061159870398
1471,175.67478386593393
1472,153.51872951921905
1473,128.84237360271254
1474,99.58564117688184
1475,73.55845732056696
1476,69.63074713302922
1477,105.88243573599175
1478,166.3234482757034
1479,199.26370992497868
1480,154.0231458852686
1481,39.07168138869565
1482,-79.89075829987632
1483,-137.57424788077878
1484,-120.88886201749665
1485,-63.08467533459407
1486,1.5282375843435148
1487,47.30980219878256
1488,55.65994401327771
1489,10.828588579577627
1490,-65.92433850133784
1491,-126.48891157717844
1492,-127.19520494226344
1493,-84.01329283546329
1494,-51.613249438118146
1495,-78.81514887197227
1496,-149.0690651970781
1497,-208.27507240972955
1498,-208.66324444039128
1499,-160.25365515160047
1500,-102.08637833589819
1501,-68.77148771372231
1502,-61.229056931355444
1503,-65.6891595588022
1504,-70.15186908771284
1505,-73.47725892931157
1506,-78.59540241226387
1507,-87.81637278062044
1508,-100.33024319168726
1509,-114.32708671395449
1510,-126.646976324977
1511,-128.38998490928498
1512,-109.14618525627156
1513,-65.8056500580933
1514,-20.64845190755659
1515,-1.4546632960118586
1516,-22.73435661123949
1517,-60.917604135343936
1518,-85.65447804263022
1519,-78.41505039748336
1520,-48.32939315226395
1521,-8.45757814517492
1522,28.540322901861146
1523,50.93423838532544
1524,47.25409682222016
1525,18.429826852223414
1526,-15.228642760210278
1527,-32.31138312368785
1528,-32.78846521776359
1529,-43.769959890787504
1530,-92.61593785777404
1531,-169.65646969824957
1532,-227.35162585411672
1533,-219.6914766275022
1534,-155.98609217860576
1535,-90.96554252356145
1536,-76.06989753226117
1537,-107.14922692621803
1538,-143.78360027640701
1539,-149.0830870010759
1540,-121.93775636362807
1541,-79.51767747041231
1542,-38.502919268585174
1543,-11.57355054391519
1544,-9.83963991863493
1545,-38.741255849245135
1546,-76.79846662434284
1547,-94.51134036244184
1548,-74.65994500978013
1549,-43.154348338151976
1550,-35.47461794268747
1551,-70.03082123969943
1552,-120.80302546445637
1553,-154.6212976689967
1554,-152.08570471993335
1555,-120.4463132962428
1556,-70.18318988706415
1557,-18.18640078948374
1558,9.293987893666781
1559,-13.432089743966571
1560,-77.5346994100455
1561,-136.6939066113191
1562,-145.44977665139777
1563,-102.85237462852638
1564,-43.821765433369364
1565,-1.8280137467481836
1566,15.518815962568624
1567,15.868659440107876
1568,6.601452647961196
1569,-8.212868233023983
1570,-25.934366800931457
1571,-44.36310643057186
1572,-63.47915027121053
1573,-83.91256124430947
1574,-102.28340204126289
1575,-102.1717351211355
1576,-64.57762270839521
1577,7.938873209366648
1578,64.27769088369314
1579,47.44876880756601
1580,-50.147954282336286
1581,-158.45253940332805
1582,-202.69904732444957
1583,-167.5745385641676
1584,-103.29407338806232
1585,-60.53071180654479
1586,-45.42551357254524
1587,-29.908538179213792
1588,9.900155142408039
1589,51.6805074256863
1590,48.69245997073085
1591,-32.03404565329947
1592,-143.69106760585237
1593,-211.23366377266575
1594,-184.8208917634256
1595,-107.04480890941886
1596,-41.58547226120754
1597,-26.11393858626616
1598,-36.54126436664046
1599,-40.17750579657513
1600,-25.562718780181967
1601,-14.356958929060056
1602,-29.980281559912328
1603,-67.25574169220272
1604,-91.29539404575735
1605,-69.47229303839958
1606,-15.97549278354927
1607,22.82495291216219
1608,9.065990551276627
1609,-28.202433052081687
1610,-30.11037076980392
1611,42.9921248426017
1612,145.2550015484485
1613,207.2282074322502
1614,191.6316909021716
1615,148.1854006924459
1616,140.579285865806
1617,188.72329581591657
1618,238.62738026982333
1619,231.11148929039337
1620,157.78557327876297
1621,64.67958297679434
1622,-1.6805305304569629
1623,-22.048815812278917
1624,4.362678910156319
1625,74.66390576627964
1626,163.41681723859801
1627,235.73936616518586
1628,266.87150574217776
1629,271.81318952625224
1630,275.26437143714975
1631,290.00500576016384
1632,301.42504714866664
1633,291.5144506266133
1634,260.91317159107166
1635,235.98116581475733
1636,243.12838944854957
1637,275.68479902404397
1638,299.12035145609843
1639,283.98500404537117
1640,251.3087144808942
1641,247.61144084261832
1642,303.8031416039812
1643,377.623775634509
1644,405.7433022023488
1645,359.54168097689035
1646,299.70887203134953
1647,300.09483584534246
1648,376.0595333075289
1649,456.3129257181772
1650,466.63497479181206
1651,408.55564265981957
1652,349.5448918730781
1653,350.7926854045854
1654,401.4189866521192
1655,454.3037594408506
1656,472.1769680260222
1657,462.41857709559554
1658,444.65855177291996
1659,429.42685761939356
1660,405.7234606371603
1661,359.9583272717773
1662,298.96142441491247
1663,256.58271940703344
1664,265.472180040133
1665,314.53977456041684
1666,359.965471671032
1667,363.2692405347934
1668,327.33105077690016
1669,271.96087248770164
1670,217.04067622541334
1671,182.31743301888673
1672,187.34011437035952
1673,232.500692258227
1674,283.8691391398188
1675,305.08642795415835
1676,285.5815321247901
1677,240.1104255625287
1678,184.43308266829627
1679,133.8904783359103
1680,103.60758795491711
1681,101.78338741339758
1682,106.55785310082138
1683,88.00196191086616
1684,35.972691244278394
1685,-16.7109809882877
1686,-32.62307636338301
1687,-6.139615941921875
1688,32.060379733720765
1689,50.72889064257106
1690,34.24289728797521
1691,-23.62261929952001
1692,-120.90867755924955
1693,-216.74329539751125
1694,-258.55349018464585
1695,-225.13627875209568
1696,-168.48267738946925
1697,-149.66570184158627
1698,-184.46636730552746
1699,-234.97368842766082
1700,-262.29167930066797
1701,-251.20235346056324
1702,-200.90472388369926
1703,-116.54780298377045
1704,-30.469602608796777
1705,17.02386596188262
1706,7.3995920206489245
1707,-29.625434565376054
1708,-58.6782233512713
1709,-68.12878331128195
1710,-72.40112283573399
1711,-85.33024972799103
1712,-102.60817120135471
1713,-109.99989387598362
1714,-97.66542377579572
1715,-74.00076632536911
1716,-52.03692634680738
1717,-43.76490805664071
1718,-59.199715062664836
1719,-106.67135036081527
1720,-165.44981633201496
1721,-188.46411473899389
1722,-138.79324672314397
1723,-58.77021280131521
1724,-25.044012862630552
1725,-80.53264616529304
1726,-164.47011133337037
1727,-197.42640635356838
1728,-154.0595285720101
1729,-84.90647469099349
1730,-42.24724076573875
1731,-29.43582220112694
1732,-17.21621374843926
1733,14.46559049793359
1734,38.62959710377254
1735,14.420813298344001
1736,-65.01875302230837
1737,-136.55909329202768
1738,-131.7101982712229
1739,-52.69205804351077
1740,31.201337987620718
1741,56.941001102177324
1742,25.304943267037743
1743,-35.46882286066284
1744,-96.40028393014654
1745,-126.82942589356753
1746,-96.81923400262349
1747,-15.800692805098151
1748,57.03821385855008
1749,65.66250285865317
1750,17.836191779797446
1751,-42.293701075715944
1752,-78.70315668438707
1753,-88.0891552980138
1754,-74.96367644020029
1755,-48.01169890282108
1756,-22.511200742517758
1757,-12.972159277136598
1758,-15.753551082185368
1759,-14.471351987278467
1760,1.8784629274487088
1761,17.748919334921084
1762,9.981043664722165
1763,-27.442136893296265
1764,-68.39959438538972
1765,-85.33530009028982
1766,-85.3092245155658
1767,-103.38233739394673
1768,-163.63760767967142
1769,-226.5500035447967
1770,-231.51049237550797
1771,-156.54804076840446
1772,-60.112614526786274
1773,-7.6981786569213
1774,-8.175697364305961
1775,-20.91513404989564
1776,-11.585451306349569
1777,8.080389085760544
1778,9.97842616174421
1779,-16.723300223400656
1780,-45.50074939118167
1781,-46.07087983574456
1782,-10.239649220058709
1783,50.59198562795609
1784,120.64006871929996
1785,163.26464490777835
1786,134.59275989391062
1787,30.233460228824697
1788,-71.22420668179802
1789,-85.71219257379926
1790,-19.286448320572163
1791,45.59707607087876
1792,42.1494314639458
1793,-0.08233040360209998
1794,-20.079156915613567
1795,10.511005426476913
1796,57.322211007673104
1797,80.89651510348085
1798,72.24197388394714
1799,45.5346444177776
1800,16.549584676386075
