,"Scan 00853"
"400","8911.215"
"401","8934.819"
"402","8977.316"
"403","9038.289"
"404","9117.322"
"405","9213.188"
"406","9317.589"
"407","9418.686"
"408","9504.701"
"409","9564.474"
"410","9593.809"
"411","9593.37"
"412","9563.915"
"413","9506.411"
"414","9426.314"
"415","9333.26"
"416","9236.977"
"417","9146.988"
"418","9068.099"
"419","8999.321"
"420","8939.316"
"421","8886.762"
"422","8840.813"
"423","8801.404"
"424","8768.529"
"425","8742.181"
"426","8720.539"
"427","8698.023"
"428","8668.61"
"429","8626.332"
"430","8570.45"
"431","8514.277"
"432","8473.384"
"433","8463.229"
"434","8491.762"
"435","8541.215"
"436","8588.391"
"437","8610.256"
"438","8590.995"
"439","8545.891"
"440","8498.617"
"441","8472.691"
"442","8485.972"
"443","8526.104"
"444","8570.557"
"445","8596.944"
"446","8586.719"
"447","8546.414"
"448","8492.874"
"449","8442.859"
"450","8411.27"
"451","8398.432"
"452","8397.516"
"453","8401.688"
"454","8404.333"
"455","8400.64"
"456","8386.848"
"457","8359.228"
"458","8314.972"
"459","8262.092"
"460","8215.725"
"461","8191.041"
"462","8201.695"
"463","8240.874"
"464","8286.481"
"465","8316.196"
"466","8309.172"
"467","8267.427"
"468","8212.021"
"469","8164.459"
"470","8145.168"
"471","8155.545"
"472","8179.591"
"473","8200.759"
"474","8203.274"
"475","8186.797"
"476","8166.271"
"477","8157.213"
"478","8174.43"
"479","8216.725"
"480","8265.964"
"481","8303.302"
"482","8310.522"
"483","8284.483"
"484","8238.854"
"485","8188.108"
"486","8146.332"
"487","8118.008"
"488","8096.472"
"489","8074.481"
"490","8045.04"
"491","8008.108"
"492","7971.929"
"493","7945.186"
"494","7936.2"
"495","7942.764"
"496","7949.978"
"497","7942.268"
"498","7904.633"
"499","7838.274"
"500","7763.897"
"501","7703.26"
"502","7677.401"
"503","7688.064"
"504","7714.107"
"505","7733.175"
"506","7723.606"
"507","7681.151"
"508","7621.637"
"509","7561.915"
"510","7518.33"
"511","7495.519"
"512","7485.186"
"513","7478.402"
"514","7466.563"
"515","7447.992"
"516","7428.26"
"517","7413.25"
"518","7408.596"
"519","7415.17"
"520","7429.177"
"521","7446.645"
"522","7463.704"
"523","7477.998"
"524","7488.529"
"525","7494.356"
"526","7494.562"
"527","7488.615"
"528","7476.291"
"529","7457.377"
"530","7431.8"
"531","7401.444"
"532","7369.625"
"533","7339.676"
"534","7314.671"
"535","7294.826"
"536","7278.495"
"537","7264.014"
"538","7249.918"
"539","7236.649"
"540","7225.727"
"541","7218.675"
"542","7216.568"
"543","7216.878"
"544","7215.338"
"545","7207.689"
"546","7190.45"
"547","7165.179"
"548","7135.499"
"549","7105.014"
"550","7077.074"
"551","7053.698"
"552","7036.453"
"553","7026.895"
"554","7025.99"
"555","7032.122"
"556","7042.981"
"557","7056.265"
"558","7070.075"
"559","7083.881"
"560","7097.456"
"561","7110.572"
"562","7122.239"
"563","7129.376"
"564","7128.557"
"565","7116.395"
"566","7093.408"
"567","7068.516"
"568","7051.689"
"569","7052.738"
"570","7073.024"
"571","7099.753"
"572","7118.841"
"573","7116.512"
"574","7089.029"
"575","7045.677"
"576","6996.568"
"577","6951.555"
"578","6915.416"
"579","6887.854"
"580","6868.362"
"581","6856.437"
"582","6851.701"
"583","6853.872"
"584","6862.668"
"585","6877.705"
"586","6897.511"
"587","6920.013"
"588","6943.138"
"589","6964.61"
"590","6980.73"
"591","6987.229"
"592","6979.849"
"593","6956.35"
"594","6923.831"
"595","6892.085"
"596","6870.861"
"597","6867.398"
"598","6880.948"
"599","6909.172"
"600","6949.721"
"601","6996.732"
"602","7036.539"
"603","7054.477"
"604","7036.185"
"605","6981.736"
"606","6913.339"
"607","6855.014"
"608","6829.962"
"609","6842.545"
"610","6877.042"
"611","6916.807"
"612","6945.972"
"613","6958.668"
"614","6956.366"
"615","6940.697"
"616","6913.86"
"617","6882.784"
"618","6856.715"
"619","6844.883"
"620","6853.565"
"621","6874.042"
"622","6892.831"
"623","6896.5"
"624","6877.123"
"625","6844.302"
"626","6811.113"
"627","6790.533"
"628","6789.536"
"629","6803.024"
"630","6824.464"
"631","6847.463"
"632","6870.123"
"633","6896.327"
"634","6930.335"
"635","6975.732"
"636","7025.092"
"637","7061.916"
"638","7069.487"
"639","7034.159"
"640","6968.757"
"641","6899.763"
"642","6853.679"
"643","6850.431"
"644","6877.537"
"645","6912.518"
"646","6932.981"
"647","6924.631"
"648","6896.279"
"649","6860.822"
"650","6831.044"
"651","6814.415"
"652","6809.439"
"653","6813.761"
"654","6825.044"
"655","6841.299"
"656","6860.877"
"657","6882.151"
"658","6903.476"
"659","6922.99"
"660","6938.708"
"661","6948.64"
"662","6951.108"
"663","6946.102"
"664","6934.181"
"665","6915.903"
"666","6892.49"
"667","6867.116"
"668","6843.317"
"669","6824.609"
"670","6814.231"
"671","6814.946"
"672","6829.482"
"673","6860.184"
"674","6901.936"
"675","6942.672"
"676","6970.095"
"677","6973.935"
"678","6961.597"
"679","6949.643"
"680","6954.672"
"681","6988.469"
"682","7041.915"
"683","7100.206"
"684","7148.603"
"685","7176.898"
"686","7185.003"
"687","7174.201"
"688","7145.882"
"689","7105.12"
"690","7061.392"
"691","7024.413"
"692","7003.012"
"693","6996.049"
"694","6996.001"
"695","6995.25"
"696","6987.436"
"697","6972.713"
"698","6953.363"
"699","6931.667"
"700","6910.731"
"701","6895.781"
"702","6892.354"
"703","6905.736"
"704","6932.095"
"705","6955.917"
"706","6960.958"
"707","6933.016"
"708","6881.954"
"709","6833.46"
"710","6813.449"
"711","6840.544"
"712","6896.188"
"713","6949.953"
"714","6971.527"
"715","6946.145"
"716","6895.696"
"717","6847.326"
"718","6827.459"
"719","6842.436"
"720","6875.501"
"721","6908.655"
"722","6925.234"
"723","6921.355"
"724","6900.322"
"725","6865.516"
"726","6822.364"
"727","6784.703"
"728","6768.507"
"729","6789.575"
"730","6849.273"
"731","6922.478"
"732","6981.273"
"733","6999.236"
"734","6976.154"
"735","6934.574"
"736","6897.774"
"737","6885.555"
"738","6895.375"
"739","6915.776"
"740","6935.307"
"741","6946.388"
"742","6951.909"
"743","6956.499"
"744","6964.697"
"745","6977.917"
"746","6993.798"
"747","7009.764"
"748","7023.287"
"749","7032.354"
"750","7035.224"
"751","7030.164"
"752","7016.916"
"753","7000.606"
"754","6987.585"
"755","6984.13"
"756","6992.543"
"757","7009.042"
"758","7029.325"
"759","7049.389"
"760","7068.836"
"761","7089.698"
"762","7114.054"
"763","7141.891"
"764","7163.852"
"765","7167.982"
"766","7142.492"
"767","7088.328"
"768","7029.071"
"769","6990.601"
"770","6996.87"
"771","7044.114"
"772","7107.568"
"773","7161.966"
"774","7187.429"
"775","7190.323"
"776","7185.023"
"777","7185.828"
"778","7200.364"
"779","7223.775"
"780","7249.852"
"781","7272.515"
"782","7287.753"
"783","7293.146"
"784","7286.317"
"785","7266.561"
"786","7241.249"
"787","7220.188"
"788","7213.1"
"789","7223.246"
"790","7242.297"
"791","7260.728"
"792","7269.667"
"793","7268.946"
"794","7264.657"
"795","7263.028"
"796","7268.87"
"797","7280.949"
"798","7296.408"
"799","7312.414"
"800","7327.849"
"801","7344.258"
"802","7363.43"
"803","7386.741"
"804","7411.236"
"805","7431.311"
"806","7441.333"
"807","7438.496"
"808","7429.768"
"809","7424.226"
"810","7430.68"
"811","7448.583"
"812","7465.659"
"813","7468.901"
"814","7447.906"
"815","7412.578"
"816","7382.381"
"817","7376.79"
"818","7404.146"
"819","7444.601"
"820","7473.911"
"821","7469.044"
"822","7430.73"
"823","7381.604"
"824","7345.111"
"825","7339.97"
"826","7360.269"
"827","7392.068"
"828","7421.504"
"829","7440.535"
"830","7451.119"
"831","7456.208"
"832","7458.683"
"833","7460.723"
"834","7464.068"
"835","7470.453"
"836","7480.674"
"837","7492.506"
"838","7503.11"
"839","7509.713"
"840","7510.953"
"841","7507.022"
"842","7498.191"
"843","7485.184"
"844","7471.49"
"845","7461.62"
"846","7460.069"
"847","7469.449"
"848","7488.856"
"849","7517.009"
"850","7552.275"
"851","7588.996"
"852","7618.941"
"853","7633.848"
"854","7629.153"
"855","7611.987"
"856","7591.779"
"857","7577.722"
"858","7573.466"
"859","7576.996"
"860","7586.035"
"861","7599.047"
"862","7618.39"
"863","7647.702"
"864","7690.493"
"865","7741.813"
"866","7783.335"
"867","7795.55"
"868","7762.358"
"869","7697.452"
"870","7629.936"
"871","7589.003"
"872","7591.731"
"873","7626.113"
"874","7675.867"
"875","7725.239"
"876","7766.16"
"877","7796.434"
"878","7814.01"
"879","7817.96"
"880","7811.353"
"881","7798.16"
"882","7782.332"
"883","7767.416"
"884","7756.514"
"885","7752.702"
"886","7758.561"
"887","7774.063"
"888","7798.331"
"889","7830.45"
"890","7867.475"
"891","7903.492"
"892","7932.345"
"893","7948.744"
"894","7953.774"
"895","7951.384"
"896","7945.533"
"897","7940.115"
"898","7938.9"
"899","7945.644"
"900","7963.432"
"901","7988.525"
"902","8013.171"
"903","8029.576"
"904","8032.541"
"905","8023.409"
"906","8004.531"
"907","7978.547"
"908","7952.167"
"909","7935.091"
"910","7937.087"
"911","7963.422"
"912","8005.141"
"913","8050.492"
"914","8088.125"
"915","8114.317"
"916","8132.127"
"917","8144.85"
"918","8154.419"
"919","8157.536"
"920","8149.652"
"921","8126.585"
"922","8093.366"
"923","8064.583"
"924","8055.267"
"925","8075.985"
"926","8117.194"
"927","8163.711"
"928","8200.631"
"929","8222.072"
"930","8232.736"
"931","8237.922"
"932","8241.704"
"933","8241.942"
"934","8234.518"
"935","8215.516"
"936","8188.709"
"937","8167.709"
"938","8166.779"
"939","8195.859"
"940","8241.018"
"941","8280.106"
"942","8291.366"
"943","8269.993"
"944","8234.188"
"945","8203.798"
"946","8194.932"
"947","8202.046"
"948","8211.803"
"949","8211.066"
"950","8196.165"
"951","8176.612"
"952","8162.891"
"953","8163.363"
"954","8173.941"
"955","8186.019"
"956","8191.13"
"957","8187.46"
"958","8182.374"
"959","8183.909"
"960","8198.021"
"961","8218.763"
"962","8235.979"
"963","8239.694"
"964","8227.74"
"965","8208.302"
"966","8190.292"
"967","8181.289"
"968","8181.729"
"969","8189.676"
"970","8203.165"
"971","8219.474"
"972","8234.933"
"973","8245.82"
"974","8249.219"
"975","8246.164"
"976","8238.886"
"977","8229.635"
"978","8221.235"
"979","8217.152"
"980","8220.885"
"981","8234.659"
"982","8255.268"
"983","8278.063"
"984","8298.338"
"985","8310.191"
"986","8306.548"
"987","8280.274"
"988","8230.613"
"989","8179.745"
"990","8155.021"
"991","8181.861"
"992","8252.474"
"993","8331.201"
"994","8381.514"
"995","8381.173"
"996","8350.177"
"997","8316.299"
"998","8305.528"
"999","8320.754"
"1000","8348.854"
"1001","8376.381"
"1002","8394.25"
"1003","8403.649"
"1004","8407.247"
"1005","8407.718"
"1006","8407.59"
"1007","8408.429"
"1008","8411.401"
"1009","8417.605"
"1010","8424.757"
"1011","8425.715"
"1012","8412.962"
"1013","8382.245"
"1014","8347.065"
"1015","8326.937"
"1016","8340.722"
"1017","8386.43"
"1018","8437.554"
"1019","8466.178"
"1020","8452.963"
"1021","8414.842"
"1022","8378.333"
"1023","8368.966"
"1024","8392.163"
"1025","8434.707"
"1026","8482.667"
"1027","8524.673"
"1028","8557.428"
"1029","8579.216"
"1030","8588.812"
"1031","8591.356"
"1032","8596.467"
"1033","8613.828"
"1034","8646.647"
"1035","8683.419"
"1036","8710.594"
"1037","8716.657"
"1038","8707.54"
"1039","8698.007"
"1040","8702.74"
"1041","8725.659"
"1042","8753.482"
"1043","8771.371"
"1044","8767.563"
"1045","8747.412"
"1046","8722.169"
"1047","8702.956"
"1048","8696.712"
"1049","8705.797"
"1050","8732.342"
"1051","8775.11"
"1052","8820.979"
"1053","8854.205"
"1054","8860.384"
"1055","8843.713"
"1056","8821.884"
"1057","8812.854"
"1058","8825.49"
"1059","8848.751"
"1060","8868.949"
"1061","8874.317"
"1062","8867.529"
"1063","8857.822"
"1064","8854.387"
"1065","8862.533"
"1066","8882.37"
"1067","8913.624"
"1068","8953.923"
"1069","8991.967"
"1070","9014.104"
"1071","9007.849"
"1072","8979.779"
"1073","8951.879"
"1074","8946.544"
"1075","8973.697"
"1076","9014.162"
"1077","9044.604"
"1078","9045.131"
"1079","9022.189"
"1080","8994.353"
"1081","8979.948"
"1082","8984.782"
"1083","8998.407"
"1084","9009.285"
"1085","9008.834"
"1086","8999.823"
"1087","8987.736"
"1088","8977.74"
"1089","8970.675"
"1090","8964.323"
"1091","8956.42"
"1092","8947.085"
"1093","8941.019"
"1094","8943.453"
"1095","8958.252"
"1096","8981.35"
"1097","9005.833"
"1098","9024.876"
"1099","9033.891"
"1100","9030.501"
"1101","9012.42"
"1102","8981.093"
"1103","8947.891"
"1104","8925.827"
"1105","8926.142"
"1106","8945.753"
"1107","8974.646"
"1108","9002.828"
"1109","9022.957"
"1110","9031.023"
"1111","9023.229"
"1112","8998.59"
"1113","8965.696"
"1114","8935.173"
"1115","8916.796"
"1116","8911.636"
"1117","8915.641"
"1118","8924.714"
"1119","8935.938"
"1120","8948.163"
"1121","8960.366"
"1122","8971.236"
"1123","8978.294"
"1124","8978.772"
"1125","8970.563"
"1126","8959.399"
"1127","8956.135"
"1128","8971.57"
"1129","9006.307"
"1130","9044.705"
"1131","9069.669"
"1132","9068.523"
"1133","9047.021"
"1134","9015.714"
"1135","8984.733"
"1136","8959.042"
"1137","8940.169"
"1138","8929.606"
"1139","8930.108"
"1140","8946.417"
"1141","8983.463"
"1142","9040.847"
"1143","9097.013"
"1144","9125.124"
"1145","9101.831"
"1146","9042.54"
"1147","8986.76"
"1148","8973.83"
"1149","9015.359"
"1150","9083.186"
"1151","9146.058"
"1152","9180.892"
"1153","9192.913"
"1154","9193.466"
"1155","9192.445"
"1156","9186.477"
"1157","9165.117"
"1158","9118.421"
"1159","9054.79"
"1160","9004.646"
"1161","8999.7"
"1162","9054.812"
"1163","9138.516"
"1164","9211.446"
"1165","9240.277"
"1166","9232.799"
"1167","9213.893"
"1168","9207.473"
"1169","9216.699"
"1170","9225.569"
"1171","9217.432"
"1172","9187.369"
"1173","9154.058"
"1174","9139.009"
"1175","9157.972"
"1176","9199.719"
"1177","9245.137"
"1178","9276.579"
"1179","9293.858"
"1180","9308.19"
"1181","9330.727"
"1182","9360.758"
"1183","9381.329"
"1184","9374.305"
"1185","9333.019"
"1186","9284.777"
"1187","9263.169"
"1188","9294.978"
"1189","9360.546"
"1190","9420.839"
"1191","9438.711"
"1192","9412.841"
"1193","9373.054"
"1194","9350.053"
"1195","9359.164"
"1196","9388.595"
"1197","9423.774"
"1198","9452.227"
"1199","9469.37"
"1200","9472.476"
"1201","9459.938"
"1202","9439.663"
"1203","9424.325"
"1204","9426.148"
"1205","9445.816"
"1206","9472.526"
"1207","9494.993"
"1208","9505.834"
"1209","9505.308"
"1210","9494.555"
"1211","9475.979"
"1212","9457.075"
"1213","9446.638"
"1214","9452.277"
"1215","9471.24"
"1216","9495.414"
"1217","9516.646"
"1218","9527.088"
"1219","9519.184"
"1220","9485.5"
"1221","9430.207"
"1222","9379.167"
"1223","9360.641"
"1224","9392.532"
"1225","9454.479"
"1226","9517.284"
"1227","9554.946"
"1228","9565.743"
"1229","9559.029"
"1230","9544.25"
"1231","9531.271"
"1232","9530.319"
"1233","9551.426"
"1234","9591.994"
"1235","9630.02"
"1236","9641.851"
"1237","9615.214"
"1238","9570.42"
"1239","9533.573"
"1240","9526.243"
"1241","9544.892"
"1242","9577.366"
"1243","9611.8"
"1244","9639.785"
"1245","9655.073"
"1246","9651.882"
"1247","9636.372"
"1248","9627.829"
"1249","9646.092"
"1250","9696.121"
"1251","9754.33"
"1252","9793.885"
"1253","9796.574"
"1254","9774.054"
"1255","9744.444"
"1256","9723.848"
"1257","9715.362"
"1258","9716.975"
"1259","9726.613"
"1260","9741.658"
"1261","9759.125"
"1262","9776.127"
"1263","9792.924"
"1264","9813.376"
"1265","9841.49"
"1266","9876.222"
"1267","9906.927"
"1268","9921.877"
"1269","9913.639"
"1270","9888.759"
"1271","9856.629"
"1272","9825.812"
"1273","9800.075"
"1274","9781.503"
"1275","9772.351"
"1276","9776.653"
"1277","9799.494"
"1278","9845.113"
"1279","9899.749"
"1280","9932.651"
"1281","9912.892"
"1282","9837.112"
"1283","9743.222"
"1284","9672.489"
"1285","9650.857"
"1286","9667.442"
"1287","9705.959"
"1288","9750.721"
"1289","9788.493"
"1290","9806.623"
"1291","9796.217"
"1292","9772.858"
"1293","9761.93"
"1294","9786.11"
"1295","9837.392"
"1296","9888.551"
"1297","9913.126"
"1298","9907.196"
"1299","9888.284"
"1300","9874.571"
"1301","9874.401"
"1302","9882.042"
"1303","9890.699"
"1304","9896.699"
"1305","9903.139"
"1306","9913.991"
"1307","9931.415"
"1308","9951.557"
"1309","9969.319"
"1310","9980.598"
"1311","9986.408"
"1312","9989.401"
"1313","9991.717"
"1314","9991.323"
"1315","9984.2"
"1316","9966.854"
"1317","9942.921"
"1318","9920.996"
"1319","9909.445"
"1320","9908.928"
"1321","9912.417"
"1322","9912.71"
"1323","9909.803"
"1324","9913.818"
"1325","9935.565"
"1326","9973.849"
"1327","10003.6"
"1328","9996.912"
"1329","9942.613"
"1330","9876.968"
"1331","9844.634"
"1332","9875.816"
"1333","9941.708"
"1334","9998.452"
"1335","10012.82"
"1336","10013.85"
"1337","10053.19"
"1338","10173.82"
"1339","10345.27"
"1340","10500.18"
"1341","10575.86"
"1342","10572.33"
"1343","10532.2"
"1344","10497.35"
"1345","10478.55"
"1346","10458.44"
"1347","10418.99"
"1348","10354.46"
"1349","10273.75"
"1350","10186.6"
"1351","10103.96"
"1352","10038.57"
"1353","10003.27"
"1354","10002.09"
"1355","10021.01"
"1356","10043.79"
"1357","10057.88"
"1358","10060.64"
"1359","10051.1"
"1360","10029.41"
"1361","9999.765"
"1362","9967.249"
"1363","9936.659"
"1364","9911.458"
"1365","9894.729"
"1366","9889.142"
"1367","9894.914"
"1368","9911.35"
"1369","9936.317"
"1370","9956.624"
"1371","9953.88"
"1372","9912.531"
"1373","9846.092"
"1374","9785.015"
"1375","9758.186"
"1376","9770.498"
"1377","9809.725"
"1378","9863.276"
"1379","9918.773"
"1380","9964.024"
"1381","9987.174"
"1382","9984.754"
"1383","9961.989"
"1384","9924.632"
"1385","9882.397"
"1386","9849.893"
"1387","9841.832"
"1388","9861.991"
"1389","9898.194"
"1390","9937.036"
"1391","9968.781"
"1392","9989.995"
"1393","9997.86"
"1394","9989.704"
"1395","9963.156"
"1396","9915.916"
"1397","9855.272"
"1398","9810.802"
"1399","9815.23"
"1400","9879.115"
"1401","9953.441"
"1402","9979.27"
"1403","9923.109"
"1404","9829.99"
"1405","9760.066"
"1406","9755.415"
"1407","9794.511"
"1408","9841.85"
"1409","9869.781"
"1410","9881.964"
"1411","9889.809"
"1412","9901.564"
"1413","9911.328"
"1414","9909.264"
"1415","9889.527"
"1416","9866.03"
"1417","9858.771"
"1418","9881.691"
"1419","9915.773"
"1420","9930.837"
"1421","9903.887"
"1422","9854.534"
"1423","9818.03"
"1424","9824.442"
"1425","9870.381"
"1426","9939.27"
"1427","10013.95"
"1428","10073.58"
"1429","10095.77"
"1430","10064.27"
"1431","10007.69"
"1432","9974.463"
"1433","10005.19"
"1434","10079.49"
"1435","10148.86"
"1436","10170.71"
"1437","10151.11"
"1438","10119.39"
"1439","10102.07"
"1440","10101.34"
"1441","10107.44"
"1442","10111.29"
"1443","10110.02"
"1444","10103.85"
"1445","10093.67"
"1446","10085.85"
"1447","10089.47"
"1448","10112.05"
"1449","10147.64"
"1450","10183.52"
"1451","10207.53"
"1452","10212.88"
"1453","10195.42"
"1454","10152.68"
"1455","10095.68"
"1456","10042.07"
"1457","10007.14"
"1458","9987.413"
"1459","9970.435"
"1460","9946.126"
"1461","9922.998"
"1462","9918.091"
"1463","9943.501"
"1464","9975.167"
"1465","9973.117"
"1466","9905.944"
"1467","9801.229"
"1468","9711.134"
"1469","9678.986"
"1470","9691.13"
"1471","9711.593"
"1472","9709.879"
"1473","9688.11"
"1474","9660.289"
"1475","9639.617"
"1476","9634.837"
"1477","9653.2"
"1478","9695.386"
"1479","9729.89"
"1480","9715.336"
"1481","9627.07"
"1482","9514.447"
"1483","9447.294"
"1484","9473.097"
"1485","9550.937"
"1486","9618.042"
"1487","9628.897"
"1488","9598.472"
"1489","9554.953"
"1490","9519.963"
"1491","9494.851"
"1492","9477.083"
"1493","9465.481"
"1494","9462.457"
"1495","9471.003"
"1496","9489.313"
"1497","9504.378"
"1498","9501.662"
"1499","9476.381"
"1500","9443.356"
"1501","9419.652"
"1502","9412.171"
"1503","9410.288"
"1504","9401.784"
"1505","9382.063"
"1506","9357.783"
"1507","9336.399"
"1508","9321.192"
"1509","9310.239"
"1510","9301.411"
"1511","9295.9"
"1512","9298.409"
"1513","9313.271"
"1514","9334.982"
"1515","9349.339"
"1516","9343.296"
"1517","9324.456"
"1518","9315.568"
"1519","9336.685"
"1520","9375.458"
"1521","9400"
"1522","9383.492"
"1523","9342.854"
"1524","9316.364"
"1525","9334.891"
"1526","9381.356"
"1527","9419.995"
"1528","9425.546"
"1529","9424.494"
"1530","9459.178"
"1531","9556.73"
"1532","9686.744"
"1533","9805.192"
"1534","9880.813"
"1535","9919.492"
"1536","9933.787"
"1537","9928.768"
"1538","9892.782"
"1539","9812.14"
"1540","9692.017"
"1541","9569.984"
"1542","9486.07"
"1543","9448.941"
"1544","9425.785"
"1545","9382.25"
"1546","9315.614"
"1547","9255.236"
"1548","9229.67"
"1549","9232.955"
"1550","9232.481"
"1551","9199.147"
"1552","9146.712"
"1553","9113.854"
"1554","9132.293"
"1555","9182.473"
"1556","9222.813"
"1557","9219.805"
"1558","9180.589"
"1559","9124.871"
"1560","9071.271"
"1561","9034.518"
"1562","9028.476"
"1563","9056.897"
"1564","9098.537"
"1565","9128.453"
"1566","9133.878"
"1567","9123.49"
"1568","9108.033"
"1569","9093.015"
"1570","9077.338"
"1571","9059.413"
"1572","9036.559"
"1573","9005.092"
"1574","8962.488"
"1575","8920.038"
"1576","8897.908"
"1577","8912.791"
"1578","8954.662"
"1579","9001.602"
"1580","9033.929"
"1581","9043.085"
"1582","9023.857"
"1583","8978.692"
"1584","8934.313"
"1585","8922.14"
"1586","8952.265"
"1587","8989.875"
"1588","8995.094"
"1589","8959.486"
"1590","8919.294"
"1591","8912.492"
"1592","8940.055"
"1593","8967.323"
"1594","8961.945"
"1595","8935.828"
"1596","8929.54"
"1597","8975.396"
"1598","9044.865"
"1599","9083.582"
"1600","9054.213"
"1601","8993.076"
"1602","8956.238"
"1603","8973.577"
"1604","9004.908"
"1605","8998.88"
"1606","8940.254"
"1607","8875.161"
"1608","8854.321"
"1609","8889.442"
"1610","8949.481"
"1611","9002.313"
"1612","9030.894"
"1613","9028.798"
"1614","8993.089"
"1615","8944.664"
"1616","8914.979"
"1617","8925.921"
"1618","8958.369"
"1619","8982.292"
"1620","8980.51"
"1621","8968.369"
"1622","8966.002"
"1623","8976.941"
"1624","8979.171"
"1625","8950.053"
"1626","8900.253"
"1627","8872.131"
"1628","8903.792"
"1629","8976.829"
"1630","9039.906"
"1631","9051.364"
"1632","9025.48"
"1633","8995.739"
"1634","8986.09"
"1635","8990.741"
"1636","8998.143"
"1637","8998.465"
"1638","8984.964"
"1639","8951.806"
"1640","8908.472"
"1641","8880.751"
"1642","8892.566"
"1643","8937.636"
"1644","8990.659"
"1645","9029.181"
"1646","9049.024"
"1647","9052.55"
"1648","9041.526"
"1649","9015.854"
"1650","8975.207"
"1651","8930.675"
"1652","8913.049"
"1653","8953.116"
"1654","9036.124"
"1655","9102.251"
"1656","9096.784"
"1657","9034.113"
"1658","8967.456"
"1659","8940.383"
"1660","8947.074"
"1661","8966.709"
"1662","8981.006"
"1663","8978.208"
"1664","8947.94"
"1665","8896.997"
"1666","8855.874"
"1667","8854.556"
"1668","8888.952"
"1669","8928.882"
"1670","8946.947"
"1671","8939.24"
"1672","8911.516"
"1673","8870.155"
"1674","8823.489"
"1675","8780.253"
"1676","8748.414"
"1677","8734.579"
"1678","8744.521"
"1679","8769.624"
"1680","8787.999"
"1681","8780.052"
"1682","8749.247"
"1683","8710.307"
"1684","8676.266"
"1685","8653.346"
"1686","8646.068"
"1687","8652.084"
"1688","8655.935"
"1689","8641.278"
"1690","8605.53"
"1691","8559.765"
"1692","8515.589"
"1693","8484.044"
"1694","8475.896"
"1695","8495.893"
"1696","8525.185"
"1697","8539.202"
"1698","8524.374"
"1699","8487.796"
"1700","8439.218"
"1701","8395.926"
"1702","8382.348"
"1703","8417.113"
"1704","8470.925"
"1705","8491.837"
"1706","8449.307"
"1707","8388.082"
"1708","8368.83"
"1709","8411.645"
"1710","8470.02"
"1711","8493.763"
"1712","8474.162"
"1713","8436.053"
"1714","8402.578"
"1715","8380.037"
"1716","8368.245"
"1717","8365.518"
"1718","8366.082"
"1719","8363.676"
"1720","8359.811"
"1721","8365.97"
"1722","8391.938"
"1723","8421.899"
"1724","8424.294"
"1725","8379.802"
"1726","8324.101"
"1727","8307.775"
"1728","8349.512"
"1729","8406.631"
"1730","8431.494"
"1731","8416.032"
"1732","8387.656"
"1733","8371.387"
"1734","8367.676"
"1735","8366.938"
"1736","8362.194"
"1737","8353.758"
"1738","8343.156"
"1739","8330.8"
"1740","8315.741"
"1741","8297.793"
"1742","8284.894"
"1743","8289.514"
"1744","8316.424"
"1745","8341.371"
"1746","8333.73"
"1747","8290.573"
"1748","8252.628"
"1749","8260.743"
"1750","8305.9"
"1751","8343.957"
"1752","8340.29"
"1753","8309.227"
"1754","8279.503"
"1755","8267.929"
"1756","8268.461"
"1757","8272.86"
"1758","8279.468"
"1759","8292.106"
"1760","8312.549"
"1761","8330.115"
"1762","8329.822"
"1763","8308.377"
"1764","8288.022"
"1765","8293.149"
"1766","8322.69"
"1767","8352.068"
"1768","8359.582"
"1769","8347.139"
"1770","8325.662"
"1771","8303.473"
"1772","8282.759"
"1773","8265.005"
"1774","8255.397"
"1775","8262.688"
"1776","8290.833"
"1777","8312.311"
"1778","8287.32"
"1779","8204.673"
"1780","8120.173"
"1781","8096.732"
"1782","8143.223"
"1783","8217.425"
"1784","8277.652"
"1785","8298.22"
"1786","8259.509"
"1787","8168.134"
"1788","8088.165"
"1789","8087.508"
"1790","8162.457"
"1791","8246.804"
"1792","8282.563"
"1793","8268.083"
"1794","8220.609"
"1795","8159.226"
"1796","8106.454"
"1797","8084.198"
"1798","8098.706"
"1799","8144.385"
"1800","8209.944"
"1801","8260.069"
"1802","8253.22"
"1803","8185.795"
"1804","8114.856"
"1805","8097.114"
"1806","8124.264"
"1807","8147.867"
"1808","8135.114"
"1809","8109.741"
"1810","8107.038"
"1811","8134.861"
"1812","8166.72"
"1813","8176.983"
"1814","8164.088"
"1815","8137.779"
"1816","8108.43"
"1817","8087.772"
"1818","8086.958"
"1819","8100.598"
"1820","8107.975"
"1821","8094.007"
"1822","8076.785"
"1823","8085.127"
"1824","8124.107"
"1825","8156.936"
"1826","8145.987"
"1827","8094.418"
"1828","8031.637"
"1829","7984.601"
"1830","7970.163"
"1831","8002.016"
"1832","8061.264"
"1833","8090.798"
"1834","8043.313"
"1835","7953.367"
"1836","7889.27"
"1837","7887.417"
"1838","7916.547"
"1839","7938.623"
"1840","7942.082"
"1841","7934.965"
"1842","7925.777"
"1843","7922.982"
"1844","7934.871"
"1845","7963.08"
"1846","8000.864"
"1847","8040.018"
"1848","8066.015"
"1849","8061.64"
"1850","8022.4"
"1851","7970.891"
"1852","7932.288"
"1853","7918.945"
"1854","7933.969"
"1855","7975.967"
"1856","8028.03"
"1857","8069.912"
"1858","8088.155"
"1859","8077.122"
"1860","8035.833"
"1861","7989.119"
"1862","7971.38"
"1863","7994.676"
"1864","8030.63"
"1865","8049.539"
"1866","8052.975"
"1867","8061.159"
"1868","8082.722"
"1869","8092.847"
"1870","8062.507"
"1871","7995.322"
"1872","7924.188"
"1873","7878.191"
"1874","7864.699"
"1875","7884.851"
"1876","7928.583"
"1877","7971.181"
"1878","7989.426"
"1879","7977.318"
"1880","7936.045"
"1881","7876.356"
"1882","7826.854"
"1883","7815.798"
"1884","7846.575"
"1885","7907.857"
"1886","7980.605"
"1887","8025.902"
"1888","8004.92"
"1889","7935.408"
"1890","7881.172"
"1891","7887.012"
"1892","7921.191"
"1893","7935.368"
"1894","7917.932"
"1895","7897.176"
"1896","7897.356"
"1897","7911.407"
"1898","7922.315"
"1899","7918.554"
"1900","7896.381"
"1901","7856.074"
"1902","7821.699"
"1903","7827.132"
"1904","7878.142"
"1905","7929.584"
"1906","7935.601"
"1907","7894.065"
"1908","7826.388"
"1909","7760.368"
"1910","7737.605"
"1911","7795.875"
"1912","7902.649"
"1913","7978.85"
"1914","7975.203"
"1915","7928.09"
"1916","7887.066"
"1917","7874.758"
"1918","7892.502"
"1919","7933.594"
"1920","7966.409"
"1921","7955.589"
"1922","7897.208"
"1923","7816.292"
"1924","7738.723"
"1925","7689.195"
"1926","7690.623"
"1927","7726.853"
"1928","7740.883"
"1929","7695.382"
"1930","7650.244"
"1931","7689.89"
"1932","7811.676"
"1933","7912.085"
"1934","7905.49"
"1935","7824.624"
"1936","7738.224"
"1937","7686.3"
"1938","7672.78"
"1939","7695.49"
"1940","7731.714"
"1941","7752.421"
"1942","7753.583"
"1943","7764.27"
"1944","7807.408"
"1945","7858.07"
"1946","7875.17"
"1947","7847.022"
"1948","7802.047"
"1949","7766.553"
"1950","7737.635"
"1951","7702.286"
"1952","7661.81"
"1953","7637.17"
"1954","7645.38"
"1955","7672.469"
"1956","7693.712"
"1957","7696.153"
"1958","7682.689"
"1959","7660.876"
"1960","7657.602"
"1961","7705.139"
"1962","7785.612"
"1963","7816.5"
"1964","7736.191"
"1965","7614.32"
"1966","7560.159"
"1967","7586.925"
"1968","7591.936"
"1969","7498.39"
"1970","7385.572"
"1971","7375.088"
"1972","7478.818"
"1973","7587.651"
"1974","7610.079"
"1975","7556.021"
"1976","7462.467"
"1977","7375.345"
"1978","7349.39"
"1979","7412.603"
"1980","7493.976"
"1981","7504.917"
"1982","7448.543"
"1983","7406.633"
"1984","7434.108"
"1985","7495.004"
"1986","7537.833"
"1987","7538.881"
"1988","7494.7"
"1989","7420.387"
"1990","7376.829"
"1991","7422.272"
"1992","7508.453"
"1993","7523.038"
"1994","7422.578"
"1995","7307.365"
"1996","7281.49"
"1997","7333.243"
"1998","7394.726"
"1999","7416.405"
"2000","7379.594"
"2001","7277.956"
"2002","7163.846"
"2003","7110.555"
"2004","7134.404"
"2005","7178.713"
"2006","7196.719"
"2007","7209.556"
"2008","7255.4"
"2009","7318.951"
"2010","7332.39"
"2011","7255.16"
"2012","7145.303"
"2013","7077.883"
"2014","7076.127"
"2015","7125.126"
"2016","7195.536"
"2017","7225.837"
"2018","7160.924"
"2019","7048.792"
"2020","6992.098"
"2021","7049.396"
"2022","7203.139"
"2023","7393.781"
"2024","7354.291"
"2025","6755.233"
"2026","5784.46"
"2027","5249.311"
"2028","5715.498"
"2029","6629.896"
"2030","7194.56"
"2031","7223.012"
"2032","7035.643"
"2033","6890.224"
"2034","6839.59"
"2035","6896.341"
"2036","7000.856"
"2037","7054.05"
"2038","7028.239"
"2039","7018.002"
"2040","7103.748"
"2041","7214.132"
"2042","7227.104"
"2043","7126.528"
"2044","7013.649"
"2045","6965.667"
"2046","6953.718"
"2047","6929.084"
"2048","6887.376"
"2049","6855.555"
"2050","6853.16"
"2051","6882.575"
"2052","6938.294"
"2053","6974.172"
"2054","6928.175"
"2055","6810.506"
"2056","6724.408"
"2057","6745.18"
"2058","6810.253"
"2059","6827.911"
"2060","6792.941"
"2061","6767.387"
"2062","6785.065"
"2063","6811.671"
"2064","6809.121"
"2065","6782.067"
"2066","6754.258"
"2067","6737.72"
"2068","6729.087"
"2069","6723.994"
"2070","6718.272"
"2071","6707.739"
"2072","6687.577"
"2073","6652.55"
"2074","6606.963"
"2075","6575.172"
"2076","6578.001"
"2077","6595.423"
"2078","6591.943"
"2079","6570.231"
"2080","6576.906"
"2081","6642.209"
"2082","6733.637"
"2083","6806.413"
"2084","6825.291"
"2085","6761.508"
"2086","6634.22"
"2087","6543.618"
"2088","6568.169"
"2089","6635.123"
"2090","6629.478"
"2091","6543.383"
"2092","6464.056"
"2093","6449.183"
"2094","6476.688"
"2095","6515.53"
"2096","6556.208"
"2097","6598.514"
"2098","6631.428"
"2099","6630.883"
"2100","6584.117"
"2101","6518.606"
"2102","6468.529"
"2103","6449.502"
"2104","6465.723"
"2105","6498.262"
"2106","6492.503"
"2107","6413.594"
"2108","6327.165"
"2109","6318.471"
"2110","6357.223"
"2111","6327.18"
"2112","6192.463"
"2113","6076.483"
"2114","6089.404"
"2115","6167.676"
"2116","6193.938"
"2117","6154.035"
"2118","6126.112"
"2119","6160.863"
"2120","6238.377"
"2121","6326.878"
"2122","6382.095"
"2123","6357.473"
"2124","6274.188"
"2125","6222.332"
"2126","6247.159"
"2127","6269.333"
"2128","6207.19"
"2129","6109.653"
"2130","6080.313"
"2131","6126.321"
"2132","6147.779"
"2133","6087.215"
"2134","6021.761"
"2135","6035.083"
"2136","6077.932"
"2137","6042.119"
"2138","5928.539"
"2139","5863.833"
"2140","5925.365"
"2141","6029.002"
"2142","6073.135"
"2143","6046.931"
"2144","5982.795"
"2145","5923.135"
"2146","5921.378"
"2147","5992.91"
"2148","6045.306"
"2149","5985.174"
"2150","5853.973"
"2151","5752.324"
"2152","5724.946"
"2153","5755.895"
"2154","5816.553"
"2155","5853.599"
"2156","5818.601"
"2157","5724.257"
"2158","5608.525"
"2159","5507.262"
"2160","5454.112"
"2161","5465.13"
"2162","5516.324"
"2163","5580.376"
"2164","5643.437"
"2165","5696.689"
"2166","5735.866"
"2167","5760.483"
"2168","5764.722"
"2169","5732.318"
"2170","5653.148"
"2171","5551.948"
"2172","5462.192"
"2173","5396.017"
"2174","5350.864"
"2175","5334.681"
"2176","5372.223"
"2177","5470.405"
"2178","5565.165"
"2179","5584.601"
"2180","5538.911"
"2181","5482.654"
"2182","5445.113"
"2183","5424.308"
"2184","5418.184"
"2185","5429.545"
"2186","5460.98"
"2187","5508.038"
"2188","5562.602"
"2189","5601.653"
"2190","5588.895"
"2191","5515.434"
"2192","5427.174"
"2193","5367.923"
"2194","5342.006"
"2195","5341.724"
"2196","5350.529"
"2197","5346.393"
"2198","5319.21"
"2199","5275.368"
"2200","5224.779"
"2201","5184.275"
"2202","5167.918"
"2203","5160.402"
"2204","5135.446"
"2205","5102.675"
"2206","5104.634"
"2207","5145.709"
"2208","5153.915"
"2209","5077.507"
"2210","4991.045"
"2211","4991.633"
"2212","5052.341"
"2213","5074.843"
"2214","5040.291"
"2215","5028.137"
"2216","5078.462"
"2217","5114.828"
"2218","5059.954"
"2219","4938.801"
"2220","4812.024"
"2221","4728.52"
"2222","4727.393"
"2223","4789.168"
"2224","4806.672"
"2225","4723.487"
"2226","4666.604"
"2227","4768.651"
"2228","4946.02"
"2229","5028.896"
"2230","4966.767"
"2231","4812.993"
"2232","4634.858"
"2233","4517.414"
"2234","4516.653"
"2235","4577.418"
"2236","4625.402"
"2237","4633.028"
"2238","4595.793"
"2239","4530.76"
"2240","4474.87"
"2241","4449.035"
"2242","4443.446"
"2243","4444.245"
"2244","4434.821"
"2245","4398.911"
"2246","4328.904"
"2247","4223.408"
"2248","4122.65"
"2249","4105.097"
"2250","4183.876"
"2251","4252.302"
"2252","4227.576"
"2253","4158.515"
"2254","4114.321"
"2255","4093.826"
"2256","4065.096"
"2257","4020.82"
"2258","3975.069"
"2259","3926.338"
"2260","3846.527"
"2261","3734.422"
"2262","3682.106"
"2263","3771.842"
"2264","3900.305"
"2265","3902.162"
"2266","3791.492"
"2267","3715.825"
"2268","3722.038"
"2269","3712.719"
"2270","3618.295"
"2271","3470.046"
"2272","3314.824"
"2273","3195.345"
"2274","3146.655"
"2275","3134.094"
"2276","3083.737"
"2277","3008.469"
"2278","3016.609"
"2279","3125.675"
"2280","3162.013"
"2281","3007.989"
"2282","2845.485"
"2283","2881.106"
"2284","2973.697"
"2285","2845.041"
"2286","2545.04"
"2287","2386.891"
"2288","2475.97"
"2289","2607.834"
"2290","2619.983"
"2291","2522.199"
"2292","2355.207"
"2293","2176.1"
"2294","2042.798"
"2295","1970.725"
"2296","1949.454"
"2297","1920.531"
"2298","1780.622"
"2299","1548.486"
"2300","1451.983"
