,"Scan 00855"
"400","15699.45"
"401","15669.55"
"402","15629"
"403","15589.85"
"404","15564.09"
"405","15562.13"
"406","15581.4"
"407","15612.75"
"408","15647.06"
"409","15675.55"
"410","15692.93"
"411","15696.38"
"412","15683.14"
"413","15650.94"
"414","15606.99"
"415","15567.37"
"416","15548.37"
"417","15565.69"
"418","15618.19"
"419","15684.05"
"420","15740.32"
"421","15764.4"
"422","15746.92"
"423","15699.77"
"424","15636.66"
"425","15571.21"
"426","15514.55"
"427","15472.83"
"428","15451.53"
"429","15456.04"
"430","15487.24"
"431","15533.7"
"432","15582.03"
"433","15618.92"
"434","15633.47"
"435","15622.84"
"436","15585.91"
"437","15521.6"
"438","15432.56"
"439","15337.85"
"440","15260.9"
"441","15224.97"
"442","15247.42"
"443","15313.91"
"444","15399.45"
"445","15479.19"
"446","15531.17"
"447","15551.9"
"448","15545.51"
"449","15516.1"
"450","15468.22"
"451","15409.94"
"452","15351.08"
"453","15301.39"
"454","15269.52"
"455","15253.61"
"456","15245.8"
"457","15238.18"
"458","15223.65"
"459","15204.05"
"460","15187.14"
"461","15180.73"
"462","15191.59"
"463","15212.14"
"464","15224.08"
"465","15208.98"
"466","15150.07"
"467","15056.68"
"468","14959.93"
"469","14891.39"
"470","14880.85"
"471","14926.4"
"472","14997.11"
"473","15061.15"
"474","15088.04"
"475","15073.24"
"476","15037.93"
"477","15004.27"
"478","14993.58"
"479","15008.81"
"480","15033.5"
"481","15050.31"
"482","15042.54"
"483","15008.19"
"484","14961.67"
"485","14918.19"
"486","14892.48"
"487","14887.58"
"488","14892.94"
"489","14897.32"
"490","14889.74"
"491","14866.16"
"492","14830.76"
"493","14788.2"
"494","14743.02"
"495","14697.19"
"496","14649.56"
"497","14598.83"
"498","14543.77"
"499","14486.86"
"500","14435"
"501","14395.31"
"502","14374.55"
"503","14369.35"
"504","14364.3"
"505","14343.38"
"506","14291.19"
"507","14208.84"
"508","14116.5"
"509","14035.24"
"510","13985.45"
"511","13970.63"
"512","13975.62"
"513","13984.35"
"514","13981.29"
"515","13961.67"
"516","13931.99"
"517","13899.23"
"518","13870.14"
"519","13847.02"
"520","13827.81"
"521","13810.27"
"522","13792.26"
"523","13773.43"
"524","13755"
"525","13738.26"
"526","13724.32"
"527","13711.35"
"528","13695.18"
"529","13671.55"
"530","13636.8"
"531","13595.09"
"532","13556.28"
"533","13530.35"
"534","13526.05"
"535","13538.56"
"536","13554.26"
"537","13559.44"
"538","13541.93"
"539","13504.14"
"540","13456.71"
"541","13410.34"
"542","13374.67"
"543","13351.22"
"544","13337.59"
"545","13331.38"
"546","13330.56"
"547","13335.73"
"548","13348.53"
"549","13370.6"
"550","13402.04"
"551","13434.47"
"552","13456.67"
"553","13457.49"
"554","13429.69"
"555","13383"
"556","13331.72"
"557","13290.11"
"558","13268.33"
"559","13262.41"
"560","13265.35"
"561","13270.17"
"562","13271.87"
"563","13270.79"
"564","13268.2"
"565","13265.36"
"566","13263.18"
"567","13261.84"
"568","13261.43"
"569","13262.05"
"570","13263.71"
"571","13266.32"
"572","13269.79"
"573","13273.95"
"574","13275.76"
"575","13268.5"
"576","13245.23"
"577","13199.6"
"578","13138.29"
"579","13081.01"
"580","13047.97"
"581","13057.61"
"582","13104.01"
"583","13162.76"
"584","13209.09"
"585","13220.98"
"586","13202.23"
"587","13171.26"
"588","13146.59"
"589","13143.49"
"590","13155.85"
"591","13168.8"
"592","13167.52"
"593","13141.92"
"594","13103.9"
"595","13071.72"
"596","13063.54"
"597","13089.68"
"598","13135.34"
"599","13180.77"
"600","13206.33"
"601","13201"
"602","13172.73"
"603","13132"
"604","13089.2"
"605","13052.25"
"606","13025.28"
"607","13012.1"
"608","13016.28"
"609","13036.05"
"610","13063.9"
"611","13092.07"
"612","13113.11"
"613","13123.45"
"614","13122.38"
"615","13109.25"
"616","13084.27"
"617","13054.61"
"618","13030.89"
"619","13023.7"
"620","13040.02"
"621","13068.5"
"622","13091.95"
"623","13093.23"
"624","13062"
"625","13009.51"
"626","12951.25"
"627","12902.64"
"628","12873.12"
"629","12860.18"
"630","12859.87"
"631","12868.29"
"632","12883.16"
"633","12904.26"
"634","12931.5"
"635","12964.51"
"636","12998.29"
"637","13024.01"
"638","13032.75"
"639","13017.18"
"640","12983.74"
"641","12945.95"
"642","12917.33"
"643","12908.4"
"644","12914.72"
"645","12927.26"
"646","12937.02"
"647","12937.67"
"648","12930.51"
"649","12918.18"
"650","12903.33"
"651","12890.19"
"652","12885.59"
"653","12896.59"
"654","12929.76"
"655","12979.68"
"656","13028.88"
"657","13059.38"
"658","13055.43"
"659","13024.53"
"660","12988.17"
"661","12967.96"
"662","12980.42"
"663","13014.2"
"664","13048.48"
"665","13062.48"
"666","13044.42"
"667","13009.13"
"668","12976.33"
"669","12965.48"
"670","12983.6"
"671","13017.29"
"672","13051.27"
"673","13070.87"
"674","13072.61"
"675","13063.44"
"676","13050.69"
"677","13041.19"
"678","13037.41"
"679","13039.6"
"680","13047.97"
"681","13062.19"
"682","13079.64"
"683","13097.03"
"684","13111.13"
"685","13119.12"
"686","13119.15"
"687","13109.54"
"688","13088.78"
"689","13061.51"
"690","13039.77"
"691","13035.96"
"692","13060.83"
"693","13105.99"
"694","13150.83"
"695","13174.53"
"696","13161.83"
"697","13126.06"
"698","13089.93"
"699","13076.04"
"700","13095.41"
"701","13129.79"
"702","13156.39"
"703","13152.97"
"704","13116.2"
"705","13066.96"
"706","13027.68"
"707","13018.83"
"708","13037.83"
"709","13066.99"
"710","13088.36"
"711","13088.03"
"712","13072.6"
"713","13055.19"
"714","13048.88"
"715","13060.79"
"716","13083.88"
"717","13109.14"
"718","13127.79"
"719","13138.97"
"720","13150.83"
"721","13172.05"
"722","13209.53"
"723","13253.38"
"724","13284.2"
"725","13282.56"
"726","13236.89"
"727","13167.82"
"728","13104.24"
"729","13074.79"
"730","13092.44"
"731","13141.37"
"732","13202.67"
"733","13258"
"734","13297.72"
"735","13319.8"
"736","13322.49"
"737","13305.16"
"738","13274.65"
"739","13240.78"
"740","13213.36"
"741","13199.1"
"742","13196.42"
"743","13202.34"
"744","13213.9"
"745","13229.2"
"746","13247.57"
"747","13268.41"
"748","13291.03"
"749","13313.77"
"750","13334.43"
"751","13350.8"
"752","13361.13"
"753","13365.2"
"754","13363.17"
"755","13355.29"
"756","13346.03"
"757","13346.42"
"758","13368"
"759","13420.69"
"760","13494.02"
"761","13563.73"
"762","13605.32"
"763","13601.45"
"764","13566.45"
"765","13523.47"
"766","13495.48"
"767","13492.9"
"768","13503.8"
"769","13513.98"
"770","13510.37"
"771","13496.34"
"772","13487.66"
"773","13500.44"
"774","13545.57"
"775","13608.69"
"776","13667.73"
"777","13700.74"
"778","13699.75"
"779","13682.81"
"780","13670.85"
"781","13683.52"
"782","13722.28"
"783","13774.49"
"784","13827.14"
"785","13868.83"
"786","13895.73"
"787","13906.31"
"788","13899.07"
"789","13875.97"
"790","13845.13"
"791","13815.32"
"792","13794.95"
"793","13788.03"
"794","13795.41"
"795","13817.85"
"796","13853.83"
"797","13891.96"
"798","13918.23"
"799","13918.83"
"800","13893.71"
"801","13864.26"
"802","13853.73"
"803","13882.61"
"804","13941.68"
"805","14003.62"
"806","14040.87"
"807","14035.86"
"808","14005.62"
"809","13974.65"
"810","13966.97"
"811","13990.17"
"812","14031.29"
"813","14076.09"
"814","14111.84"
"815","14137.66"
"816","14158.24"
"817","14178.29"
"818","14199.54"
"819","14216.09"
"820","14220.9"
"821","14207.3"
"822","14176.74"
"823","14138.06"
"824","14100.42"
"825","14072.05"
"826","14056.5"
"827","14055.76"
"828","14071.76"
"829","14101.11"
"830","14131.21"
"831","14148.56"
"832","14141.37"
"833","14116.59"
"834","14092.77"
"835","14088.63"
"836","14115.98"
"837","14164.36"
"838","14218.83"
"839","14264.71"
"840","14293.94"
"841","14305.72"
"842","14299.58"
"843","14276.58"
"844","14246.85"
"845","14223.91"
"846","14221.2"
"847","14244.33"
"848","14284.3"
"849","14330.53"
"850","14372.89"
"851","14406.32"
"852","14428.95"
"853","14439.02"
"854","14437.26"
"855","14432.39"
"856","14434.71"
"857","14454.05"
"858","14488.83"
"859","14525.85"
"860","14551.37"
"861","14554.93"
"862","14543.29"
"863","14528.95"
"864","14524.29"
"865","14535.57"
"866","14559.42"
"867","14591.6"
"868","14627.61"
"869","14660.42"
"870","14681.7"
"871","14683.15"
"872","14664.5"
"873","14644.85"
"874","14646.11"
"875","14688.24"
"876","14762.33"
"877","14837.48"
"878","14882.2"
"879","14875.74"
"880","14835.86"
"881","14788.97"
"882","14760.83"
"883","14760.48"
"884","14778.92"
"885","14806.28"
"886","14833.81"
"887","14858.69"
"888","14880.04"
"889","14897.04"
"890","14912.39"
"891","14933.93"
"892","14969.92"
"893","15026.42"
"894","15093.14"
"895","15152.48"
"896","15186.89"
"897","15189.31"
"898","15173.06"
"899","15153.84"
"900","15146.05"
"901","15151.16"
"902","15163.01"
"903","15175.36"
"904","15184.2"
"905","15191.17"
"906","15198.77"
"907","15209.22"
"908","15220.85"
"909","15229.13"
"910","15229.44"
"911","15221.58"
"912","15219.25"
"913","15238.9"
"914","15295.68"
"915","15380.98"
"916","15465"
"917","15517.24"
"918","15515.98"
"919","15473.39"
"920","15409.79"
"921","15345.22"
"922","15293.33"
"923","15261.1"
"924","15255.22"
"925","15280"
"926","15329.04"
"927","15392.92"
"928","15462.11"
"929","15524.13"
"930","15562.97"
"931","15562.44"
"932","15513.06"
"933","15439.41"
"934","15376.88"
"935","15360.16"
"936","15397.07"
"937","15461.06"
"938","15523.29"
"939","15559.51"
"940","15570.67"
"941","15566.38"
"942","15556.21"
"943","15547.07"
"944","15542.25"
"945","15544.8"
"946","15556.7"
"947","15573.91"
"948","15590.17"
"949","15599.34"
"950","15599.12"
"951","15592.54"
"952","15583.04"
"953","15573.56"
"954","15563.91"
"955","15552.81"
"956","15539.04"
"957","15524.91"
"958","15517.61"
"959","15524.67"
"960","15550.96"
"961","15586.21"
"962","15614.78"
"963","15621.34"
"964","15603.57"
"965","15576.45"
"966","15556.16"
"967","15555.84"
"968","15572.49"
"969","15597.71"
"970","15623.18"
"971","15643.45"
"972","15656.67"
"973","15661.17"
"974","15655.6"
"975","15639.99"
"976","15614.81"
"977","15580.61"
"978","15540.8"
"979","15501.98"
"980","15470.94"
"981","15454.21"
"982","15457.35"
"983","15485.65"
"984","15543.74"
"985","15620.83"
"986","15691.05"
"987","15727.84"
"988","15714.87"
"989","15672.55"
"990","15629.57"
"991","15613.37"
"992","15629.73"
"993","15666.29"
"994","15710.11"
"995","15751.87"
"996","15792.92"
"997","15836.56"
"998","15885.28"
"999","15930.73"
"1000","15957.04"
"1001","15948.26"
"1002","15899.76"
"1003","15833.77"
"1004","15776.36"
"1005","15753.65"
"1006","15786.06"
"1007","15855.77"
"1008","15929.22"
"1009","15973.16"
"1010","15974.37"
"1011","15948.34"
"1012","15912.79"
"1013","15883.99"
"1014","15870.39"
"1015","15877.78"
"1016","15911.63"
"1017","15967.43"
"1018","16028.92"
"1019","16079.17"
"1020","16105.43"
"1021","16112.71"
"1022","16110.69"
"1023","16108.85"
"1024","16112.03"
"1025","16120.82"
"1026","16135.63"
"1027","16156"
"1028","16178.8"
"1029","16200.32"
"1030","16217.13"
"1031","16229.15"
"1032","16238.66"
"1033","16248"
"1034","16259.69"
"1035","16276.67"
"1036","16301.93"
"1037","16338.14"
"1038","16384.98"
"1039","16440.63"
"1040","16503.23"
"1041","16566.13"
"1042","16615.11"
"1043","16635.26"
"1044","16616.13"
"1045","16572"
"1046","16525.7"
"1047","16499.55"
"1048","16501.74"
"1049","16524.99"
"1050","16561.19"
"1051","16601.96"
"1052","16637.95"
"1053","16659.55"
"1054","16658.04"
"1055","16636.3"
"1056","16605.67"
"1057","16577.65"
"1058","16561.99"
"1059","16564.6"
"1060","16590.85"
"1061","16643.94"
"1062","16710.62"
"1063","16770.18"
"1064","16802.22"
"1065","16802.78"
"1066","16789.96"
"1067","16783.44"
"1068","16797.25"
"1069","16821.58"
"1070","16840.33"
"1071","16838.46"
"1072","16818.53"
"1073","16797.28"
"1074","16791.86"
"1075","16810.01"
"1076","16837.56"
"1077","16857.23"
"1078","16854.84"
"1079","16839.98"
"1080","16833.18"
"1081","16854.54"
"1082","16903.87"
"1083","16954.65"
"1084","16978.62"
"1085","16958.39"
"1086","16918.37"
"1087","16893"
"1088","16913.66"
"1089","16971.12"
"1090","17027.36"
"1091","17043.92"
"1092","17005.46"
"1093","16941.09"
"1094","16885.04"
"1095","16865.68"
"1096","16877.23"
"1097","16901.66"
"1098","16921.29"
"1099","16927.24"
"1100","16919.29"
"1101","16897.61"
"1102","16866.92"
"1103","16844.09"
"1104","16848.01"
"1105","16893.18"
"1106","16958.73"
"1107","17006.67"
"1108","16999.91"
"1109","16938.26"
"1110","16867.95"
"1111","16838.24"
"1112","16879.44"
"1113","16957.73"
"1114","17025.66"
"1115","17040.33"
"1116","17006.35"
"1117","16956.17"
"1118","16922.3"
"1119","16918.92"
"1120","16933.13"
"1121","16949.82"
"1122","16957.9"
"1123","16962.03"
"1124","16970.75"
"1125","16991.92"
"1126","17024.83"
"1127","17063.25"
"1128","17100.78"
"1129","17128.83"
"1130","17135.33"
"1131","17107.87"
"1132","17041.19"
"1133","16959.78"
"1134","16895.85"
"1135","16879.04"
"1136","16907.4"
"1137","16957.94"
"1138","17007.47"
"1139","17043.38"
"1140","17069.8"
"1141","17092.37"
"1142","17114.6"
"1143","17131.77"
"1144","17137.09"
"1145","17124.74"
"1146","17099.81"
"1147","17074.15"
"1148","17059.62"
"1149","17062.59"
"1150","17081.51"
"1151","17114.23"
"1152","17157.52"
"1153","17204.34"
"1154","17246.84"
"1155","17277.45"
"1156","17291.33"
"1157","17285.06"
"1158","17255.65"
"1159","17213.43"
"1160","17184.68"
"1161","17196.66"
"1162","17261.55"
"1163","17350.2"
"1164","17426.43"
"1165","17460.01"
"1166","17461.5"
"1167","17458.39"
"1168","17476.79"
"1169","17514.38"
"1170","17542.5"
"1171","17531.65"
"1172","17474.12"
"1173","17405.96"
"1174","17368.51"
"1175","17392.09"
"1176","17455.51"
"1177","17522.51"
"1178","17559.55"
"1179","17565.33"
"1180","17559.65"
"1181","17562.34"
"1182","17580.41"
"1183","17603.21"
"1184","17618.82"
"1185","17619.19"
"1186","17607.68"
"1187","17589.78"
"1188","17571.28"
"1189","17559.98"
"1190","17564.51"
"1191","17592.86"
"1192","17640.79"
"1193","17693.46"
"1194","17735.72"
"1195","17760.17"
"1196","17773.03"
"1197","17781.9"
"1198","17792.41"
"1199","17802.72"
"1200","17809.23"
"1201","17809.36"
"1202","17808.79"
"1203","17817.44"
"1204","17844.64"
"1205","17886.61"
"1206","17926.4"
"1207","17946.61"
"1208","17941.23"
"1209","17926.63"
"1210","17921.79"
"1211","17938.96"
"1212","17963.15"
"1213","17972.46"
"1214","17948.24"
"1215","17900.25"
"1216","17852.92"
"1217","17830.13"
"1218","17838.95"
"1219","17869.96"
"1220","17913.01"
"1221","17960.07"
"1222","18007.04"
"1223","18050.25"
"1224","18085.24"
"1225","18104.73"
"1226","18100.76"
"1227","18068.09"
"1228","18021.91"
"1229","17986.77"
"1230","17985.93"
"1231","18019.4"
"1232","18067.47"
"1233","18110"
"1234","18137.15"
"1235","18155.04"
"1236","18171.12"
"1237","18190.37"
"1238","18210.79"
"1239","18229.08"
"1240","18242.58"
"1241","18251.87"
"1242","18258.65"
"1243","18264.79"
"1244","18273.63"
"1245","18289.48"
"1246","18316.38"
"1247","18351.03"
"1248","18382.01"
"1249","18397.57"
"1250","18393.62"
"1251","18380.79"
"1252","18371.39"
"1253","18374.15"
"1254","18385.43"
"1255","18398.92"
"1256","18409.19"
"1257","18416.39"
"1258","18422.89"
"1259","18431.05"
"1260","18443.13"
"1261","18461.35"
"1262","18487.66"
"1263","18517.41"
"1264","18538.44"
"1265","18538.26"
"1266","18516.58"
"1267","18496.26"
"1268","18502.77"
"1269","18550.65"
"1270","18618.85"
"1271","18679.02"
"1272","18706.79"
"1273","18700.13"
"1274","18664.96"
"1275","18608.7"
"1276","18554.45"
"1277","18534.49"
"1278","18579.14"
"1279","18673.82"
"1280","18761.66"
"1281","18784.82"
"1282","18726.57"
"1283","18631.64"
"1284","18549.82"
"1285","18513.24"
"1286","18511.63"
"1287","18528.54"
"1288","18549.58"
"1289","18568.66"
"1290","18581.68"
"1291","18585.69"
"1292","18584.89"
"1293","18586.41"
"1294","18596.9"
"1295","18617.85"
"1296","18647.52"
"1297","18684.1"
"1298","18724.95"
"1299","18766.64"
"1300","18805.66"
"1301","18835.27"
"1302","18844.18"
"1303","18820.78"
"1304","18766.86"
"1305","18713.08"
"1306","18693.88"
"1307","18730.18"
"1308","18798.12"
"1309","18864.58"
"1310","18901.18"
"1311","18904.07"
"1312","18877.25"
"1313","18826.56"
"1314","18772.61"
"1315","18743.09"
"1316","18762.88"
"1317","18819.12"
"1318","18872.62"
"1319","18885.34"
"1320","18858.27"
"1321","18831.22"
"1322","18844.99"
"1323","18907.22"
"1324","18978.84"
"1325","19017.44"
"1326","19001.33"
"1327","18950.15"
"1328","18888.45"
"1329","18839.66"
"1330","18823.89"
"1331","18860.73"
"1332","18958.17"
"1333","19077"
"1334","19165.98"
"1335","19183.99"
"1336","19149.53"
"1337","19102.66"
"1338","19079.51"
"1339","19082.35"
"1340","19096.48"
"1341","19107.62"
"1342","19108.64"
"1343","19097.28"
"1344","19071.8"
"1345","19039.38"
"1346","19015.24"
"1347","19014.34"
"1348","19034.47"
"1349","19052.81"
"1350","19045.71"
"1351","19011.1"
"1352","18980.59"
"1353","18988.65"
"1354","19046.88"
"1355","19120.17"
"1356","19167.69"
"1357","19164.71"
"1358","19129.76"
"1359","19088.55"
"1360","19060.49"
"1361","19042.63"
"1362","19027.13"
"1363","19009.76"
"1364","19002.9"
"1365","19023.7"
"1366","19083.5"
"1367","19158.82"
"1368","19213.27"
"1369","19214.9"
"1370","19166.49"
"1371","19087.06"
"1372","18996.26"
"1373","18918.85"
"1374","18882.59"
"1375","18911.99"
"1376","18987.43"
"1377","19057.74"
"1378","19073.84"
"1379","19036.59"
"1380","18990.03"
"1381","18978.06"
"1382","19005.31"
"1383","19035.69"
"1384","19032.21"
"1385","18993.04"
"1386","18959.72"
"1387","18975.82"
"1388","19047.33"
"1389","19125.45"
"1390","19157.37"
"1391","19121.97"
"1392","19052.42"
"1393","18987.15"
"1394","18950.79"
"1395","18940.29"
"1396","18949.31"
"1397","18971.5"
"1398","19000.44"
"1399","19029.7"
"1400","19052.71"
"1401","19062.54"
"1402","19052.17"
"1403","19019.64"
"1404","18978.51"
"1405","18945.33"
"1406","18932.48"
"1407","18937.76"
"1408","18955.71"
"1409","18980.19"
"1410","19002.16"
"1411","19011.9"
"1412","19002.75"
"1413","18981.8"
"1414","18959.96"
"1415","18947.42"
"1416","18950.77"
"1417","18975.52"
"1418","19022.5"
"1419","19067.22"
"1420","19076.59"
"1421","19027.09"
"1422","18951.79"
"1423","18904.58"
"1424","18929.18"
"1425","19004.14"
"1426","19082.31"
"1427","19121.93"
"1428","19118.81"
"1429","19084.51"
"1430","19032.59"
"1431","18990.71"
"1432","18992.79"
"1433","19064.86"
"1434","19172.58"
"1435","19253.68"
"1436","19255.57"
"1437","19203.92"
"1438","19161.85"
"1439","19183.42"
"1440","19246.19"
"1441","19290.18"
"1442","19264.26"
"1443","19193.53"
"1444","19141.09"
"1445","19161.78"
"1446","19237.58"
"1447","19313.9"
"1448","19342.33"
"1449","19329.29"
"1450","19308.77"
"1451","19310.1"
"1452","19321.88"
"1453","19312.4"
"1454","19254.93"
"1455","19164.72"
"1456","19077.59"
"1457","19025.44"
"1458","19007.92"
"1459","19009.37"
"1460","19015.09"
"1461","19018.85"
"1462","19018.27"
"1463","19010.91"
"1464","18993.8"
"1465","18963.7"
"1466","18918.31"
"1467","18861.73"
"1468","18800.7"
"1469","18742.11"
"1470","18693.46"
"1471","18662.5"
"1472","18653.07"
"1473","18645.89"
"1474","18613.27"
"1475","18537.6"
"1476","18455.96"
"1477","18423.77"
"1478","18478.18"
"1479","18566.46"
"1480","18608.36"
"1481","18546.29"
"1482","18423.08"
"1483","18309.31"
"1484","18259.73"
"1485","18266.32"
"1486","18305.56"
"1487","18355.05"
"1488","18396.44"
"1489","18412.24"
"1490","18392.26"
"1491","18348.71"
"1492","18298.13"
"1493","18254.09"
"1494","18222.15"
"1495","18206.52"
"1496","18206.63"
"1497","18210.74"
"1498","18205.59"
"1499","18188.54"
"1500","18178.31"
"1501","18195.91"
"1502","18239.63"
"1503","18268.49"
"1504","18238.47"
"1505","18150.52"
"1506","18071.83"
"1507","18073.04"
"1508","18154.32"
"1509","18227.69"
"1510","18202.98"
"1511","18077.85"
"1512","17942.68"
"1513","17888.09"
"1514","17924.57"
"1515","17991.74"
"1516","18030.46"
"1517","18033.08"
"1518","18029.76"
"1519","18048.13"
"1520","18079.31"
"1521","18092.49"
"1522","18061.88"
"1523","18005.55"
"1524","17963.04"
"1525","17965.21"
"1526","17987.2"
"1527","17982.41"
"1528","17917.99"
"1529","17828.76"
"1530","17770.27"
"1531","17780.77"
"1532","17833.05"
"1533","17884.41"
"1534","17902.97"
"1535","17888.4"
"1536","17846.07"
"1537","17788.69"
"1538","17745.32"
"1539","17746.95"
"1540","17796.97"
"1541","17851.46"
"1542","17862.65"
"1543","17817.49"
"1544","17748.94"
"1545","17692.29"
"1546","17663.42"
"1547","17658.46"
"1548","17672.07"
"1549","17689.99"
"1550","17691.03"
"1551","17657.45"
"1552","17608.19"
"1553","17583.53"
"1554","17615.89"
"1555","17680.2"
"1556","17726.69"
"1557","17717.04"
"1558","17670.22"
"1559","17622.95"
"1560","17601.16"
"1561","17592.87"
"1562","17577.8"
"1563","17544.42"
"1564","17502.79"
"1565","17466.19"
"1566","17440.88"
"1567","17420.8"
"1568","17398.74"
"1569","17372.8"
"1570","17347.81"
"1571","17328.87"
"1572","17317.82"
"1573","17313.61"
"1574","17315.49"
"1575","17328.17"
"1576","17359.81"
"1577","17414.96"
"1578","17471.12"
"1579","17493.76"
"1580","17458.47"
"1581","17389.92"
"1582","17327.54"
"1583","17299.76"
"1584","17300.2"
"1585","17315.54"
"1586","17334.22"
"1587","17348.29"
"1588","17350.4"
"1589","17341.26"
"1590","17332.94"
"1591","17337.63"
"1592","17350.78"
"1593","17351.75"
"1594","17321.71"
"1595","17271.26"
"1596","17229.98"
"1597","17222.31"
"1598","17234.35"
"1599","17235.93"
"1600","17207.25"
"1601","17173.33"
"1602","17171.2"
"1603","17218.02"
"1604","17277.79"
"1605","17305.97"
"1606","17282.38"
"1607","17228.26"
"1608","17168.88"
"1609","17129.74"
"1610","17136.57"
"1611","17210.78"
"1612","17316.37"
"1613","17376.81"
"1614","17329.74"
"1615","17222.25"
"1616","17149.92"
"1617","17182.71"
"1618","17280.25"
"1619","17372.8"
"1620","17411.53"
"1621","17400.47"
"1622","17352"
"1623","17282.74"
"1624","17215.95"
"1625","17174.63"
"1626","17164.49"
"1627","17174.74"
"1628","17194.56"
"1629","17219.19"
"1630","17247.41"
"1631","17276.93"
"1632","17299.34"
"1633","17304.12"
"1634","17285.54"
"1635","17252.8"
"1636","17217.97"
"1637","17190.43"
"1638","17174.74"
"1639","17174.87"
"1640","17192.67"
"1641","17227.8"
"1642","17278.33"
"1643","17326.26"
"1644","17343.44"
"1645","17309.96"
"1646","17254.37"
"1647","17222.63"
"1648","17239.63"
"1649","17264.64"
"1650","17244.63"
"1651","17166.87"
"1652","17088.27"
"1653","17070.4"
"1654","17121.16"
"1655","17195.39"
"1656","17248.52"
"1657","17264.78"
"1658","17244.49"
"1659","17191.24"
"1660","17123.46"
"1661","17064.12"
"1662","17028.76"
"1663","17014.05"
"1664","17013.74"
"1665","17021.46"
"1666","17030.75"
"1667","17035.23"
"1668","17030.09"
"1669","17011.72"
"1670","16979.37"
"1671","16951.18"
"1672","16953.08"
"1673","16994.66"
"1674","17030.79"
"1675","17005.46"
"1676","16906.57"
"1677","16797.7"
"1678","16747.04"
"1679","16763.63"
"1680","16801.95"
"1681","16818.89"
"1682","16808.42"
"1683","16782.54"
"1684","16751.29"
"1685","16716.34"
"1686","16677.43"
"1687","16634.97"
"1688","16590.77"
"1689","16546.85"
"1690","16506.51"
"1691","16474.36"
"1692","16454.18"
"1693","16442.25"
"1694","16431.06"
"1695","16412.46"
"1696","16376.12"
"1697","16311.35"
"1698","16227.04"
"1699","16168.94"
"1700","16184.25"
"1701","16264.26"
"1702","16347.29"
"1703","16377.56"
"1704","16362.96"
"1705","16341.34"
"1706","16341.34"
"1707","16358.45"
"1708","16380.96"
"1709","16398.28"
"1710","16401.72"
"1711","16383.82"
"1712","16354.58"
"1713","16338.15"
"1714","16351.62"
"1715","16365.35"
"1716","16331.71"
"1717","16229.34"
"1718","16109.08"
"1719","16033.09"
"1720","16026.82"
"1721","16068.54"
"1722","16132.68"
"1723","16185.36"
"1724","16187.6"
"1725","16117.07"
"1726","16025.07"
"1727","15982.89"
"1728","16022.9"
"1729","16102.53"
"1730","16172.09"
"1731","16210.02"
"1732","16219.98"
"1733","16206.95"
"1734","16178.81"
"1735","16144.61"
"1736","16113.51"
"1737","16094.79"
"1738","16097.37"
"1739","16114.64"
"1740","16121.08"
"1741","16093.48"
"1742","16042.63"
"1743","15998.25"
"1744","15984.17"
"1745","16001.28"
"1746","16044.89"
"1747","16098.4"
"1748","16126.36"
"1749","16095.36"
"1750","16020.93"
"1751","15953.18"
"1752","15931.46"
"1753","15940.71"
"1754","15949.82"
"1755","15938.68"
"1756","15908.38"
"1757","15863.18"
"1758","15821.18"
"1759","15811.94"
"1760","15856.07"
"1761","15921.44"
"1762","15957.6"
"1763","15936.61"
"1764","15879.78"
"1765","15814.62"
"1766","15761.47"
"1767","15734.04"
"1768","15742.15"
"1769","15772.69"
"1770","15803.79"
"1771","15823.18"
"1772","15840.97"
"1773","15869.7"
"1774","15904.48"
"1775","15923.62"
"1776","15909.43"
"1777","15874.24"
"1778","15842.07"
"1779","15825.89"
"1780","15812.56"
"1781","15786.54"
"1782","15760.12"
"1783","15771.89"
"1784","15847.97"
"1785","15932.22"
"1786","15937.79"
"1787","15834.92"
"1788","15719.17"
"1789","15697.08"
"1790","15768.24"
"1791","15838.85"
"1792","15831.14"
"1793","15771.5"
"1794","15721.07"
"1795","15715"
"1796","15738.22"
"1797","15770.44"
"1798","15799.85"
"1799","15821.03"
"1800","15827.75"
"1801","15809.5"
"1802","15754.91"
"1803","15675.17"
"1804","15617.51"
"1805","15627"
"1806","15688.2"
"1807","15748.29"
"1808","15767.96"
"1809","15757.02"
"1810","15735.68"
"1811","15714.15"
"1812","15690.14"
"1813","15660.3"
"1814","15619.09"
"1815","15560"
"1816","15486.96"
"1817","15430.35"
"1818","15423.07"
"1819","15463.65"
"1820","15518.85"
"1821","15560.01"
"1822","15589.67"
"1823","15620.52"
"1824","15648.79"
"1825","15641.67"
"1826","15569.33"
"1827","15470.68"
"1828","15429"
"1829","15492.09"
"1830","15583.4"
"1831","15602.19"
"1832","15527.57"
"1833","15432.32"
"1834","15384.1"
"1835","15378.61"
"1836","15381.85"
"1837","15372.42"
"1838","15355.81"
"1839","15340.64"
"1840","15331.31"
"1841","15329.09"
"1842","15336.27"
"1843","15359.13"
"1844","15404.44"
"1845","15460.12"
"1846","15490.28"
"1847","15465.47"
"1848","15413.34"
"1849","15386.07"
"1850","15409.45"
"1851","15452.89"
"1852","15480.05"
"1853","15475.7"
"1854","15439.79"
"1855","15380.23"
"1856","15332.29"
"1857","15336.11"
"1858","15388.98"
"1859","15438.81"
"1860","15440.29"
"1861","15407.22"
"1862","15375.59"
"1863","15366.8"
"1864","15375.78"
"1865","15394.38"
"1866","15411.25"
"1867","15413.13"
"1868","15392.32"
"1869","15356.93"
"1870","15318.18"
"1871","15293.07"
"1872","15303.76"
"1873","15360.44"
"1874","15419.68"
"1875","15424.37"
"1876","15365.3"
"1877","15295.89"
"1878","15266.02"
"1879","15272.25"
"1880","15289.16"
"1881","15300.17"
"1882","15305.48"
"1883","15307.05"
"1884","15305.85"
"1885","15302.33"
"1886","15295.21"
"1887","15278.82"
"1888","15248"
"1889","15218.06"
"1890","15221.03"
"1891","15271.18"
"1892","15314.65"
"1893","15284.28"
"1894","15188.05"
"1895","15115.54"
"1896","15138.63"
"1897","15216.18"
"1898","15271.56"
"1899","15267.6"
"1900","15223.07"
"1901","15161.68"
"1902","15111.71"
"1903","15103.17"
"1904","15143.27"
"1905","15197.9"
"1906","15231.69"
"1907","15238.38"
"1908","15227.37"
"1909","15207.99"
"1910","15189.13"
"1911","15179.03"
"1912","15178.97"
"1913","15185.63"
"1914","15193.32"
"1915","15189.95"
"1916","15163.79"
"1917","15125.26"
"1918","15102.33"
"1919","15112.69"
"1920","15137.66"
"1921","15150.91"
"1922","15126.18"
"1923","15037.3"
"1924","14881.99"
"1925","14751.8"
"1926","14756.65"
"1927","14882.32"
"1928","14984.87"
"1929","14954.92"
"1930","14866.79"
"1931","14843.05"
"1932","14903.55"
"1933","14949.07"
"1934","14900.92"
"1935","14816.53"
"1936","14793.45"
"1937","14846.52"
"1938","14886.92"
"1939","14843.23"
"1940","14773.77"
"1941","14778.28"
"1942","14871"
"1943","14952.98"
"1944","14940.69"
"1945","14882.67"
"1946","14872.18"
"1947","14928.25"
"1948","14968.73"
"1949","14924.2"
"1950","14841.76"
"1951","14808.66"
"1952","14841.72"
"1953","14861.12"
"1954","14801.23"
"1955","14718.53"
"1956","14710.99"
"1957","14795.24"
"1958","14878.25"
"1959","14877.59"
"1960","14813.11"
"1961","14739.07"
"1962","14682.9"
"1963","14637.35"
"1964","14595.24"
"1965","14561.68"
"1966","14545.46"
"1967","14546.08"
"1968","14551.85"
"1969","14550.23"
"1970","14528.07"
"1971","14472.97"
"1972","14399.51"
"1973","14352.02"
"1974","14360.37"
"1975","14387.01"
"1976","14378.72"
"1977","14331.14"
"1978","14287.99"
"1979","14282.97"
"1980","14305.4"
"1981","14334.98"
"1982","14360"
"1983","14376.09"
"1984","14378.51"
"1985","14360.59"
"1986","14317.24"
"1987","14269.81"
"1988","14258.98"
"1989","14299.75"
"1990","14340.76"
"1991","14326.33"
"1992","14267.44"
"1993","14215.22"
"1994","14199.1"
"1995","14202.42"
"1996","14205.49"
"1997","14210.35"
"1998","14229.27"
"1999","14253.61"
"2000","14240.28"
"2001","14155.74"
"2002","14045.39"
"2003","13983.11"
"2004","13982.81"
"2005","13981.49"
"2006","13931.4"
"2007","13878.24"
"2008","13890.93"
"2009","13957.62"
"2010","13987.14"
"2011","13920.87"
"2012","13820.23"
"2013","13767.66"
"2014","13786.93"
"2015","13858.61"
"2016","13948.73"
"2017","13991.16"
"2018","13926.53"
"2019","13801.98"
"2020","13721.04"
"2021","13734.72"
"2022","13803.65"
"2023","13879.61"
"2024","13915"
"2025","13863.69"
"2026","13726.39"
"2027","13559.92"
"2028","13426.34"
"2029","13394.72"
"2030","13528.18"
"2031","13756.98"
"2032","13901.26"
"2033","13855.4"
"2034","13716.67"
"2035","13606.16"
"2036","13557.12"
"2037","13553.86"
"2038","13576.23"
"2039","13597.44"
"2040","13594.15"
"2041","13567.09"
"2042","13525.45"
"2043","13473.42"
"2044","13409.74"
"2045","13340.4"
"2046","13297.81"
"2047","13315.64"
"2048","13367.07"
"2049","13382.62"
"2050","13327.25"
"2051","13240.66"
"2052","13170.34"
"2053","13150.42"
"2054","13207.4"
"2055","13294.77"
"2056","13272.15"
"2057","13056.22"
"2058","12818.67"
"2059","12780.27"
"2060","12925.52"
"2061","13055.17"
"2062","13047.81"
"2063","12970.1"
"2064","12902.72"
"2065","12836.33"
"2066","12721.59"
"2067","12542.88"
"2068","12328.83"
"2069","12114.15"
"2070","11945.43"
"2071","11868.6"
"2072","11875.93"
"2073","11919.78"
"2074","11974.07"
"2075","12060.22"
"2076","12195.86"
"2077","12333.33"
"2078","12400.87"
"2079","12406.86"
"2080","12452"
"2081","12596"
"2082","12744.99"
"2083","12784.24"
"2084","12723.72"
"2085","12650.66"
"2086","12617.51"
"2087","12615.59"
"2088","12629.78"
"2089","12642.57"
"2090","12636.55"
"2091","12611.76"
"2092","12583.75"
"2093","12563.23"
"2094","12547.84"
"2095","12534.9"
"2096","12533.61"
"2097","12557.69"
"2098","12594.3"
"2099","12598.63"
"2100","12544.89"
"2101","12477.2"
"2102","12447.74"
"2103","12439.45"
"2104","12394.67"
"2105","12299.93"
"2106","12211.43"
"2107","12181.45"
"2108","12218.24"
"2109","12313.87"
"2110","12401.47"
"2111","12370.62"
"2112","12200.85"
"2113","12047.45"
"2114","12046.89"
"2115","12120.73"
"2116","12123.94"
"2117","12038.43"
"2118","11959.68"
"2119","11946.84"
"2120","11966.45"
"2121","11977.84"
"2122","11978.37"
"2123","11980.16"
"2124","11987.76"
"2125","11997.94"
"2126","12007.98"
"2127","12017.45"
"2128","12022.87"
"2129","11996.01"
"2130","11899.38"
"2131","11745.94"
"2132","11604.54"
"2133","11532.55"
"2134","11546.62"
"2135","11645"
"2136","11737.73"
"2137","11697.88"
"2138","11540.62"
"2139","11444.6"
"2140","11503.61"
"2141","11541.96"
"2142","11375.94"
"2143","11139.74"
"2144","11109.75"
"2145","11310.51"
"2146","11478.72"
"2147","11443.67"
"2148","11337.88"
"2149","11322.59"
"2150","11378.31"
"2151","11405.76"
"2152","11363.36"
"2153","11272.23"
"2154","11157.74"
"2155","11048.09"
"2156","10971.32"
"2157","10950.42"
"2158","11003.82"
"2159","11094.38"
"2160","11130.98"
"2161","11077.67"
"2162","11029.67"
"2163","11071.53"
"2164","11119.28"
"2165","11037.79"
"2166","10857.22"
"2167","10746.72"
"2168","10782.02"
"2169","10850.27"
"2170","10844.7"
"2171","10790.05"
"2172","10745.64"
"2173","10714.59"
"2174","10661.36"
"2175","10580.48"
"2176","10514.68"
"2177","10499.68"
"2178","10529.64"
"2179","10587.41"
"2180","10639.3"
"2181","10643.6"
"2182","10594.83"
"2183","10531.64"
"2184","10480.79"
"2185","10429.12"
"2186","10361.56"
"2187","10295.66"
"2188","10260.89"
"2189","10258.89"
"2190","10266.15"
"2191","10265.6"
"2192","10254.73"
"2193","10231.51"
"2194","10188.41"
"2195","10119.75"
"2196","10059.18"
"2197","10064.52"
"2198","10134.51"
"2199","10186.46"
"2200","10155.94"
"2201","10052.07"
"2202","9904.62"
"2203","9791.751"
"2204","9805.976"
"2205","9902.661"
"2206","9911.231"
"2207","9764.917"
"2208","9607.699"
"2209","9569.266"
"2210","9610.933"
"2211","9652.308"
"2212","9654.627"
"2213","9604.957"
"2214","9530.984"
"2215","9509.519"
"2216","9571.074"
"2217","9619.632"
"2218","9565.068"
"2219","9467.66"
"2220","9432.621"
"2221","9439.752"
"2222","9376.857"
"2223","9226.454"
"2224","9116.875"
"2225","9135.138"
"2226","9199.188"
"2227","9206.341"
"2228","9144.539"
"2229","9040.796"
"2230","8928.141"
"2231","8844.484"
"2232","8806.52"
"2233","8794.103"
"2234","8784.812"
"2235","8761.322"
"2236","8710.761"
"2237","8646.771"
"2238","8594.502"
"2239","8556.914"
"2240","8516.282"
"2241","8464.033"
"2242","8409.803"
"2243","8368.282"
"2244","8365.628"
"2245","8416.973"
"2246","8426.737"
"2247","8255.745"
"2248","7972.065"
"2249","7836.259"
"2250","7938.683"
"2251","8050.952"
"2252","7990.145"
"2253","7857.843"
"2254","7799.6"
"2255","7808.312"
"2256","7809.649"
"2257","7774.378"
"2258","7712.847"
"2259","7634.343"
"2260","7544.234"
"2261","7438.163"
"2262","7282.022"
"2263","7052.099"
"2264","6830.673"
"2265","6733.583"
"2266","6745.789"
"2267","6754.813"
"2268","6716.704"
"2269","6685.977"
"2270","6682.059"
"2271","6613.925"
"2272","6407.191"
"2273","6165.874"
"2274","6035.239"
"2275","5985.075"
"2276","5883.526"
"2277","5736.7"
"2278","5703.117"
"2279","5815.209"
"2280","5837.855"
"2281","5604.211"
"2282","5328.321"
"2283","5266.333"
"2284","5311.543"
"2285","5208.798"
"2286","4954.661"
"2287","4748.669"
"2288","4672.996"
"2289","4632.562"
"2290","4560.245"
"2291","4497.47"
"2292","4482.491"
"2293","4452.807"
"2294","4326.671"
"2295","4134.906"
"2296","3968.72"
"2297","3865.866"
"2298","3811.216"
"2299","3773.505"
"2300","3698.014"
