,"Scan 00850"
"400","10551.33"
"401","10503.3"
"402","10493.88"
"403","10514.29"
"404","10555.84"
"405","10609.64"
"406","10664.85"
"407","10709.71"
"408","10732.52"
"409","10722.96"
"410","10687.51"
"411","10644.35"
"412","10611.74"
"413","10606.96"
"414","10629.37"
"415","10661.66"
"416","10686.01"
"417","10685.11"
"418","10655.87"
"419","10612.63"
"420","10570.71"
"421","10545.19"
"422","10540.9"
"423","10546.35"
"424","10548.61"
"425","10534.9"
"426","10501.3"
"427","10462.33"
"428","10434.69"
"429","10434.99"
"430","10470.83"
"431","10525.88"
"432","10579.87"
"433","10612.7"
"434","10610.37"
"435","10579.67"
"436","10531.79"
"437","10477.87"
"438","10427.82"
"439","10386.42"
"440","10357.06"
"441","10343.1"
"442","10346.41"
"443","10360.88"
"444","10377.73"
"445","10388.24"
"446","10385.14"
"447","10370.82"
"448","10351.61"
"449","10333.83"
"450","10323.1"
"451","10319.63"
"452","10321"
"453","10324.75"
"454","10328.37"
"455","10328.29"
"456","10320.34"
"457","10300.4"
"458","10264.89"
"459","10217.02"
"460","10164.45"
"461","10114.83"
"462","10075.48"
"463","10048.85"
"464","10033.82"
"465","10029.15"
"466","10033.55"
"467","10043.88"
"468","10055.55"
"469","10063.92"
"470","10064.58"
"471","10056.86"
"472","10043.53"
"473","10027.45"
"474","10011.4"
"475","9996.539"
"476","9982.382"
"477","9968.393"
"478","9954.071"
"479","9939.926"
"480","9927.519"
"481","9918.456"
"482","9914.259"
"483","9914.313"
"484","9915.6"
"485","9914.995"
"486","9909.482"
"487","9898.628"
"488","9885.003"
"489","9871.335"
"490","9860.226"
"491","9850.692"
"492","9837.481"
"493","9815.117"
"494","9778.325"
"495","9727.357"
"496","9669.138"
"497","9610.953"
"498","9559.9"
"499","9518.336"
"500","9482.896"
"501","9449.9"
"502","9415.778"
"503","9379.969"
"504","9345.49"
"505","9315.541"
"506","9293.195"
"507","9277.943"
"508","9265.162"
"509","9250.016"
"510","9227.862"
"511","9198.498"
"512","9166.638"
"513","9137.222"
"514","9115.021"
"515","9101.097"
"516","9092.631"
"517","9086.64"
"518","9080.218"
"519","9071.997"
"520","9062.094"
"521","9050.691"
"522","9038.069"
"523","9026.424"
"524","9019.68"
"525","9021.795"
"526","9036.221"
"527","9058.197"
"528","9076.255"
"529","9078.788"
"530","9055.195"
"531","9008.306"
"532","8950.808"
"533","8895.547"
"534","8854.48"
"535","8829.683"
"536","8816.818"
"537","8811.465"
"538","8809.32"
"539","8807.073"
"540","8802"
"541","8791.381"
"542","8773.211"
"543","8751.134"
"544","8731.518"
"545","8720.72"
"546","8723.499"
"547","8734.089"
"548","8742.457"
"549","8738.601"
"550","8715.506"
"551","8682.185"
"552","8653.022"
"553","8642.338"
"554","8659.578"
"555","8693.059"
"556","8725.359"
"557","8739.15"
"558","8723.381"
"559","8688.695"
"560","8650.419"
"561","8623.798"
"562","8617.892"
"563","8624.917"
"564","8634.25"
"565","8635.355"
"566","8623.615"
"567","8607.098"
"568","8595.486"
"569","8598.3"
"570","8616.487"
"571","8636.625"
"572","8643.975"
"573","8624.209"
"574","8576.486"
"575","8517.474"
"576","8464.941"
"577","8436.007"
"578","8434.39"
"579","8450.45"
"580","8474.004"
"581","8495.289"
"582","8510.124"
"583","8518.567"
"584","8520.782"
"585","8517.079"
"586","8509.208"
"587","8499.729"
"588","8491.205"
"589","8485.668"
"590","8481.639"
"591","8476.206"
"592","8466.466"
"593","8450.212"
"594","8428.464"
"595","8403.17"
"596","8376.273"
"597","8351.123"
"598","8335.594"
"599","8338.438"
"600","8368.329"
"601","8423.846"
"602","8481.251"
"603","8513.905"
"604","8495.649"
"605","8422.831"
"606","8326.322"
"607","8239.813"
"608","8195.895"
"609","8201.751"
"610","8237.494"
"611","8281.978"
"612","8315.126"
"613","8330.705"
"614","8332.628"
"615","8325.037"
"616","8312.063"
"617","8297.979"
"618","8287.114"
"619","8283.777"
"620","8290.508"
"621","8300.813"
"622","8305.347"
"623","8294.781"
"624","8264.737"
"625","8226.569"
"626","8194.73"
"627","8183.567"
"628","8198.599"
"629","8227.62"
"630","8256.328"
"631","8270.733"
"632","8266.935"
"633","8254.014"
"634","8241.891"
"635","8239.975"
"636","8249.766"
"637","8266.242"
"638","8284.201"
"639","8298.645"
"640","8306.21"
"641","8304.388"
"642","8290.683"
"643","8264.203"
"644","8231.99"
"645","8203.524"
"646","8188.254"
"647","8191.231"
"648","8204.957"
"649","8219.724"
"650","8225.93"
"651","8219.938"
"652","8208.161"
"653","8197.966"
"654","8196.38"
"655","8202.976"
"656","8209.771"
"657","8208.472"
"658","8191.933"
"659","8165.075"
"660","8140.064"
"661","8129.133"
"662","8141.243"
"663","8167.516"
"664","8192.981"
"665","8202.716"
"666","8188.156"
"667","8159.537"
"668","8130.531"
"669","8114.666"
"670","8117.725"
"671","8132.789"
"672","8151.783"
"673","8166.838"
"674","8173.884"
"675","8172.387"
"676","8161.953"
"677","8142.615"
"678","8118.208"
"679","8094.525"
"680","8077.368"
"681","8070.934"
"682","8072.492"
"683","8077.413"
"684","8081.104"
"685","8081.505"
"686","8082.239"
"687","8087.685"
"688","8102.014"
"689","8122.649"
"690","8138.976"
"691","8139.93"
"692","8116.092"
"693","8076.805"
"694","8043.428"
"695","8037.476"
"696","8073.605"
"697","8130.693"
"698","8175.959"
"699","8176.735"
"700","8118.2"
"701","8030.624"
"702","7951.246"
"703","7916.56"
"704","7938.078"
"705","7995.335"
"706","8065.813"
"707","8127.804"
"708","8168.716"
"709","8181.961"
"710","8161.076"
"711","8103.946"
"712","8030.797"
"713","7968.966"
"714","7945.676"
"715","7972.615"
"716","8024.815"
"717","8072.064"
"718","8085.027"
"719","8059.02"
"720","8017.714"
"721","7986.297"
"722","7987.218"
"723","8016.591"
"724","8055.708"
"725","8085.726"
"726","8092.442"
"727","8080.599"
"728","8059.791"
"729","8039.554"
"730","8026.303"
"731","8020.721"
"732","8022.878"
"733","8032.725"
"734","8048.081"
"735","8064.908"
"736","8079.12"
"737","8087.21"
"738","8089.476"
"739","8087.716"
"740","8083.738"
"741","8079.329"
"742","8076.255"
"743","8076.256"
"744","8080.967"
"745","8088.05"
"746","8090.381"
"747","8080.559"
"748","8052.775"
"749","8016.166"
"750","7988.058"
"751","7985.841"
"752","8019.392"
"753","8071.169"
"754","8117.385"
"755","8134.602"
"756","8117.773"
"757","8090.061"
"758","8076.987"
"759","8101.65"
"760","8157.34"
"761","8217.159"
"762","8253.865"
"763","8247.628"
"764","8211.579"
"765","8168.029"
"766","8139.117"
"767","8134.767"
"768","8143.214"
"769","8150.481"
"770","8143.598"
"771","8124.2"
"772","8104.985"
"773","8098.909"
"774","8115.603"
"775","8148.457"
"776","8185.9"
"777","8216.424"
"778","8233.417"
"779","8239.425"
"780","8237.997"
"781","8232.627"
"782","8226.09"
"783","8220.604"
"784","8218.365"
"785","8221.2"
"786","8229.126"
"787","8241.616"
"788","8258.127"
"789","8276.363"
"790","8290.885"
"791","8295.938"
"792","8286.496"
"793","8267.412"
"794","8250.634"
"795","8248.253"
"796","8268.13"
"797","8299.933"
"798","8328.445"
"799","8338.635"
"800","8325.705"
"801","8300.897"
"802","8276.84"
"803","8265.243"
"804","8268.053"
"805","8281.253"
"806","8300.744"
"807","8322.262"
"808","8340.943"
"809","8351.802"
"810","8350.006"
"811","8336.121"
"812","8317.477"
"813","8301.83"
"814","8296.153"
"815","8301.398"
"816","8315.664"
"817","8337.046"
"818","8362.415"
"819","8385.572"
"820","8399.838"
"821","8398.993"
"822","8385.93"
"823","8371.925"
"824","8368.571"
"825","8384.57"
"826","8413.591"
"827","8444.393"
"828","8465.808"
"829","8471.422"
"830","8463.03"
"831","8443.228"
"832","8414.886"
"833","8383.906"
"834","8358.068"
"835","8345.173"
"836","8349.849"
"837","8366.5"
"838","8387.47"
"839","8405.273"
"840","8416.766"
"841","8423.53"
"842","8427.395"
"843","8430.1"
"844","8432.865"
"845","8436.727"
"846","8442.719"
"847","8452.421"
"848","8468.428"
"849","8493.441"
"850","8529.271"
"851","8567.431"
"852","8592.884"
"853","8590.492"
"854","8552.923"
"855","8497.482"
"856","8446.313"
"857","8420.895"
"858","8426.702"
"859","8452.857"
"860","8487.74"
"861","8521.052"
"862","8549.431"
"863","8571.808"
"864","8587.13"
"865","8595.046"
"866","8596.331"
"867","8591.854"
"868","8582.573"
"869","8570.271"
"870","8557.145"
"871","8545.401"
"872","8538.313"
"873","8541.717"
"874","8561.822"
"875","8603.985"
"876","8660.957"
"877","8715.865"
"878","8751.592"
"879","8756.588"
"880","8739.261"
"881","8712.509"
"882","8688.999"
"883","8675.517"
"884","8672.512"
"885","8680.121"
"886","8697.467"
"887","8718.396"
"888","8735.03"
"889","8739.667"
"890","8733.448"
"891","8730.499"
"892","8745.982"
"893","8791.579"
"894","8853.239"
"895","8905.367"
"896","8922.461"
"897","8896.313"
"898","8852.37"
"899","8819.961"
"900","8825.12"
"901","8860.156"
"902","8897.577"
"903","8909.669"
"904","8882.068"
"905","8833.961"
"906","8789.733"
"907","8772.266"
"908","8783.431"
"909","8809.64"
"910","8836.943"
"911","8854.892"
"912","8864.095"
"913","8867.34"
"914","8867.436"
"915","8867.568"
"916","8871.263"
"917","8882.055"
"918","8901.239"
"919","8921.492"
"920","8933.43"
"921","8928.126"
"922","8908.296"
"923","8888.718"
"924","8884.733"
"925","8906.937"
"926","8944.574"
"927","8980.885"
"928","8999.553"
"929","8998.161"
"930","8990.587"
"931","8991.637"
"932","9011.771"
"933","9039.366"
"934","9055.8"
"935","9042.932"
"936","9000.863"
"937","8953.092"
"938","8924.646"
"939","8934.715"
"940","8970.248"
"941","9007.098"
"942","9021.507"
"943","9007.319"
"944","8982.229"
"945","8965.633"
"946","8972.787"
"947","8994.881"
"948","9014.462"
"949","9014.337"
"950","8990.145"
"951","8955.368"
"952","8924.817"
"953","8911.077"
"954","8913.734"
"955","8927.652"
"956","8947.671"
"957","8967.593"
"958","8979.805"
"959","8976.584"
"960","8952.663"
"961","8916.74"
"962","8882.462"
"963","8863.271"
"964","8863.775"
"965","8876.871"
"966","8894.631"
"967","8910.161"
"968","8922.099"
"969","8930.914"
"970","8937.063"
"971","8940.214"
"972","8939.073"
"973","8932.285"
"974","8919.331"
"975","8903.77"
"976","8890.392"
"977","8883.835"
"978","8884.316"
"979","8887.092"
"980","8887.159"
"981","8881.418"
"982","8874.894"
"983","8874.765"
"984","8887.745"
"985","8909.982"
"986","8927.233"
"987","8924.802"
"988","8894.777"
"989","8853.663"
"990","8823.455"
"991","8824.899"
"992","8857.068"
"993","8900.858"
"994","8936.594"
"995","8951.706"
"996","8954.617"
"997","8957.617"
"998","8972.078"
"999","8997.576"
"1000","9025.506"
"1001","9047.099"
"1002","9057.039"
"1003","9058.165"
"1004","9054.484"
"1005","9050.012"
"1006","9048.016"
"1007","9046.767"
"1008","9042.47"
"1009","9031.373"
"1010","9012.234"
"1011","8987.409"
"1012","8959.533"
"1013","8931.678"
"1014","8909.265"
"1015","8898.516"
"1016","8905.417"
"1017","8928.42"
"1018","8957.115"
"1019","8980.583"
"1020","8991.259"
"1021","8995.748"
"1022","9004.404"
"1023","9026.955"
"1024","9060.418"
"1025","9090.042"
"1026","9100.616"
"1027","9084.625"
"1028","9058.76"
"1029","9044.476"
"1030","9061.321"
"1031","9103.708"
"1032","9148.42"
"1033","9171.906"
"1034","9163.229"
"1035","9140.075"
"1036","9124.106"
"1037","9133.932"
"1038","9162.09"
"1039","9187.889"
"1040","9190.781"
"1041","9166.589"
"1042","9137.316"
"1043","9127.334"
"1044","9154.97"
"1045","9204.993"
"1046","9250.584"
"1047","9265.673"
"1048","9245.54"
"1049","9208.888"
"1050","9175.619"
"1051","9161.296"
"1052","9166.152"
"1053","9187.031"
"1054","9220.277"
"1055","9255.399"
"1056","9276.937"
"1057","9269.372"
"1058","9228.973"
"1059","9177.814"
"1060","9141.396"
"1061","9141.492"
"1062","9171.781"
"1063","9213.16"
"1064","9246.669"
"1065","9262.322"
"1066","9262.22"
"1067","9249.306"
"1068","9228.503"
"1069","9213.01"
"1070","9218.223"
"1071","9258.044"
"1072","9322.146"
"1073","9380.595"
"1074","9402.946"
"1075","9374.739"
"1076","9318.845"
"1077","9263.459"
"1078","9233.624"
"1079","9230.135"
"1080","9242.635"
"1081","9260.759"
"1082","9276.616"
"1083","9285.524"
"1084","9283.015"
"1085","9268.265"
"1086","9254.466"
"1087","9258.171"
"1088","9293.946"
"1089","9350.006"
"1090","9395.893"
"1091","9400.904"
"1092","9354.755"
"1093","9286.51"
"1094","9229.741"
"1095","9211.714"
"1096","9223.028"
"1097","9241.1"
"1098","9244.079"
"1099","9227.313"
"1100","9203.103"
"1101","9184.465"
"1102","9179.669"
"1103","9184.318"
"1104","9191.925"
"1105","9196.831"
"1106","9200.094"
"1107","9206.016"
"1108","9218.749"
"1109","9236.215"
"1110","9248.48"
"1111","9245.118"
"1112","9221.272"
"1113","9191.066"
"1114","9172.651"
"1115","9182.026"
"1116","9213.005"
"1117","9246.359"
"1118","9262.923"
"1119","9256.309"
"1120","9239.022"
"1121","9225.101"
"1122","9224.812"
"1123","9233.569"
"1124","9243.112"
"1125","9245.839"
"1126","9241.886"
"1127","9236.462"
"1128","9234.792"
"1129","9237.558"
"1130","9238.205"
"1131","9229.526"
"1132","9206.721"
"1133","9175.003"
"1134","9142.195"
"1135","9115.663"
"1136","9097.167"
"1137","9084.743"
"1138","9076.403"
"1139","9072.885"
"1140","9079.218"
"1141","9100.823"
"1142","9138.829"
"1143","9177.323"
"1144","9196.134"
"1145","9177.548"
"1146","9131.125"
"1147","9083.387"
"1148","9060.786"
"1149","9072.979"
"1150","9105.519"
"1151","9142.088"
"1152","9169.984"
"1153","9189.044"
"1154","9201.808"
"1155","9210.394"
"1156","9213.078"
"1157","9206.085"
"1158","9185.914"
"1159","9158.698"
"1160","9142.129"
"1161","9154.575"
"1162","9202.746"
"1163","9261.352"
"1164","9299.627"
"1165","9293.037"
"1166","9259.365"
"1167","9233.983"
"1168","9250.45"
"1169","9304.332"
"1170","9356.099"
"1171","9365.063"
"1172","9316.728"
"1173","9249.223"
"1174","9207.008"
"1175","9222.855"
"1176","9274.828"
"1177","9325.003"
"1178","9338.611"
"1179","9318.49"
"1180","9292.029"
"1181","9286.587"
"1182","9308.517"
"1183","9335.398"
"1184","9342.729"
"1185","9316.269"
"1186","9272.231"
"1187","9232.448"
"1188","9216.012"
"1189","9223.286"
"1190","9246.813"
"1191","9279.053"
"1192","9311.505"
"1193","9334.831"
"1194","9339.774"
"1195","9327.017"
"1196","9314.768"
"1197","9323.045"
"1198","9362.439"
"1199","9408.104"
"1200","9426.833"
"1201","9391.38"
"1202","9324.868"
"1203","9275.724"
"1204","9290.444"
"1205","9366.132"
"1206","9450.665"
"1207","9489.99"
"1208","9459.536"
"1209","9392.507"
"1210","9328.833"
"1211","9299.666"
"1212","9300.512"
"1213","9317.852"
"1214","9338.738"
"1215","9355.247"
"1216","9362.057"
"1217","9354.338"
"1218","9337.811"
"1219","9328.648"
"1220","9343.36"
"1221","9385.786"
"1222","9436.104"
"1223","9471.882"
"1224","9477.674"
"1225","9463.843"
"1226","9446.708"
"1227","9440.502"
"1228","9443.643"
"1229","9447.32"
"1230","9443.229"
"1231","9432.443"
"1232","9424.009"
"1233","9427.126"
"1234","9445.098"
"1235","9472.16"
"1236","9501.774"
"1237","9528.722"
"1238","9551.546"
"1239","9569.47"
"1240","9581.877"
"1241","9589.117"
"1242","9591.858"
"1243","9591.134"
"1244","9592.039"
"1245","9602.218"
"1246","9628.91"
"1247","9667.123"
"1248","9698.418"
"1249","9703.78"
"1250","9678.476"
"1251","9645.172"
"1252","9629.651"
"1253","9647.162"
"1254","9676.496"
"1255","9688.548"
"1256","9660.127"
"1257","9605.974"
"1258","9555.771"
"1259","9537.317"
"1260","9554.079"
"1261","9592.949"
"1262","9640.458"
"1263","9682.072"
"1264","9702.054"
"1265","9684.728"
"1266","9630.394"
"1267","9569.702"
"1268","9536.711"
"1269","9551.723"
"1270","9590.199"
"1271","9618.471"
"1272","9610.009"
"1273","9578.991"
"1274","9553.994"
"1275","9560.797"
"1276","9596.017"
"1277","9639.121"
"1278","9669.955"
"1279","9681.246"
"1280","9677.871"
"1281","9665.19"
"1282","9648.529"
"1283","9633.158"
"1284","9624.337"
"1285","9625.023"
"1286","9632.643"
"1287","9643.807"
"1288","9655.685"
"1289","9667.657"
"1290","9679.646"
"1291","9690.993"
"1292","9697.267"
"1293","9692.511"
"1294","9671.879"
"1295","9642.894"
"1296","9620.828"
"1297","9620.411"
"1298","9642.054"
"1299","9672.562"
"1300","9698.28"
"1301","9710.007"
"1302","9704.907"
"1303","9680.681"
"1304","9642.148"
"1305","9609.541"
"1306","9605.102"
"1307","9640.409"
"1308","9691.692"
"1309","9727.859"
"1310","9724.881"
"1311","9695.006"
"1312","9662.083"
"1313","9647.355"
"1314","9651.132"
"1315","9663.675"
"1316","9675.248"
"1317","9676.899"
"1318","9660.234"
"1319","9617.61"
"1320","9558.44"
"1321","9509.121"
"1322","9496.402"
"1323","9528.188"
"1324","9585.885"
"1325","9648.921"
"1326","9701.198"
"1327","9735.515"
"1328","9745.728"
"1329","9730.001"
"1330","9698.724"
"1331","9664.451"
"1332","9638.476"
"1333","9626.91"
"1334","9634.562"
"1335","9663.705"
"1336","9701.885"
"1337","9731.292"
"1338","9736.947"
"1339","9727.832"
"1340","9724.97"
"1341","9747.286"
"1342","9786.283"
"1343","9814.812"
"1344","9806.742"
"1345","9763.142"
"1346","9709.67"
"1347","9672.341"
"1348","9658.956"
"1349","9655.592"
"1350","9647.197"
"1351","9628.313"
"1352","9608.459"
"1353","9598.44"
"1354","9603.111"
"1355","9615.181"
"1356","9625.86"
"1357","9628.56"
"1358","9622.579"
"1359","9608.199"
"1360","9585.365"
"1361","9552.848"
"1362","9509.154"
"1363","9456.498"
"1364","9414.101"
"1365","9406.08"
"1366","9449.217"
"1367","9516.348"
"1368","9564.038"
"1369","9555.23"
"1370","9502.897"
"1371","9443.417"
"1372","9410.195"
"1373","9404.815"
"1374","9410.348"
"1375","9410.512"
"1376","9400.945"
"1377","9385.792"
"1378","9369.467"
"1379","9357.819"
"1380","9357.945"
"1381","9376.51"
"1382","9408.326"
"1383","9435.914"
"1384","9441.741"
"1385","9426.391"
"1386","9412.833"
"1387","9425.035"
"1388","9466.37"
"1389","9510.163"
"1390","9527.528"
"1391","9504.454"
"1392","9452.456"
"1393","9385.581"
"1394","9320.331"
"1395","9278.114"
"1396","9280.875"
"1397","9334.479"
"1398","9407.388"
"1399","9462.753"
"1400","9474.947"
"1401","9448.525"
"1402","9393.069"
"1403","9321.917"
"1404","9259.952"
"1405","9234.307"
"1406","9261.35"
"1407","9319.638"
"1408","9379.41"
"1409","9416.614"
"1410","9429.97"
"1411","9423.84"
"1412","9403.791"
"1413","9380.696"
"1414","9366.919"
"1415","9371.353"
"1416","9385.749"
"1417","9396.577"
"1418","9392.676"
"1419","9375.823"
"1420","9352.163"
"1421","9327.983"
"1422","9310.361"
"1423","9306.67"
"1424","9321.727"
"1425","9343.991"
"1426","9355.472"
"1427","9341.965"
"1428","9315.408"
"1429","9298.702"
"1430","9311.372"
"1431","9347.984"
"1432","9392.08"
"1433","9428.408"
"1434","9451.492"
"1435","9460.361"
"1436","9455.24"
"1437","9445.682"
"1438","9445.698"
"1439","9466.736"
"1440","9498.906"
"1441","9521.851"
"1442","9518.034"
"1443","9494.258"
"1444","9469.457"
"1445","9460.676"
"1446","9468.13"
"1447","9483.584"
"1448","9498.953"
"1449","9508.047"
"1450","9505.608"
"1451","9487.801"
"1452","9462.53"
"1453","9443.555"
"1454","9442.368"
"1455","9451.521"
"1456","9454.299"
"1457","9436.241"
"1458","9401.35"
"1459","9362.412"
"1460","9331.085"
"1461","9309.943"
"1462","9297.378"
"1463","9290.831"
"1464","9280.937"
"1465","9255.349"
"1466","9204.688"
"1467","9139.994"
"1468","9080.817"
"1469","9043.787"
"1470","9026.683"
"1471","9019.91"
"1472","9014.13"
"1473","9001.708"
"1474","8975.606"
"1475","8931.793"
"1476","8882.39"
"1477","8844.95"
"1478","8832.134"
"1479","8832.561"
"1480","8827.485"
"1481","8802.592"
"1482","8763.207"
"1483","8720.077"
"1484","8683.167"
"1485","8659.293"
"1486","8654.503"
"1487","8669.98"
"1488","8689.913"
"1489","8694.757"
"1490","8672.755"
"1491","8636.107"
"1492","8601.61"
"1493","8581.881"
"1494","8578.305"
"1495","8590.384"
"1496","8613.56"
"1497","8633.792"
"1498","8635.771"
"1499","8615.561"
"1500","8592.093"
"1501","8586.864"
"1502","8605.74"
"1503","8627.605"
"1504","8628.971"
"1505","8602.993"
"1506","8567.368"
"1507","8541.462"
"1508","8533.149"
"1509","8535.944"
"1510","8542.484"
"1511","8546.547"
"1512","8543.111"
"1513","8527.656"
"1514","8504.043"
"1515","8483.544"
"1516","8476.714"
"1517","8480.378"
"1518","8481.296"
"1519","8467.659"
"1520","8445.437"
"1521","8431.307"
"1522","8439.648"
"1523","8464.66"
"1524","8490.705"
"1525","8503.425"
"1526","8497.05"
"1527","8469.157"
"1528","8420.295"
"1529","8365.516"
"1530","8324.318"
"1531","8310.853"
"1532","8318.979"
"1533","8337.761"
"1534","8356.121"
"1535","8362.627"
"1536","8345.813"
"1537","8304.768"
"1538","8262.118"
"1539","8243.532"
"1540","8261.057"
"1541","8303.331"
"1542","8356.575"
"1543","8402.79"
"1544","8418.408"
"1545","8380.865"
"1546","8300.913"
"1547","8223.109"
"1548","8190.695"
"1549","8203.551"
"1550","8228.056"
"1551","8232.64"
"1552","8215.736"
"1553","8193.199"
"1554","8180.084"
"1555","8184.195"
"1556","8210.22"
"1557","8257.096"
"1558","8295.315"
"1559","8286.532"
"1560","8211.93"
"1561","8121.124"
"1562","8078.651"
"1563","8114.954"
"1564","8176.089"
"1565","8195.668"
"1566","8146.623"
"1567","8071.242"
"1568","8018.16"
"1569","8007.82"
"1570","8025.007"
"1571","8052.411"
"1572","8077.086"
"1573","8090.022"
"1574","8083.739"
"1575","8066.869"
"1576","8058.4"
"1577","8073.927"
"1578","8102.806"
"1579","8122.704"
"1580","8116.277"
"1581","8090.55"
"1582","8059.869"
"1583","8037.408"
"1584","8032.632"
"1585","8054.216"
"1586","8100.679"
"1587","8149.177"
"1588","8174.493"
"1589","8168.525"
"1590","8147.494"
"1591","8128.831"
"1592","8115.63"
"1593","8097.172"
"1594","8063.634"
"1595","8022.333"
"1596","7991.678"
"1597","7986.773"
"1598","7998.343"
"1599","8006.761"
"1600","7997.569"
"1601","7978.719"
"1602","7964.175"
"1603","7964.728"
"1604","7982.67"
"1605","8018.796"
"1606","8066.347"
"1607","8105.743"
"1608","8116.886"
"1609","8100.265"
"1610","8078.926"
"1611","8075.287"
"1612","8088.046"
"1613","8099.177"
"1614","8093.35"
"1615","8077.544"
"1616","8068.614"
"1617","8078.71"
"1618","8099.707"
"1619","8118.1"
"1620","8128.301"
"1621","8144.758"
"1622","8184.627"
"1623","8240.528"
"1624","8267.335"
"1625","8219.706"
"1626","8116.796"
"1627","8039.118"
"1628","8060.381"
"1629","8159.419"
"1630","8259.795"
"1631","8297.803"
"1632","8284.243"
"1633","8255.483"
"1634","8237.823"
"1635","8226.117"
"1636","8209.232"
"1637","8186.296"
"1638","8174.833"
"1639","8193.618"
"1640","8243.512"
"1641","8306.324"
"1642","8363.313"
"1643","8400.379"
"1644","8406.328"
"1645","8376.14"
"1646","8340.188"
"1647","8341.546"
"1648","8401.645"
"1649","8474.441"
"1650","8501.169"
"1651","8457.817"
"1652","8380.482"
"1653","8310.387"
"1654","8268.294"
"1655","8254.722"
"1656","8267.818"
"1657","8291.119"
"1658","8299.951"
"1659","8275.425"
"1660","8227.473"
"1661","8174.771"
"1662","8131.37"
"1663","8099.501"
"1664","8079.483"
"1665","8068.33"
"1666","8058.49"
"1667","8042.623"
"1668","8021.579"
"1669","8002.486"
"1670","7992.197"
"1671","7994.575"
"1672","8012.252"
"1673","8040.78"
"1674","8052.112"
"1675","8013.651"
"1676","7925.07"
"1677","7841.589"
"1678","7820.907"
"1679","7858.867"
"1680","7894.206"
"1681","7871.964"
"1682","7806.773"
"1683","7747.208"
"1684","7729.33"
"1685","7739.792"
"1686","7753.382"
"1687","7753.644"
"1688","7740.899"
"1689","7717.375"
"1690","7685.909"
"1691","7649.941"
"1692","7612.362"
"1693","7571.071"
"1694","7521.423"
"1695","7463.767"
"1696","7418.103"
"1697","7409.084"
"1698","7440.775"
"1699","7478.566"
"1700","7485.156"
"1701","7457.446"
"1702","7424.758"
"1703","7413.775"
"1704","7420.16"
"1705","7424.927"
"1706","7414.152"
"1707","7391.924"
"1708","7366.234"
"1709","7342.876"
"1710","7324.037"
"1711","7311.33"
"1712","7302.518"
"1713","7292.253"
"1714","7276.944"
"1715","7264.59"
"1716","7267.648"
"1717","7287.875"
"1718","7297.675"
"1719","7265.421"
"1720","7197.036"
"1721","7146.544"
"1722","7164.625"
"1723","7230.418"
"1724","7279.144"
"1725","7262.46"
"1726","7207.53"
"1727","7162.147"
"1728","7153.766"
"1729","7170.686"
"1730","7197.045"
"1731","7222.829"
"1732","7243.253"
"1733","7254.271"
"1734","7255.541"
"1735","7248.231"
"1736","7231.949"
"1737","7201.992"
"1738","7153.282"
"1739","7093.161"
"1740","7044.193"
"1741","7027.123"
"1742","7035.94"
"1743","7049.726"
"1744","7053.436"
"1745","7054.633"
"1746","7065.996"
"1747","7088.732"
"1748","7105.972"
"1749","7101.088"
"1750","7081.928"
"1751","7073.579"
"1752","7095.117"
"1753","7135.228"
"1754","7173.585"
"1755","7189.539"
"1756","7161.898"
"1757","7072.486"
"1758","6955.71"
"1759","6889.753"
"1760","6934.219"
"1761","7036.216"
"1762","7103.74"
"1763","7087.572"
"1764","7032.145"
"1765","6992.439"
"1766","6985.437"
"1767","6993.033"
"1768","6997.064"
"1769","6987.441"
"1770","6957.195"
"1771","6913.11"
"1772","6894.07"
"1773","6940.82"
"1774","7033.851"
"1775","7095.599"
"1776","7061.557"
"1777","6966.167"
"1778","6882.592"
"1779","6857.337"
"1780","6874.148"
"1781","6908.184"
"1782","6943.074"
"1783","6970.452"
"1784","6983.628"
"1785","6984.322"
"1786","6977.394"
"1787","6967.82"
"1788","6960.772"
"1789","6960.921"
"1790","6963.144"
"1791","6953.77"
"1792","6923.646"
"1793","6889.633"
"1794","6877.193"
"1795","6893.109"
"1796","6908.084"
"1797","6891.514"
"1798","6854.586"
"1799","6840.167"
"1800","6877.577"
"1801","6931.741"
"1802","6950.034"
"1803","6914.362"
"1804","6861.918"
"1805","6832.087"
"1806","6832.992"
"1807","6853.478"
"1808","6879.784"
"1809","6890.245"
"1810","6862.277"
"1811","6803.687"
"1812","6760.327"
"1813","6772.494"
"1814","6817.635"
"1815","6843.698"
"1816","6822.282"
"1817","6785.484"
"1818","6773.011"
"1819","6786.299"
"1820","6791.336"
"1821","6763.101"
"1822","6731.717"
"1823","6745.119"
"1824","6810.385"
"1825","6862.539"
"1826","6836.51"
"1827","6752.828"
"1828","6687.167"
"1829","6691.265"
"1830","6731.398"
"1831","6756.494"
"1832","6746.998"
"1833","6720.354"
"1834","6695.764"
"1835","6689.795"
"1836","6717.837"
"1837","6775.023"
"1838","6813.824"
"1839","6785.931"
"1840","6710.112"
"1841","6654.836"
"1842","6668.051"
"1843","6713.539"
"1844","6735.745"
"1845","6718.195"
"1846","6693.755"
"1847","6692.713"
"1848","6704.306"
"1849","6700.094"
"1850","6668.299"
"1851","6632.721"
"1852","6620.209"
"1853","6636.344"
"1854","6671.356"
"1855","6713.363"
"1856","6744.174"
"1857","6744.582"
"1858","6709.256"
"1859","6648.87"
"1860","6578.292"
"1861","6532.363"
"1862","6553.105"
"1863","6640.815"
"1864","6720.406"
"1865","6717.207"
"1866","6645.759"
"1867","6573.832"
"1868","6548.816"
"1869","6558.285"
"1870","6579.898"
"1871","6602.674"
"1872","6625.814"
"1873","6648.576"
"1874","6668.92"
"1875","6684.383"
"1876","6690.302"
"1877","6679.139"
"1878","6644.805"
"1879","6592.438"
"1880","6531.842"
"1881","6475.373"
"1882","6440.084"
"1883","6441.917"
"1884","6479.375"
"1885","6540.627"
"1886","6607.544"
"1887","6645.714"
"1888","6621.117"
"1889","6551.366"
"1890","6496.104"
"1891","6496.998"
"1892","6523.481"
"1893","6529.584"
"1894","6511.031"
"1895","6508.831"
"1896","6552.199"
"1897","6597.661"
"1898","6579.625"
"1899","6493.17"
"1900","6419.262"
"1901","6431.098"
"1902","6501.625"
"1903","6561.659"
"1904","6571.694"
"1905","6546.286"
"1906","6504.743"
"1907","6457.445"
"1908","6410.013"
"1909","6372.44"
"1910","6364.661"
"1911","6404.463"
"1912","6466.653"
"1913","6497.594"
"1914","6469.638"
"1915","6429.114"
"1916","6431.292"
"1917","6469.535"
"1918","6488.217"
"1919","6452.906"
"1920","6404.875"
"1921","6398.204"
"1922","6424.498"
"1923","6417.816"
"1924","6336.501"
"1925","6243.084"
"1926","6222.643"
"1927","6280.273"
"1928","6337.438"
"1929","6334.236"
"1930","6312.655"
"1931","6341.244"
"1932","6425.201"
"1933","6496.315"
"1934","6497.633"
"1935","6449.472"
"1936","6395.553"
"1937","6357.409"
"1938","6328.716"
"1939","6302.134"
"1940","6274.349"
"1941","6243.598"
"1942","6216.267"
"1943","6209.524"
"1944","6236.437"
"1945","6282.536"
"1946","6323.815"
"1947","6343.05"
"1948","6332.301"
"1949","6290.06"
"1950","6248.06"
"1951","6248.908"
"1952","6287.612"
"1953","6293.889"
"1954","6213.3"
"1955","6109.874"
"1956","6087.964"
"1957","6173.964"
"1958","6289.222"
"1959","6358.112"
"1960","6363.792"
"1961","6310.165"
"1962","6226.137"
"1963","6172.777"
"1964","6194.53"
"1965","6237.983"
"1966","6220.481"
"1967","6140.803"
"1968","6095.963"
"1969","6157.628"
"1970","6248.872"
"1971","6252.465"
"1972","6155.636"
"1973","6060.784"
"1974","6047.683"
"1975","6075.034"
"1976","6072.321"
"1977","6029.528"
"1978","5996.185"
"1979","6008.281"
"1980","6042.963"
"1981","6064.913"
"1982","6056.472"
"1983","6015.129"
"1984","5949.925"
"1985","5903.809"
"1986","5921.367"
"1987","5978.243"
"1988","5999.809"
"1989","5950.265"
"1990","5895.547"
"1991","5908.424"
"1992","5962.709"
"1993","5972.659"
"1994","5905.619"
"1995","5839.994"
"1996","5855.937"
"1997","5934.466"
"1998","6008.648"
"1999","6038.8"
"2000","6030.519"
"2001","5993.947"
"2002","5941.324"
"2003","5885.644"
"2004","5836.666"
"2005","5800"
"2006","5781.571"
"2007","5789.891"
"2008","5832.469"
"2009","5877.896"
"2010","5856.526"
"2011","5737.633"
"2012","5625.792"
"2013","5643.707"
"2014","5769.131"
"2015","5873.32"
"2016","5876.584"
"2017","5822.893"
"2018","5770.826"
"2019","5746.007"
"2020","5756.288"
"2021","5791.871"
"2022","5813.267"
"2023","5786.212"
"2024","5726.23"
"2025","5667.035"
"2026","5627.513"
"2027","5608.745"
"2028","5609.881"
"2029","5626.528"
"2030","5653.095"
"2031","5678.989"
"2032","5689.481"
"2033","5679.875"
"2034","5671.972"
"2035","5687.592"
"2036","5707.222"
"2037","5688.648"
"2038","5618.124"
"2039","5530.793"
"2040","5464.203"
"2041","5441.605"
"2042","5479.618"
"2043","5550.991"
"2044","5579.901"
"2045","5521.666"
"2046","5449.592"
"2047","5455.401"
"2048","5530.598"
"2049","5595.907"
"2050","5601.117"
"2051","5560.771"
"2052","5498.218"
"2053","5440.706"
"2054","5416.435"
"2055","5422.258"
"2056","5414.681"
"2057","5366.286"
"2058","5325.258"
"2059","5353.321"
"2060","5427.081"
"2061","5456.997"
"2062","5398.327"
"2063","5312"
"2064","5265.206"
"2065","5261.55"
"2066","5275.935"
"2067","5287.73"
"2068","5282.349"
"2069","5253.326"
"2070","5224.765"
"2071","5226.5"
"2072","5261.254"
"2073","5311.497"
"2074","5357.724"
"2075","5377.393"
"2076","5353.598"
"2077","5309.958"
"2078","5285.714"
"2079","5290.348"
"2080","5299.043"
"2081","5292.265"
"2082","5274.518"
"2083","5256.099"
"2084","5256.067"
"2085","5298.506"
"2086","5371.513"
"2087","5402.061"
"2088","5334.287"
"2089","5230.244"
"2090","5184.856"
"2091","5207.676"
"2092","5232.51"
"2093","5215.147"
"2094","5171.192"
"2095","5125.008"
"2096","5099.858"
"2097","5117.406"
"2098","5160.88"
"2099","5167.314"
"2100","5102.594"
"2101","5037.975"
"2102","5057.34"
"2103","5145.038"
"2104","5226.542"
"2105","5260.096"
"2106","5256.332"
"2107","5229.505"
"2108","5189.832"
"2109","5145.97"
"2110","5099.371"
"2111","5046.17"
"2112","4990.859"
"2113","4954.273"
"2114","4953.351"
"2115","4973.181"
"2116","4989.127"
"2117","4998.434"
"2118","5017.859"
"2119","5048.334"
"2120","5052.983"
"2121","4999.206"
"2122","4917.031"
"2123","4860.233"
"2124","4850.573"
"2125","4877.099"
"2126","4920.967"
"2127","4946.823"
"2128","4922.615"
"2129","4860.701"
"2130","4793.091"
"2131","4748.229"
"2132","4750.462"
"2133","4800.688"
"2134","4834.861"
"2135","4790.041"
"2136","4701.476"
"2137","4648.821"
"2138","4656.987"
"2139","4687.642"
"2140","4705.011"
"2141","4690.967"
"2142","4637.888"
"2143","4596.499"
"2144","4641.918"
"2145","4751.058"
"2146","4788.849"
"2147","4683.503"
"2148","4557.211"
"2149","4544.073"
"2150","4613.063"
"2151","4660.675"
"2152","4649.528"
"2153","4613.923"
"2154","4578.619"
"2155","4534.4"
"2156","4474.742"
"2157","4447.77"
"2158","4519.584"
"2159","4650.876"
"2160","4699.639"
"2161","4598.134"
"2162","4458.118"
"2163","4394.292"
"2164","4392.115"
"2165","4393.54"
"2166","4390.822"
"2167","4418.517"
"2168","4483.604"
"2169","4537.457"
"2170","4537.742"
"2171","4502.527"
"2172","4465.576"
"2173","4432.256"
"2174","4388.372"
"2175","4335.44"
"2176","4300.073"
"2177","4300.768"
"2178","4317.981"
"2179","4325.871"
"2180","4322.313"
"2181","4317.884"
"2182","4312.653"
"2183","4293.813"
"2184","4261.001"
"2185","4249.951"
"2186","4290.635"
"2187","4333.271"
"2188","4299.633"
"2189","4194.969"
"2190","4099.977"
"2191","4068.115"
"2192","4093.689"
"2193","4157.668"
"2194","4211.783"
"2195","4205.283"
"2196","4157.696"
"2197","4132.983"
"2198","4154.532"
"2199","4189.064"
"2200","4196.822"
"2201","4131.313"
"2202","3964.873"
"2203","3813.581"
"2204","3845.448"
"2205","4013.416"
"2206","4072.705"
"2207","3927.791"
"2208","3787.31"
"2209","3830.88"
"2210","3958.887"
"2211","4008.571"
"2212","3950.422"
"2213","3834.55"
"2214","3729.273"
"2215","3723.665"
"2216","3843.431"
"2217","3948.387"
"2218","3908.458"
"2219","3804.623"
"2220","3782.912"
"2221","3841.353"
"2222","3869.114"
"2223","3848.352"
"2224","3905.039"
"2225","4090.141"
"2226","4180.45"
"2227","3958.159"
"2228","3626.23"
"2229","3547.54"
"2230","3710.575"
"2231","3781.235"
"2232","3633.269"
"2233","3516.566"
"2234","3616.047"
"2235","3749.462"
"2236","3692.001"
"2237","3534.561"
"2238","3506.503"
"2239","3610.829"
"2240","3639.496"
"2241","3504.979"
"2242","3354.629"
"2243","3311.57"
"2244","3313.589"
"2245","3270.46"
"2246","3216.693"
"2247","3242.467"
"2248","3342.439"
"2249","3421.83"
"2250","3418.019"
"2251","3332.474"
"2252","3194.718"
"2253","3110.723"
"2254","3181.094"
"2255","3333.449"
"2256","3421.969"
"2257","3405.852"
"2258","3336.031"
"2259","3252.193"
"2260","3170.512"
"2261","3101.562"
"2262","3044.758"
"2263","2996.392"
"2264","2946.91"
"2265","2886.192"
"2266","2830.185"
"2267","2813.457"
"2268","2821.45"
"2269","2770.927"
"2270","2627.32"
"2271","2496.475"
"2272","2481.348"
"2273","2551.753"
"2274","2636.173"
"2275","2679.394"
"2276","2637.974"
"2277","2523.121"
"2278","2405.894"
"2279","2342.526"
"2280","2353.156"
"2281","2429.84"
"2282","2474.573"
"2283","2388.901"
"2284","2232.213"
"2285","2129.293"
"2286","2107.45"
"2287","2114.765"
"2288","2113.733"
"2289","2090.957"
"2290","2041.336"
"2291","1976.579"
"2292","1910.074"
"2293","1850.025"
"2294","1803.423"
"2295","1780.307"
"2296","1790.292"
"2297","1796.245"
"2298","1716.495"
"2299","1543.269"
"2300","1396.694"
