,"Scan 00840"
"400","15306.19"
"401","15327.93"
"402","15316.07"
"403","15289.67"
"404","15267.65"
"405","15266.82"
"406","15286.96"
"407","15319.18"
"408","15354.65"
"409","15384.77"
"410","15403.75"
"411","15407.8"
"412","15393.17"
"413","15356.4"
"414","15299.64"
"415","15230.21"
"416","15155.58"
"417","15083.14"
"418","15018.81"
"419","14966.72"
"420","14930.88"
"421","14915.2"
"422","14919.08"
"423","14934.7"
"424","14953.61"
"425","14967.48"
"426","14970.73"
"427","14963.52"
"428","14946.75"
"429","14921.3"
"430","14891.32"
"431","14869.69"
"432","14870.72"
"433","14908.6"
"434","14988.36"
"435","15083.64"
"436","15161.47"
"437","15189.12"
"438","15144.47"
"439","15051.3"
"440","14945.72"
"441","14863.61"
"442","14833.73"
"443","14846.98"
"444","14881.48"
"445","14915.48"
"446","14930.01"
"447","14923.85"
"448","14903.16"
"449","14874.05"
"450","14842.36"
"451","14811.95"
"452","14785.7"
"453","14766.46"
"454","14756.36"
"455","14750.4"
"456","14739.52"
"457","14714.68"
"458","14668.13"
"459","14607.19"
"460","14549.17"
"461","14511.42"
"462","14509.57"
"463","14536.07"
"464","14566.05"
"465","14574.38"
"466","14537.85"
"467","14463.22"
"468","14382.22"
"469","14327.14"
"470","14328.47"
"471","14384.84"
"472","14465.72"
"473","14539.69"
"474","14576.68"
"475","14573.23"
"476","14552.22"
"477","14537.54"
"478","14552.01"
"479","14594.03"
"480","14636.16"
"481","14649.87"
"482","14607.78"
"483","14510.24"
"484","14388.57"
"485","14275.57"
"486","14203.13"
"487","14182.2"
"488","14199.38"
"489","14239.99"
"490","14289.48"
"491","14335.33"
"492","14367.38"
"493","14375.65"
"494","14350.58"
"495","14293.1"
"496","14216.88"
"497","14136.27"
"498","14065.31"
"499","14010.75"
"500","13970.6"
"501","13942.33"
"502","13923.42"
"503","13910.91"
"504","13901.32"
"505","13891.13"
"506","13876.98"
"507","13858.24"
"508","13837.55"
"509","13817.67"
"510","13801.23"
"511","13786.72"
"512","13768.09"
"513","13739.07"
"514","13693.86"
"515","13637.12"
"516","13584.48"
"517","13551.99"
"518","13554.84"
"519","13590.45"
"520","13638.89"
"521","13679.62"
"522","13693.09"
"523","13677.04"
"524","13644.72"
"525","13609.92"
"526","13585.65"
"527","13573.92"
"528","13567.68"
"529","13559.65"
"530","13543.1"
"531","13518.07"
"532","13489.68"
"533","13463.09"
"534","13443.04"
"535","13429.52"
"536","13419.42"
"537","13409.57"
"538","13397.22"
"539","13383.13"
"540","13370.12"
"541","13360.97"
"542","13357.88"
"543","13358.09"
"544","13356.47"
"545","13347.87"
"546","13328.25"
"547","13300.71"
"548","13271.25"
"549","13245.83"
"550","13229.8"
"551","13225.13"
"552","13232.63"
"553","13253.12"
"554","13285.06"
"555","13316.5"
"556","13332.67"
"557","13318.92"
"558","13267.73"
"559","13196.43"
"560","13127.67"
"561","13084.01"
"562","13078.6"
"563","13098.99"
"564","13128.46"
"565","13150.37"
"566","13155.93"
"567","13153.04"
"568","13151.74"
"569","13161.91"
"570","13183.75"
"571","13201.32"
"572","13197.18"
"573","13154.49"
"574","13076.44"
"575","12992.23"
"576","12932.67"
"577","12927.12"
"578","12974.04"
"579","13041.07"
"580","13094.6"
"581","13103.34"
"582","13067.36"
"583","13010.55"
"584","12957.26"
"585","12929.5"
"586","12926.99"
"587","12936.84"
"588","12946.08"
"589","12943.76"
"590","12932.23"
"591","12919.33"
"592","12912.86"
"593","12918.84"
"594","12935.08"
"595","12956.96"
"596","12979.92"
"597","12999.61"
"598","13012.4"
"599","13014.78"
"600","13003.31"
"601","12978.2"
"602","12947.73"
"603","12921.27"
"604","12908.05"
"605","12911.18"
"606","12924.45"
"607","12940.88"
"608","12953.61"
"609","12958.77"
"610","12955.68"
"611","12943.79"
"612","12922.87"
"613","12896.64"
"614","12871.76"
"615","12854.93"
"616","12851.82"
"617","12859.73"
"618","12871.85"
"619","12881.36"
"620","12882.33"
"621","12873.2"
"622","12853.83"
"623","12824.05"
"624","12785.46"
"625","12745.26"
"626","12711.75"
"627","12693.14"
"628","12693.09"
"629","12706.02"
"630","12725.26"
"631","12744.22"
"632","12758.27"
"633","12765.28"
"634","12763.28"
"635","12750.72"
"636","12732.31"
"637","12717.99"
"638","12717.78"
"639","12740.18"
"640","12780.33"
"641","12826.45"
"642","12866.77"
"643","12891"
"644","12896.11"
"645","12881.32"
"646","12845.85"
"647","12793.5"
"648","12741.16"
"649","12708.02"
"650","12712.95"
"651","12757.1"
"652","12811.64"
"653","12844.92"
"654","12826.85"
"655","12761.64"
"656","12688.23"
"657","12647.01"
"658","12673.55"
"659","12753.3"
"660","12841.57"
"661","12893.37"
"662","12873.4"
"663","12799.19"
"664","12706.25"
"665","12630.04"
"666","12596.12"
"667","12601.02"
"668","12635.91"
"669","12691.93"
"670","12757.07"
"671","12814.02"
"672","12845.07"
"673","12833.55"
"674","12783.67"
"675","12719.02"
"676","12663.92"
"677","12640.15"
"678","12648"
"679","12676.6"
"680","12715.02"
"681","12754.3"
"682","12794.04"
"683","12836.17"
"684","12882.62"
"685","12930.9"
"686","12968.69"
"687","12982.39"
"688","12958.93"
"689","12902.46"
"690","12837.71"
"691","12790.51"
"692","12783.96"
"693","12809.6"
"694","12838.8"
"695","12842.64"
"696","12799.65"
"697","12727.17"
"698","12655.19"
"699","12613.61"
"700","12618.87"
"701","12653.53"
"702","12694.85"
"703","12720.56"
"704","12722.47"
"705","12710.49"
"706","12695.69"
"707","12688.27"
"708","12688.41"
"709","12689.69"
"710","12685.6"
"711","12671.35"
"712","12651.1"
"713","12631.82"
"714","12620.48"
"715","12620.21"
"716","12625.15"
"717","12628.11"
"718","12622.33"
"719","12612.61"
"720","12617.06"
"721","12654.48"
"722","12739.76"
"723","12849.96"
"724","12940.84"
"725","12968.01"
"726","12903.08"
"727","12783.2"
"728","12662.23"
"729","12593.62"
"730","12601.48"
"731","12656"
"732","12721.68"
"733","12764.43"
"734","12774.84"
"735","12764.92"
"736","12747.41"
"737","12733.31"
"738","12722.65"
"739","12711.1"
"740","12694.31"
"741","12672.21"
"742","12656.19"
"743","12659.56"
"744","12695.09"
"745","12757.75"
"746","12821.03"
"747","12857.19"
"748","12842.44"
"749","12790.08"
"750","12733.76"
"751","12707.27"
"752","12733.02"
"753","12791.8"
"754","12854.93"
"755","12894.07"
"756","12898.2"
"757","12882.88"
"758","12865.91"
"759","12863.75"
"760","12876.28"
"761","12892.16"
"762","12899.83"
"763","12891.09"
"764","12872.51"
"765","12854.74"
"766","12848.37"
"767","12857.28"
"768","12873.41"
"769","12887.53"
"770","12891.1"
"771","12886.35"
"772","12883.61"
"773","12893.42"
"774","12923.18"
"775","12965.02"
"776","13006.44"
"777","13035"
"778","13045.99"
"779","13049.11"
"780","13055.64"
"781","13076.14"
"782","13110.56"
"783","13150.64"
"784","13187.92"
"785","13214.87"
"786","13228.53"
"787","13227.28"
"788","13209.59"
"789","13179.03"
"790","13148.29"
"791","13131.03"
"792","13139.62"
"793","13169.19"
"794","13202.5"
"795","13222.05"
"796","13214.84"
"797","13187.22"
"798","13150.71"
"799","13116.82"
"800","13094.61"
"801","13089.33"
"802","13105.93"
"803","13147.7"
"804","13200.23"
"805","13238.35"
"806","13236.75"
"807","13183.07"
"808","13109.82"
"809","13059.17"
"810","13072.2"
"811","13152.64"
"812","13257.35"
"813","13340.28"
"814","13361.45"
"815","13328.3"
"816","13270.56"
"817","13218.06"
"818","13190.54"
"819","13182.28"
"820","13183.54"
"821","13184.99"
"822","13184.39"
"823","13186.1"
"824","13194.69"
"825","13214.01"
"826","13244.13"
"827","13283.88"
"828","13332.01"
"829","13383.27"
"830","13425.48"
"831","13445.74"
"832","13433"
"833","13395.88"
"834","13355.27"
"835","13332.2"
"836","13340.02"
"837","13367.3"
"838","13397.63"
"839","13415.05"
"840","13415.02"
"841","13405.49"
"842","13395.05"
"843","13390.98"
"844","13392.92"
"845","13397.61"
"846","13401.83"
"847","13403.41"
"848","13402.2"
"849","13398.25"
"850","13392.1"
"851","13389.76"
"852","13400.75"
"853","13434.62"
"854","13494.83"
"855","13565.62"
"856","13627.45"
"857","13661.39"
"858","13662.6"
"859","13640.64"
"860","13605.74"
"861","13567.77"
"862","13534.64"
"863","13513.65"
"864","13511.96"
"865","13529.73"
"866","13556.02"
"867","13578.91"
"868","13587.96"
"869","13585.77"
"870","13581.66"
"871","13585.01"
"872","13602.14"
"873","13632.11"
"874","13672.88"
"875","13722"
"876","13770.87"
"877","13806.21"
"878","13814.59"
"879","13788.58"
"880","13742.11"
"881","13693.92"
"882","13662.37"
"883","13655.46"
"884","13670.05"
"885","13702.46"
"886","13747.78"
"887","13794.87"
"888","13830.54"
"889","13841.83"
"890","13828.57"
"891","13809.33"
"892","13804.16"
"893","13829.87"
"894","13879.11"
"895","13933.72"
"896","13975.55"
"897","13994.86"
"898","13998.2"
"899","13994.06"
"900","13990.36"
"901","13989.88"
"902","13992.36"
"903","13997.49"
"904","14006.1"
"905","14021.87"
"906","14048.91"
"907","14090.56"
"908","14139.09"
"909","14178.69"
"910","14193.32"
"911","14175.23"
"912","14142.75"
"913","14119.34"
"914","14127.21"
"915","14164.84"
"916","14209.66"
"917","14238.3"
"918","14233.66"
"919","14202.48"
"920","14157.24"
"921","14110.41"
"922","14074.52"
"923","14062.15"
"924","14085.91"
"925","14151.72"
"926","14235.59"
"927","14305.11"
"928","14328.75"
"929","14302.67"
"930","14255.49"
"931","14217.68"
"932","14213.93"
"933","14239.48"
"934","14280.21"
"935","14322.17"
"936","14356.12"
"937","14378.98"
"938","14388.04"
"939","14381.89"
"940","14366.23"
"941","14349.21"
"942","14338.82"
"943","14335.43"
"944","14329.1"
"945","14309.15"
"946","14268.9"
"947","14224.76"
"948","14201.48"
"949","14223.32"
"950","14290.97"
"951","14372.47"
"952","14433.37"
"953","14445.89"
"954","14421"
"955","14383.76"
"956","14358.97"
"957","14357.54"
"958","14371.23"
"959","14390.43"
"960","14406.77"
"961","14419.22"
"962","14429.29"
"963","14438.43"
"964","14445.02"
"965","14443.3"
"966","14427.25"
"967","14394.36"
"968","14361.07"
"969","14350.1"
"970","14383.44"
"971","14457.04"
"972","14534.52"
"973","14577.52"
"974","14558.99"
"975","14507.03"
"976","14466.42"
"977","14480.48"
"978","14549.2"
"979","14624.13"
"980","14654.18"
"981","14605.59"
"982","14518.23"
"983","14451.52"
"984","14462.15"
"985","14545.38"
"986","14635.95"
"987","14666.04"
"988","14594.21"
"989","14474.1"
"990","14380.75"
"991","14384.83"
"992","14481.23"
"993","14601.35"
"994","14674.58"
"995","14657.96"
"996","14590.26"
"997","14525.29"
"998","14513.2"
"999","14556.8"
"1000","14626.05"
"1001","14690.29"
"1002","14729.21"
"1003","14746.94"
"1004","14751.18"
"1005","14749.59"
"1006","14748.69"
"1007","14747.03"
"1008","14739.91"
"1009","14722.74"
"1010","14698.89"
"1011","14683.04"
"1012","14690.76"
"1013","14732.78"
"1014","14793.3"
"1015","14847.6"
"1016","14871.55"
"1017","14860.97"
"1018","14835.14"
"1019","14814.67"
"1020","14816.46"
"1021","14841.58"
"1022","14886.93"
"1023","14948.88"
"1024","15012.53"
"1025","15052.63"
"1026","15043.49"
"1027","14974.76"
"1028","14884.33"
"1029","14819.56"
"1030","14823.99"
"1031","14890.44"
"1032","14976.15"
"1033","15037.67"
"1034","15049.39"
"1035","15026.19"
"1036","14988.57"
"1037","14955.88"
"1038","14937.84"
"1039","14939.21"
"1040","14964.7"
"1041","15014.34"
"1042","15080.78"
"1043","15156"
"1044","15231.45"
"1045","15295.71"
"1046","15336.4"
"1047","15341.7"
"1048","15315.54"
"1049","15279.17"
"1050","15254.72"
"1051","15257.78"
"1052","15280.75"
"1053","15310.92"
"1054","15335.97"
"1055","15349.07"
"1056","15347.32"
"1057","15327.99"
"1058","15295.14"
"1059","15267.79"
"1060","15266.92"
"1061","15309.61"
"1062","15383.29"
"1063","15461.92"
"1064","15519.73"
"1065","15544.74"
"1066","15543.59"
"1067","15524.25"
"1068","15495.91"
"1069","15472.97"
"1070","15471.24"
"1071","15504.83"
"1072","15561.05"
"1073","15605.43"
"1074","15603"
"1075","15540.01"
"1076","15452.37"
"1077","15383.07"
"1078","15368.99"
"1079","15400.3"
"1080","15445.67"
"1081","15474.15"
"1082","15474.74"
"1083","15462.4"
"1084","15453.8"
"1085","15461.32"
"1086","15480.82"
"1087","15504.23"
"1088","15523.94"
"1089","15538.61"
"1090","15551.38"
"1091","15565.46"
"1092","15582.21"
"1093","15599.46"
"1094","15614.6"
"1095","15626.02"
"1096","15637.73"
"1097","15655.75"
"1098","15685.61"
"1099","15721.28"
"1100","15745.32"
"1101","15739.83"
"1102","15699.36"
"1103","15651.6"
"1104","15629.74"
"1105","15661.17"
"1106","15726.53"
"1107","15783.87"
"1108","15792.01"
"1109","15745.16"
"1110","15681.99"
"1111","15644.06"
"1112","15658.48"
"1113","15703.33"
"1114","15746.32"
"1115","15758.16"
"1116","15741.2"
"1117","15716.32"
"1118","15704.43"
"1119","15712.56"
"1120","15727.29"
"1121","15733.54"
"1122","15722.54"
"1123","15710.49"
"1124","15719.7"
"1125","15769.7"
"1126","15846.7"
"1127","15915.17"
"1128","15939.49"
"1129","15907.25"
"1130","15842.95"
"1131","15774.41"
"1132","15725.65"
"1133","15704.77"
"1134","15715.73"
"1135","15761.2"
"1136","15828.26"
"1137","15893.56"
"1138","15933.82"
"1139","15940.51"
"1140","15928.48"
"1141","15914.65"
"1142","15911.99"
"1143","15917.8"
"1144","15925.46"
"1145","15928.58"
"1146","15923.17"
"1147","15906.74"
"1148","15877.02"
"1149","15842.13"
"1150","15825.05"
"1151","15849.94"
"1152","15926.81"
"1153","16016.76"
"1154","16070.29"
"1155","16045.56"
"1156","15970.63"
"1157","15910.77"
"1158","15929.88"
"1159","16033.85"
"1160","16159.07"
"1161","16237.79"
"1162","16230.02"
"1163","16171.96"
"1164","16112.83"
"1165","16095.35"
"1166","16117.93"
"1167","16160.61"
"1168","16203.77"
"1169","16235.89"
"1170","16252.98"
"1171","16251.35"
"1172","16233.76"
"1173","16215.9"
"1174","16215.02"
"1175","16243.22"
"1176","16288.47"
"1177","16331.69"
"1178","16355.41"
"1179","16361.48"
"1180","16364.33"
"1181","16378.29"
"1182","16403.57"
"1183","16420.95"
"1184","16409.84"
"1185","16362.29"
"1186","16307.91"
"1187","16283.24"
"1188","16318.18"
"1189","16397.11"
"1190","16485.42"
"1191","16549.79"
"1192","16581.32"
"1193","16592.42"
"1194","16596.12"
"1195","16598.72"
"1196","16594.74"
"1197","16577.46"
"1198","16544.95"
"1199","16513.3"
"1200","16502.81"
"1201","16530.43"
"1202","16584.36"
"1203","16638.41"
"1204","16667.3"
"1205","16670.27"
"1206","16670.94"
"1207","16693.85"
"1208","16746.75"
"1209","16804.38"
"1210","16837.65"
"1211","16826.71"
"1212","16789.26"
"1213","16752.45"
"1214","16740.2"
"1215","16747.46"
"1216","16754.26"
"1217","16741.68"
"1218","16717.19"
"1219","16714.47"
"1220","16768.02"
"1221","16883.14"
"1222","17010.44"
"1223","17094.56"
"1224","17096.1"
"1225","17034.76"
"1226","16943.89"
"1227","16855.21"
"1228","16787.88"
"1229","16755.35"
"1230","16769.95"
"1231","16824.49"
"1232","16895.3"
"1233","16958.4"
"1234","17003.02"
"1235","17038.76"
"1236","17076.94"
"1237","17122.33"
"1238","17160.88"
"1239","17175.22"
"1240","17153.77"
"1241","17117.23"
"1242","17097.31"
"1243","17122.3"
"1244","17181.2"
"1245","17238.44"
"1246","17259.07"
"1247","17237.83"
"1248","17201.97"
"1249","17180.33"
"1250","17187.11"
"1251","17208.48"
"1252","17227.4"
"1253","17232.3"
"1254","17230.46"
"1255","17233.25"
"1256","17249.86"
"1257","17275.3"
"1258","17299.04"
"1259","17311.59"
"1260","17316.77"
"1261","17327.52"
"1262","17356.44"
"1263","17401.8"
"1264","17445.54"
"1265","17468.8"
"1266","17461.57"
"1267","17430.68"
"1268","17384.86"
"1269","17333.84"
"1270","17290.65"
"1271","17268.99"
"1272","17278.73"
"1273","17307.83"
"1274","17336.51"
"1275","17347.39"
"1276","17347.9"
"1277","17360.1"
"1278","17404.86"
"1279","17474.68"
"1280","17535.27"
"1281","17551.74"
"1282","17514.95"
"1283","17454.34"
"1284","17402.5"
"1285","17380.73"
"1286","17383.31"
"1287","17400.49"
"1288","17423.23"
"1289","17445.08"
"1290","17460.23"
"1291","17465.08"
"1292","17470.33"
"1293","17492.41"
"1294","17545.86"
"1295","17623.86"
"1296","17706.23"
"1297","17772.97"
"1298","17812.93"
"1299","17823.3"
"1300","17801.78"
"1301","17753.3"
"1302","17693.16"
"1303","17637.46"
"1304","17600.47"
"1305","17592.49"
"1306","17623.33"
"1307","17696.51"
"1308","17794.75"
"1309","17896.44"
"1310","17982.09"
"1311","18043.12"
"1312","18074.41"
"1313","18072.36"
"1314","18045.27"
"1315","18007.2"
"1316","17971.59"
"1317","17943.29"
"1318","17921.16"
"1319","17904.12"
"1320","17895.15"
"1321","17901.25"
"1322","17929.4"
"1323","17975.85"
"1324","18021.84"
"1325","18047.53"
"1326","18046.66"
"1327","18039.94"
"1328","18051.3"
"1329","18092.57"
"1330","18141.34"
"1331","18169.13"
"1332","18157.87"
"1333","18132.02"
"1334","18126.85"
"1335","18169.71"
"1336","18241.36"
"1337","18305.63"
"1338","18332.09"
"1339","18338.5"
"1340","18366.9"
"1341","18454.7"
"1342","18579.38"
"1343","18677.62"
"1344","18688.8"
"1345","18620.39"
"1346","18541.48"
"1347","18521.53"
"1348","18569.16"
"1349","18620.35"
"1350","18607.56"
"1351","18512.35"
"1352","18393.03"
"1353","18314.41"
"1354","18309.11"
"1355","18343.83"
"1356","18377.2"
"1357","18380.43"
"1358","18358.48"
"1359","18321.92"
"1360","18281.44"
"1361","18248.13"
"1362","18233.15"
"1363","18243.91"
"1364","18270.31"
"1365","18297.24"
"1366","18312.95"
"1367","18325.84"
"1368","18351.79"
"1369","18402.42"
"1370","18456.17"
"1371","18475.99"
"1372","18430.04"
"1373","18340.69"
"1374","18261.85"
"1375","18243.95"
"1376","18284.92"
"1377","18345.17"
"1378","18385.85"
"1379","18395.76"
"1380","18387.58"
"1381","18374.7"
"1382","18367.62"
"1383","18373.81"
"1384","18400.29"
"1385","18441.51"
"1386","18476.46"
"1387","18483.48"
"1388","18457.56"
"1389","18418"
"1390","18385.91"
"1391","18373.04"
"1392","18375.05"
"1393","18386.04"
"1394","18400.68"
"1395","18414.92"
"1396","18424.81"
"1397","18428.38"
"1398","18428.09"
"1399","18427.08"
"1400","18426.14"
"1401","18419.76"
"1402","18401.37"
"1403","18368.75"
"1404","18332.92"
"1405","18307.48"
"1406","18302.93"
"1407","18318.84"
"1408","18352.36"
"1409","18398.63"
"1410","18444.66"
"1411","18475.47"
"1412","18480.25"
"1413","18466.87"
"1414","18448.38"
"1415","18434.89"
"1416","18421.95"
"1417","18400.59"
"1418","18365.09"
"1419","18327.31"
"1420","18305.04"
"1421","18312.49"
"1422","18342.34"
"1423","18379.41"
"1424","18409.82"
"1425","18428.17"
"1426","18432.43"
"1427","18421.35"
"1428","18398.85"
"1429","18371.06"
"1430","18344.49"
"1431","18328.4"
"1432","18333.24"
"1433","18367.03"
"1434","18419.09"
"1435","18470.1"
"1436","18502.71"
"1437","18515.92"
"1438","18516.52"
"1439","18510.74"
"1440","18499.79"
"1441","18482.38"
"1442","18458.28"
"1443","18435.74"
"1444","18427.34"
"1445","18443.46"
"1446","18475.92"
"1447","18507.26"
"1448","18521.45"
"1449","18515.66"
"1450","18493.66"
"1451","18460.43"
"1452","18430.59"
"1453","18423.55"
"1454","18454.08"
"1455","18498.62"
"1456","18514.85"
"1457","18468.04"
"1458","18384.79"
"1459","18320.94"
"1460","18324.22"
"1461","18379.22"
"1462","18441.51"
"1463","18470.87"
"1464","18458.8"
"1465","18410.78"
"1466","18334.04"
"1467","18247.6"
"1468","18175.41"
"1469","18136.69"
"1470","18120.57"
"1471","18104.42"
"1472","18070.28"
"1473","18028.32"
"1474","17998.93"
"1475","17998.47"
"1476","18021.6"
"1477","18055.66"
"1478","18088.03"
"1479","18106.38"
"1480","18098.47"
"1481","18059.11"
"1482","18014.51"
"1483","17999.52"
"1484","18037.53"
"1485","18106.5"
"1486","18173.14"
"1487","18209.63"
"1488","18207.21"
"1489","18161.33"
"1490","18076.22"
"1491","17983.12"
"1492","17918.46"
"1493","17905.35"
"1494","17931.06"
"1495","17976.91"
"1496","18025.14"
"1497","18060.12"
"1498","18066.6"
"1499","18041.58"
"1500","18006.63"
"1501","17986.11"
"1502","17988.01"
"1503","17992.14"
"1504","17975.89"
"1505","17937.99"
"1506","17908.57"
"1507","17919.48"
"1508","17972.97"
"1509","18034.24"
"1510","18067.08"
"1511","18060.86"
"1512","18031.89"
"1513","17997.61"
"1514","17971.95"
"1515","17965.79"
"1516","17988.74"
"1517","18034.32"
"1518","18084.28"
"1519","18120.38"
"1520","18127.57"
"1521","18092.74"
"1522","18007.86"
"1523","17906.13"
"1524","17840.94"
"1525","17855.02"
"1526","17922.56"
"1527","17991.05"
"1528","18018.01"
"1529","18010.55"
"1530","17990.93"
"1531","17976.77"
"1532","17967.98"
"1533","17960.32"
"1534","17954.75"
"1535","17967.51"
"1536","18017.45"
"1537","18103.79"
"1538","18181.92"
"1539","18201.63"
"1540","18146.13"
"1541","18055.97"
"1542","17976.78"
"1543","17927.06"
"1544","17889.53"
"1545","17844.92"
"1546","17785.33"
"1547","17714.43"
"1548","17637"
"1549","17566.37"
"1550","17522.54"
"1551","17523.03"
"1552","17558.17"
"1553","17602.52"
"1554","17633.18"
"1555","17646.84"
"1556","17648.58"
"1557","17643.94"
"1558","17640.62"
"1559","17646.94"
"1560","17666.32"
"1561","17684.79"
"1562","17684.61"
"1563","17655.8"
"1564","17607.73"
"1565","17552.65"
"1566","17500.86"
"1567","17459.23"
"1568","17434.14"
"1569","17427.41"
"1570","17435.04"
"1571","17452.29"
"1572","17466.7"
"1573","17458.89"
"1574","17412.79"
"1575","17353.35"
"1576","17331.86"
"1577","17388.21"
"1578","17474.76"
"1579","17504.86"
"1580","17417.49"
"1581","17276.02"
"1582","17181.16"
"1583","17197.74"
"1584","17276.7"
"1585","17346.59"
"1586","17367.52"
"1587","17365.95"
"1588","17376.33"
"1589","17410.85"
"1590","17450.1"
"1591","17472.58"
"1592","17464.59"
"1593","17419.92"
"1594","17335.23"
"1595","17237.29"
"1596","17172.32"
"1597","17178.9"
"1598","17240.06"
"1599","17315.21"
"1600","17367.46"
"1601","17376.25"
"1602","17325.4"
"1603","17218.86"
"1604","17114.25"
"1605","17077.57"
"1606","17128.41"
"1607","17207.57"
"1608","17249.65"
"1609","17231.75"
"1610","17177.55"
"1611","17112.94"
"1612","17061.35"
"1613","17044.53"
"1614","17078.77"
"1615","17140.97"
"1616","17190.6"
"1617","17197.1"
"1618","17173"
"1619","17142.29"
"1620","17125.99"
"1621","17137.47"
"1622","17188.48"
"1623","17264.35"
"1624","17309.78"
"1625","17269.2"
"1626","17155.82"
"1627","17048.28"
"1628","17020.02"
"1629","17064.07"
"1630","17126.6"
"1631","17162.28"
"1632","17175.96"
"1633","17189.7"
"1634","17211.99"
"1635","17209.05"
"1636","17139.31"
"1637","17005.29"
"1638","16888.61"
"1639","16875.79"
"1640","16965.31"
"1641","17061.84"
"1642","17074.55"
"1643","17015.21"
"1644","16960.21"
"1645","16973.36"
"1646","17039.77"
"1647","17116.37"
"1648","17167.07"
"1649","17177.88"
"1650","17139.31"
"1651","17062.7"
"1652","16995.47"
"1653","16986.23"
"1654","17028.76"
"1655","17062.56"
"1656","17032.31"
"1657","16956.45"
"1658","16894.82"
"1659","16891.32"
"1660","16909.7"
"1661","16889.39"
"1662","16804.28"
"1663","16715.79"
"1664","16697.84"
"1665","16766.19"
"1666","16856.27"
"1667","16901.67"
"1668","16897.11"
"1669","16884.13"
"1670","16898.5"
"1671","16928.67"
"1672","16943.6"
"1673","16919.34"
"1674","16855.68"
"1675","16757.59"
"1676","16644.89"
"1677","16563.03"
"1678","16557.32"
"1679","16618.82"
"1680","16688.48"
"1681","16712.64"
"1682","16697.55"
"1683","16678.67"
"1684","16681.75"
"1685","16694.01"
"1686","16693.44"
"1687","16665.07"
"1688","16607.47"
"1689","16521.61"
"1690","16429.5"
"1691","16373.94"
"1692","16391.03"
"1693","16450.99"
"1694","16490.47"
"1695","16466.6"
"1696","16418.19"
"1697","16403.71"
"1698","16442.99"
"1699","16483.19"
"1700","16466.05"
"1701","16389.36"
"1702","16304.03"
"1703","16256.85"
"1704","16245.1"
"1705","16242.67"
"1706","16227.68"
"1707","16193.5"
"1708","16137.12"
"1709","16076.61"
"1710","16064.61"
"1711","16152.02"
"1712","16308.13"
"1713","16436.21"
"1714","16454.32"
"1715","16385.29"
"1716","16292.36"
"1717","16221.41"
"1718","16170.35"
"1719","16129.38"
"1720","16105.4"
"1721","16126.71"
"1722","16217.15"
"1723","16336.64"
"1724","16405.79"
"1725","16367.33"
"1726","16264.17"
"1727","16166.53"
"1728","16114.66"
"1729","16091.06"
"1730","16072.68"
"1731","16056.64"
"1732","16058.09"
"1733","16088.66"
"1734","16132.16"
"1735","16161"
"1736","16160.99"
"1737","16154.94"
"1738","16171.24"
"1739","16211.83"
"1740","16246.21"
"1741","16244.94"
"1742","16208.17"
"1743","16152.52"
"1744","16094.49"
"1745","16049.27"
"1746","16031.59"
"1747","16040.38"
"1748","16049.76"
"1749","16033.88"
"1750","15996.57"
"1751","15962.55"
"1752","15951.52"
"1753","15956.94"
"1754","15964.64"
"1755","15968.78"
"1756","15979.68"
"1757","16008.66"
"1758","16053.62"
"1759","16101.32"
"1760","16138.99"
"1761","16158.71"
"1762","16154.21"
"1763","16126.57"
"1764","16092.77"
"1765","16071.21"
"1766","16065.75"
"1767","16066.78"
"1768","16064.7"
"1769","16053.14"
"1770","16026.99"
"1771","15989.36"
"1772","15962.57"
"1773","15970.39"
"1774","16007.95"
"1775","16042.77"
"1776","16046.8"
"1777","16027.62"
"1778","16006.76"
"1779","16002.99"
"1780","16028.39"
"1781","16092.52"
"1782","16171.3"
"1783","16208.77"
"1784","16162.88"
"1785","16083.97"
"1786","16056.82"
"1787","16114.15"
"1788","16174.18"
"1789","16144.88"
"1790","16028.07"
"1791","15907.42"
"1792","15854.94"
"1793","15864.26"
"1794","15902.71"
"1795","15943.81"
"1796","15973.06"
"1797","15978.86"
"1798","15972.06"
"1799","15980.52"
"1800","16017.43"
"1801","16028.21"
"1802","15940.37"
"1803","15757.46"
"1804","15604.57"
"1805","15604.57"
"1806","15732.97"
"1807","15874.32"
"1808","15937.13"
"1809","15918.51"
"1810","15835.5"
"1811","15731.76"
"1812","15684.16"
"1813","15756"
"1814","15887.02"
"1815","15958.9"
"1816","15907.1"
"1817","15804.53"
"1818","15742.57"
"1819","15750.09"
"1820","15798.04"
"1821","15855.43"
"1822","15893.21"
"1823","15883.05"
"1824","15815.02"
"1825","15711.56"
"1826","15600.56"
"1827","15533.76"
"1828","15578.29"
"1829","15759.3"
"1830","15957.01"
"1831","16024.12"
"1832","15930.49"
"1833","15783.48"
"1834","15685.75"
"1835","15653.39"
"1836","15666.74"
"1837","15702.88"
"1838","15732.46"
"1839","15727.3"
"1840","15688.67"
"1841","15639.65"
"1842","15604.22"
"1843","15607.52"
"1844","15673.85"
"1845","15785.22"
"1846","15870.25"
"1847","15866.17"
"1848","15796.71"
"1849","15722.88"
"1850","15686.75"
"1851","15689.72"
"1852","15726.27"
"1853","15767.84"
"1854","15769.24"
"1855","15708.37"
"1856","15648.26"
"1857","15668.59"
"1858","15766.03"
"1859","15841.58"
"1860","15812.25"
"1861","15726.8"
"1862","15683.24"
"1863","15721.45"
"1864","15776.04"
"1865","15776.95"
"1866","15723.25"
"1867","15655.23"
"1868","15605.66"
"1869","15584.51"
"1870","15596.9"
"1871","15632.32"
"1872","15666.21"
"1873","15680.83"
"1874","15690.92"
"1875","15719.52"
"1876","15763.89"
"1877","15787.62"
"1878","15759.68"
"1879","15701.5"
"1880","15656.02"
"1881","15648.35"
"1882","15669.89"
"1883","15707.31"
"1884","15736.91"
"1885","15728.86"
"1886","15673.53"
"1887","15615.41"
"1888","15605.23"
"1889","15648.3"
"1890","15712.96"
"1891","15768.39"
"1892","15791.31"
"1893","15761.33"
"1894","15690.84"
"1895","15627.76"
"1896","15611.8"
"1897","15630.54"
"1898","15655.05"
"1899","15668.6"
"1900","15671.71"
"1901","15666.16"
"1902","15653.34"
"1903","15634.49"
"1904","15610.96"
"1905","15584.26"
"1906","15555.09"
"1907","15516.33"
"1908","15456.68"
"1909","15381.22"
"1910","15332.04"
"1911","15353"
"1912","15445.91"
"1913","15584.75"
"1914","15729.67"
"1915","15803.94"
"1916","15732.36"
"1917","15566.12"
"1918","15456.42"
"1919","15497.52"
"1920","15582.96"
"1921","15570.32"
"1922","15442.97"
"1923","15300.08"
"1924","15225.93"
"1925","15228.19"
"1926","15294.9"
"1927","15391.69"
"1928","15460.77"
"1929","15457.84"
"1930","15404.68"
"1931","15341.29"
"1932","15296.37"
"1933","15285.58"
"1934","15315.62"
"1935","15352.33"
"1936","15350.02"
"1937","15309.48"
"1938","15289.66"
"1939","15334.73"
"1940","15388.75"
"1941","15364.29"
"1942","15259.86"
"1943","15187.7"
"1944","15242.82"
"1945","15377.42"
"1946","15494.33"
"1947","15530.99"
"1948","15472.18"
"1949","15319.93"
"1950","15155.99"
"1951","15088.96"
"1952","15146.44"
"1953","15244.83"
"1954","15302.13"
"1955","15292.87"
"1956","15212.34"
"1957","15089.14"
"1958","14996.61"
"1959","14994.48"
"1960","15049.12"
"1961","15095.71"
"1962","15103.98"
"1963","15088.37"
"1964","15063.79"
"1965","15032.35"
"1966","14992.23"
"1967","14949.69"
"1968","14920.69"
"1969","14915.89"
"1970","14918.08"
"1971","14902.76"
"1972","14872.88"
"1973","14861.64"
"1974","14892.08"
"1975","14937.56"
"1976","14959.46"
"1977","14943.59"
"1978","14899.9"
"1979","14840.28"
"1980","14779.91"
"1981","14734.48"
"1982","14714.28"
"1983","14725"
"1984","14763.31"
"1985","14798.6"
"1986","14797.33"
"1987","14759.34"
"1988","14708.78"
"1989","14670.77"
"1990","14671.21"
"1991","14730.34"
"1992","14805.79"
"1993","14817.56"
"1994","14736.04"
"1995","14636.47"
"1996","14596.76"
"1997","14609.43"
"1998","14625.72"
"1999","14621.1"
"2000","14611.21"
"2001","14610.43"
"2002","14602.42"
"2003","14559.74"
"2004","14478.88"
"2005","14387.02"
"2006","14314.42"
"2007","14295.89"
"2008","14364.28"
"2009","14479.19"
"2010","14528.22"
"2011","14439.04"
"2012","14283.69"
"2013","14161.33"
"2014","14126.44"
"2015","14200.56"
"2016","14353.69"
"2017","14434.78"
"2018","14302.93"
"2019","14075.5"
"2020","14005.91"
"2021","14168.07"
"2022","14328.36"
"2023","14271.55"
"2024","14078.42"
"2025","13936.9"
"2026","13915.91"
"2027","13941.52"
"2028","13950.07"
"2029","13953.39"
"2030","13979.82"
"2031","14018.23"
"2032","14024.83"
"2033","13980.68"
"2034","13934.41"
"2035","13939.3"
"2036","13987.58"
"2037","14037.61"
"2038","14062.42"
"2039","14060.69"
"2040","14031.58"
"2041","13962.87"
"2042","13839.8"
"2043","13691.08"
"2044","13593.53"
"2045","13596.49"
"2046","13644.21"
"2047","13662.58"
"2048","13640.88"
"2049","13613.14"
"2050","13600.21"
"2051","13592.99"
"2052","13580.76"
"2053","13568.46"
"2054","13567.29"
"2055","13566.57"
"2056","13527.5"
"2057","13426.71"
"2058","13310.71"
"2059","13241.15"
"2060","13240.43"
"2061","13300.28"
"2062","13398.27"
"2063","13481.77"
"2064","13501.52"
"2065","13465.69"
"2066","13408.06"
"2067","13343.96"
"2068","13264.51"
"2069","13169.34"
"2070","13098.15"
"2071","13095.96"
"2072","13141.39"
"2073","13163.69"
"2074","13129.73"
"2075","13088.22"
"2076","13090.3"
"2077","13133.37"
"2078","13192.77"
"2079","13241.44"
"2080","13249.64"
"2081","13199.94"
"2082","13116.56"
"2083","13031.98"
"2084","12973.47"
"2085","12964.72"
"2086","12997.17"
"2087","13007.74"
"2088","12946.11"
"2089","12854.48"
"2090","12801.46"
"2091","12800.16"
"2092","12814.47"
"2093","12819.16"
"2094","12819.49"
"2095","12821.85"
"2096","12807.39"
"2097","12747.49"
"2098","12665.27"
"2099","12646.12"
"2100","12738.27"
"2101","12853.74"
"2102","12884.99"
"2103","12819.48"
"2104","12701.41"
"2105","12579.51"
"2106","12508.3"
"2107","12525.38"
"2108","12591.55"
"2109","12648.23"
"2110","12661.39"
"2111","12615.52"
"2112","12512.59"
"2113","12387.45"
"2114","12276.79"
"2115","12206.29"
"2116","12196.18"
"2117","12233.96"
"2118","12277.84"
"2119","12301.34"
"2120","12315.61"
"2121","12333.46"
"2122","12344.36"
"2123","12329.33"
"2124","12290.55"
"2125","12251.7"
"2126","12223.94"
"2127","12183.27"
"2128","12106.89"
"2129","12022.57"
"2130","11979.14"
"2131","11983.69"
"2132","11997"
"2133","11986.63"
"2134","11946.3"
"2135","11876.27"
"2136","11792.9"
"2137","11719.67"
"2138","11664.31"
"2139","11616.41"
"2140","11572.92"
"2141","11554.64"
"2142","11579.34"
"2143","11607.03"
"2144","11572.82"
"2145","11486.96"
"2146","11445.36"
"2147","11494.55"
"2148","11529.98"
"2149","11447.64"
"2150","11345.48"
"2151","11405.57"
"2152","11605.87"
"2153","11703.94"
"2154","11565.47"
"2155","11364.59"
"2156","11291.89"
"2157","11313.02"
"2158","11304.05"
"2159","11220.82"
"2160","11097.43"
"2161","10979.57"
"2162","10931.7"
"2163","11001.4"
"2164","11122.35"
"2165","11191.69"
"2166","11185.77"
"2167","11147.79"
"2168","11110.08"
"2169","11079.78"
"2170","11056.73"
"2171","11019.85"
"2172","10944.31"
"2173","10838.52"
"2174","10734.18"
"2175","10666.33"
"2176","10674.38"
"2177","10761.32"
"2178","10795.12"
"2179","10639.54"
"2180","10415.13"
"2181","10377.05"
"2182","10553.94"
"2183","10698.16"
"2184","10646.61"
"2185","10514.16"
"2186","10443.57"
"2187","10447.23"
"2188","10483.66"
"2189","10498.79"
"2190","10427.82"
"2191","10271.63"
"2192","10160.88"
"2193","10194.67"
"2194","10256.99"
"2195","10187.92"
"2196","10035.2"
"2197","9977.307"
"2198","10050.62"
"2199","10093.86"
"2200","10007.15"
"2201","9919.906"
"2202","9971.558"
"2203","10064.02"
"2204","10006.35"
"2205","9815.962"
"2206","9702.175"
"2207","9758.476"
"2208","9839.398"
"2209","9806.652"
"2210","9673.662"
"2211","9498.771"
"2212","9379.535"
"2213","9432.317"
"2214","9612.979"
"2215","9681.046"
"2216","9511.216"
"2217","9305.002"
"2218","9272.157"
"2219","9369.443"
"2220","9468.225"
"2221","9508.761"
"2222","9483.248"
"2223","9413.106"
"2224","9361.785"
"2225","9361.231"
"2226","9332.791"
"2227","9191.222"
"2228","8959.614"
"2229","8708.783"
"2230","8531.715"
"2231","8538.988"
"2232","8714.347"
"2233","8822.548"
"2234","8706.12"
"2235","8565.143"
"2236","8636.078"
"2237","8807.463"
"2238","8814.399"
"2239","8625.094"
"2240","8425.633"
"2241","8323.561"
"2242","8267.535"
"2243","8208.188"
"2244","8167.008"
"2245","8171.313"
"2246","8161.924"
"2247","8045.062"
"2248","7877.1"
"2249","7853.514"
"2250","8012.666"
"2251","8101.556"
"2252","7937.074"
"2253","7698.189"
"2254","7609.273"
"2255","7619.288"
"2256","7558.617"
"2257","7390.146"
"2258","7192.83"
"2259","7042.902"
"2260","7005.538"
"2261","7102.865"
"2262","7222.904"
"2263","7243.13"
"2264","7148.258"
"2265","6968.014"
"2266","6765.448"
"2267","6626.919"
"2268","6554.003"
"2269","6429.946"
"2270","6215.705"
"2271","6097.921"
"2272","6232.031"
"2273","6423.189"
"2274","6391.504"
"2275","6157.77"
"2276","5921.39"
"2277","5767.21"
"2278","5651.312"
"2279","5543.276"
"2280","5452.882"
"2281","5386.917"
"2282","5322.753"
"2283","5235.352"
"2284","5134.059"
"2285","5041.823"
"2286","4950.363"
"2287","4826.443"
"2288","4662.042"
"2289","4486.466"
"2290","4331.255"
"2291","4225.975"
"2292","4179.396"
"2293","4099.949"
"2294","3885.81"
"2295","3633.331"
"2296","3540.031"
"2297","3595.227"
"2298","3586.041"
"2299","3421.222"
"2300","3229.305"
