,"Scan 00913"
"400","12119.29"
"401","12113.32"
"402","12083.29"
"403","12052.4"
"404","12043.67"
"405","12076.37"
"406","12138.44"
"407","12202.04"
"408","12239.39"
"409","12225.39"
"410","12166.91"
"411","12093.02"
"412","12033.02"
"413","12014.8"
"414","12040.94"
"415","12090.47"
"416","12141.65"
"417","12173.31"
"418","12178.62"
"419","12168.33"
"420","12154.22"
"421","12147.86"
"422","12152.63"
"423","12158.72"
"424","12155.21"
"425","12131.33"
"426","12084.6"
"427","12029.9"
"428","11984.17"
"429","11964.24"
"430","11979.83"
"431","12021.69"
"432","12077.51"
"433","12135.03"
"434","12183.6"
"435","12217.82"
"436","12233.44"
"437","12226.25"
"438","12194.53"
"439","12147.38"
"440","12096.8"
"441","12054.72"
"442","12031"
"443","12024.46"
"444","12030.22"
"445","12043.41"
"446","12059.3"
"447","12073.7"
"448","12082.68"
"449","12082.32"
"450","12069.49"
"451","12047.25"
"452","12021.68"
"453","11998.85"
"454","11984.24"
"455","11977.8"
"456","11976.29"
"457","11976.45"
"458","11975.34"
"459","11973.46"
"460","11973.56"
"461","11978.43"
"462","11990.26"
"463","12002.85"
"464","12003.78"
"465","11980.51"
"466","11921.82"
"467","11836.92"
"468","11752.02"
"469","11693.72"
"470","11687.02"
"471","11728.9"
"472","11790.63"
"473","11842.76"
"474","11857.1"
"475","11831.18"
"476","11787.98"
"477","11751.46"
"478","11744.65"
"479","11771.09"
"480","11813.59"
"481","11854.09"
"482","11875.04"
"483","11870.53"
"484","11847.66"
"485","11814.18"
"486","11777.72"
"487","11743.68"
"488","11714.88"
"489","11693.97"
"490","11683.5"
"491","11682.26"
"492","11684.65"
"493","11684.82"
"494","11677.01"
"495","11657.51"
"496","11625.07"
"497","11578.59"
"498","11517.17"
"499","11446.83"
"500","11381.93"
"501","11337.23"
"502","11326.88"
"503","11347.87"
"504","11376.86"
"505","11389.44"
"506","11362.06"
"507","11293.18"
"508","11206.62"
"509","11127.5"
"510","11080.12"
"511","11070.16"
"512","11082.74"
"513","11101.97"
"514","11112.41"
"515","11107.49"
"516","11089.96"
"517","11062.96"
"518","11029.73"
"519","10995.02"
"520","10965.14"
"521","10946.41"
"522","10944.71"
"523","10958.34"
"524","10978.71"
"525","10997.02"
"526","11004.82"
"527","10998.38"
"528","10977.86"
"529","10943.53"
"530","10896.2"
"531","10844.37"
"532","10802.16"
"533","10783.76"
"534","10801.49"
"535","10846.55"
"536","10896.42"
"537","10928.48"
"538","10922.72"
"539","10883.99"
"540","10831.16"
"541","10783.2"
"542","10756.99"
"543","10753.33"
"544","10765.21"
"545","10785.62"
"546","10808.08"
"547","10829.53"
"548","10848.32"
"549","10862.83"
"550","10871.28"
"551","10871.22"
"552","10859.94"
"553","10834.76"
"554","10795.2"
"555","10750.38"
"556","10712.04"
"557","10691.83"
"558","10697.57"
"559","10723.67"
"560","10761.67"
"561","10803.17"
"562","10839.64"
"563","10862.22"
"564","10862.02"
"565","10830.26"
"566","10769.01"
"567","10703.63"
"568","10662.44"
"569","10673.27"
"570","10740.27"
"571","10827.86"
"572","10896.82"
"573","10908.87"
"574","10856.33"
"575","10771.18"
"576","10687.96"
"577","10639.94"
"578","10635.46"
"579","10657.95"
"580","10689.84"
"581","10714.34"
"582","10725.42"
"583","10725.22"
"584","10716.07"
"585","10700.45"
"586","10682.57"
"587","10667.56"
"588","10660.58"
"589","10665.54"
"590","10678.4"
"591","10691.82"
"592","10698.47"
"593","10693.09"
"594","10679.81"
"595","10665.51"
"596","10657.02"
"597","10659.3"
"598","10671.37"
"599","10691.06"
"600","10716.19"
"601","10742.77"
"602","10762.75"
"603","10767.56"
"604","10748.78"
"605","10705.94"
"606","10650.67"
"607","10595.6"
"608","10553.13"
"609","10530.6"
"610","10530.01"
"611","10553.09"
"612","10600.75"
"613","10662.77"
"614","10720.76"
"615","10756.21"
"616","10753.57"
"617","10721.41"
"618","10680.15"
"619","10650.22"
"620","10647.21"
"621","10662.1"
"622","10678.08"
"623","10678.4"
"624","10652.54"
"625","10609.87"
"626","10563.7"
"627","10527.24"
"628","10508.94"
"629","10507.64"
"630","10521.04"
"631","10546.76"
"632","10579.49"
"633","10610.12"
"634","10629.32"
"635","10628.47"
"636","10610.8"
"637","10589.27"
"638","10577.09"
"639","10585.59"
"640","10610.15"
"641","10637.88"
"642","10655.88"
"643","10654.09"
"644","10636.5"
"645","10611.44"
"646","10587.21"
"647","10570.44"
"648","10563"
"649","10565.94"
"650","10580.26"
"651","10604.54"
"652","10633.28"
"653","10660.62"
"654","10680.87"
"655","10692.52"
"656","10698.28"
"657","10701.04"
"658","10703.49"
"659","10706.38"
"660","10709.27"
"661","10711.73"
"662","10713.32"
"663","10713.85"
"664","10713.15"
"665","10711.1"
"666","10707.53"
"667","10702.23"
"668","10695.01"
"669","10685.68"
"670","10676.02"
"671","10671"
"672","10675.89"
"673","10695.48"
"674","10725.52"
"675","10753.3"
"676","10765.84"
"677","10752.28"
"678","10720.27"
"679","10687.1"
"680","10670.05"
"681","10681.32"
"682","10710.93"
"683","10742.84"
"684","10761.12"
"685","10757.34"
"686","10739.92"
"687","10719.5"
"688","10706.57"
"689","10706.96"
"690","10720.94"
"691","10748.45"
"692","10788.87"
"693","10835.02"
"694","10875.52"
"695","10898.98"
"696","10896.79"
"697","10875.1"
"698","10844.87"
"699","10816.99"
"700","10799.23"
"701","10791.43"
"702","10792.18"
"703","10800.05"
"704","10812.76"
"705","10826.95"
"706","10839.17"
"707","10846.33"
"708","10849.31"
"709","10851.62"
"710","10856.82"
"711","10866.96"
"712","10876.67"
"713","10878.14"
"714","10863.61"
"715","10830.94"
"716","10791.22"
"717","10757.43"
"718","10742.22"
"719","10749.65"
"720","10773.84"
"721","10808.38"
"722","10846.83"
"723","10882.12"
"724","10906.83"
"725","10913.58"
"726","10898.43"
"727","10871.64"
"728","10847.05"
"729","10838.44"
"730","10852.04"
"731","10880.29"
"732","10914.18"
"733","10944.89"
"734","10966.81"
"735","10977.14"
"736","10973.17"
"737","10953.58"
"738","10926.07"
"739","10901.93"
"740","10892.42"
"741","10903.56"
"742","10927.18"
"743","10952.74"
"744","10969.91"
"745","10975.21"
"746","10973.42"
"747","10969.81"
"748","10969.25"
"749","10972.67"
"750","10978.93"
"751","10986.82"
"752","10995.47"
"753","11005.25"
"754","11016.77"
"755","11030.67"
"756","11048.19"
"757","11071.48"
"758","11102.79"
"759","11143.9"
"760","11191.29"
"761","11237.76"
"762","11276.09"
"763","11299.86"
"764","11306.28"
"765","11293.56"
"766","11259.98"
"767","11209.23"
"768","11154.66"
"769","11110.58"
"770","11090.47"
"771","11095.56"
"772","11117.82"
"773","11148.99"
"774","11181.74"
"775","11213.19"
"776","11241.83"
"777","11266.13"
"778","11285.14"
"779","11298.95"
"780","11307.74"
"781","11311.94"
"782","11315.62"
"783","11325.61"
"784","11348.84"
"785","11388.87"
"786","11433.12"
"787","11464.15"
"788","11464.7"
"789","11430.79"
"790","11382.25"
"791","11341.42"
"792","11329.17"
"793","11347.59"
"794","11385.19"
"795","11430.21"
"796","11472.56"
"797","11509.19"
"798","11539"
"799","11560.87"
"800","11574.35"
"801","11579.98"
"802","11578.44"
"803","11570.28"
"804","11555.21"
"805","11532.42"
"806","11501.08"
"807","11463.48"
"808","11432.64"
"809","11423.91"
"810","11452.17"
"811","11516.46"
"812","11595.93"
"813","11668.5"
"814","11714.59"
"815","11734.19"
"816","11736.47"
"817","11730.65"
"818","11722.71"
"819","11710.46"
"820","11690.43"
"821","11659.52"
"822","11622"
"823","11588.89"
"824","11571.51"
"825","11578.8"
"826","11607.62"
"827","11650.84"
"828","11701.35"
"829","11751.09"
"830","11790.35"
"831","11809.29"
"832","11799.69"
"833","11771.49"
"834","11745.83"
"835","11744.05"
"836","11777.61"
"837","11826.29"
"838","11863.52"
"839","11863.63"
"840","11825.06"
"841","11772.63"
"842","11732.43"
"843","11725.66"
"844","11743.77"
"845","11767.13"
"846","11776.25"
"847","11764.88"
"848","11751.44"
"849","11757.02"
"850","11800.28"
"851","11871.94"
"852","11944.92"
"853","11991.86"
"854","11995.31"
"855","11969.05"
"856","11933"
"857","11906.58"
"858","11896.65"
"859","11897.3"
"860","11902.02"
"861","11905.8"
"862","11911.56"
"863","11924.82"
"864","11951"
"865","11988.51"
"866","12024.74"
"867","12046.07"
"868","12040.97"
"869","12015.98"
"870","11986.94"
"871","11969.79"
"872","11975.87"
"873","12005.56"
"874","12057.61"
"875","12130.09"
"876","12211.32"
"877","12282.17"
"878","12323.29"
"879","12322.33"
"880","12291.93"
"881","12250.36"
"882","12215.53"
"883","12196.12"
"884","12190.83"
"885","12197.89"
"886","12214.83"
"887","12235.61"
"888","12253.02"
"889","12259.98"
"890","12256.53"
"891","12253.12"
"892","12261.03"
"893","12289.6"
"894","12333.63"
"895","12381.44"
"896","12421.33"
"897","12446.09"
"898","12457.18"
"899","12457.04"
"900","12448.47"
"901","12437.52"
"902","12432.16"
"903","12440.38"
"904","12464.4"
"905","12491.9"
"906","12508.33"
"907","12500.51"
"908","12474.84"
"909","12452.09"
"910","12453.37"
"911","12490.94"
"912","12549.1"
"913","12606.66"
"914","12643.26"
"915","12654.18"
"916","12648.62"
"917","12636.27"
"918","12624.82"
"919","12614.35"
"920","12603.06"
"921","12589.32"
"922","12574.92"
"923","12565.24"
"924","12565.78"
"925","12581.08"
"926","12611.12"
"927","12654.63"
"928","12710.19"
"929","12772.31"
"930","12830.63"
"931","12874.56"
"932","12895.24"
"933","12892.64"
"934","12869.57"
"935","12829"
"936","12781.2"
"937","12745.73"
"938","12742.79"
"939","12786.39"
"940","12856.43"
"941","12921.09"
"942","12949.04"
"943","12932.37"
"944","12894.8"
"945","12862.35"
"946","12856.49"
"947","12872.48"
"948","12896.12"
"949","12913.34"
"950","12917.01"
"951","12909.6"
"952","12894.28"
"953","12874.65"
"954","12856.7"
"955","12847.3"
"956","12853.16"
"957","12873.38"
"958","12896.61"
"959","12910.7"
"960","12905.96"
"961","12886.47"
"962","12861.22"
"963","12839.1"
"964","12825.34"
"965","12820.29"
"966","12823.96"
"967","12835.78"
"968","12852.03"
"969","12867.96"
"970","12878.93"
"971","12885.21"
"972","12893.13"
"973","12909.38"
"974","12937.11"
"975","12962.17"
"976","12965.21"
"977","12927.66"
"978","12854.29"
"979","12776.04"
"980","12725.22"
"981","12726.49"
"982","12771.84"
"983","12844.59"
"984","12928.02"
"985","13004.34"
"986","13054.77"
"987","13060.44"
"988","13013.17"
"989","12943.15"
"990","12889.22"
"991","12888.03"
"992","12938.73"
"993","13008.94"
"994","13065.31"
"995","13085.48"
"996","13079.55"
"997","13063.6"
"998","13052.92"
"999","13052.69"
"1000","13061.07"
"1001","13076.07"
"1002","13095.78"
"1003","13118.46"
"1004","13142.42"
"1005","13165.94"
"1006","13187.68"
"1007","13208.75"
"1008","13231.27"
"1009","13257.23"
"1010","13282.87"
"1011","13296.1"
"1012","13284.19"
"1013","13239.32"
"1014","13180.31"
"1015","13134.98"
"1016","13130.48"
"1017","13171.71"
"1018","13237.41"
"1019","13304.84"
"1020","13355.1"
"1021","13385.67"
"1022","13398.32"
"1023","13395.09"
"1024","13382.36"
"1025","13370.58"
"1026","13370.38"
"1027","13387.18"
"1028","13410.14"
"1029","13425.18"
"1030","13419.76"
"1031","13401.54"
"1032","13392.36"
"1033","13414.28"
"1034","13474.42"
"1035","13545.94"
"1036","13597.3"
"1037","13601.86"
"1038","13575.02"
"1039","13553.49"
"1040","13573.77"
"1041","13645.11"
"1042","13733.27"
"1043","13800.06"
"1044","13814.93"
"1045","13789.64"
"1046","13750.6"
"1047","13723.62"
"1048","13718.24"
"1049","13726.05"
"1050","13737.76"
"1051","13745.75"
"1052","13748.36"
"1053","13745.23"
"1054","13736.32"
"1055","13725.87"
"1056","13721.21"
"1057","13729.74"
"1058","13754.62"
"1059","13789.81"
"1060","13828.01"
"1061","13862.58"
"1062","13891.58"
"1063","13915.25"
"1064","13933.85"
"1065","13948.4"
"1066","13960.97"
"1067","13973.7"
"1068","13988.29"
"1069","14004.56"
"1070","14021.83"
"1071","14039.32"
"1072","14054.65"
"1073","14064.14"
"1074","14064.12"
"1075","14053.32"
"1076","14036.31"
"1077","14018.45"
"1078","14004.89"
"1079","13999.16"
"1080","14004.04"
"1081","14022.15"
"1082","14050.28"
"1083","14077.64"
"1084","14092.93"
"1085","14088.62"
"1086","14071.69"
"1087","14052.57"
"1088","14040.97"
"1089","14036.62"
"1090","14032.17"
"1091","14020.17"
"1092","13998.88"
"1093","13977.48"
"1094","13966.42"
"1095","13973.99"
"1096","13995.93"
"1097","14023.47"
"1098","14047.97"
"1099","14064.22"
"1100","14070.4"
"1101","14064.8"
"1102","14048.7"
"1103","14031.23"
"1104","14022.83"
"1105","14032.28"
"1106","14054.85"
"1107","14079.28"
"1108","14094.5"
"1109","14097.43"
"1110","14095.06"
"1111","14095.06"
"1112","14103.25"
"1113","14119.43"
"1114","14142.06"
"1115","14168.98"
"1116","14191.4"
"1117","14196.62"
"1118","14172.2"
"1119","14121.41"
"1120","14070.78"
"1121","14048.72"
"1122","14073.04"
"1123","14119.6"
"1124","14153.94"
"1125","14145.1"
"1126","14104.01"
"1127","14068.92"
"1128","14078.17"
"1129","14141.39"
"1130","14222.47"
"1131","14281.19"
"1132","14287.96"
"1133","14257.4"
"1134","14215.62"
"1135","14187.26"
"1136","14178.54"
"1137","14183.49"
"1138","14195.94"
"1139","14213.84"
"1140","14241.53"
"1141","14283.93"
"1142","14341.44"
"1143","14396.52"
"1144","14427.1"
"1145","14413.97"
"1146","14369.17"
"1147","14324.18"
"1148","14310.35"
"1149","14336.55"
"1150","14379.4"
"1151","14413.03"
"1152","14420.58"
"1153","14416.48"
"1154","14421.95"
"1155","14454.65"
"1156","14500.23"
"1157","14527.25"
"1158","14505.12"
"1159","14436.26"
"1160","14362.76"
"1161","14329.02"
"1162","14359.75"
"1163","14425.45"
"1164","14487.38"
"1165","14512.68"
"1166","14508.35"
"1167","14498.02"
"1168","14504.25"
"1169","14528.2"
"1170","14551.14"
"1171","14553.69"
"1172","14530.64"
"1173","14505.2"
"1174","14504"
"1175","14544.15"
"1176","14598.16"
"1177","14625.5"
"1178","14590.19"
"1179","14510.26"
"1180","14439.03"
"1181","14429.55"
"1182","14494.67"
"1183","14592.21"
"1184","14675.97"
"1185","14713.62"
"1186","14713.93"
"1187","14693.25"
"1188","14667.45"
"1189","14649.12"
"1190","14649.43"
"1191","14678.72"
"1192","14731.14"
"1193","14786.85"
"1194","14825.65"
"1195","14837.59"
"1196","14830.9"
"1197","14815.66"
"1198","14800.7"
"1199","14790.25"
"1200","14787.42"
"1201","14795.41"
"1202","14818.11"
"1203","14859.72"
"1204","14923.77"
"1205","14998.35"
"1206","15056.1"
"1207","15069.18"
"1208","15029.14"
"1209","14965.68"
"1210","14912.9"
"1211","14896.03"
"1212","14904.17"
"1213","14917.29"
"1214","14917.58"
"1215","14906.97"
"1216","14897.52"
"1217","14900.97"
"1218","14918.7"
"1219","14941.83"
"1220","14961.09"
"1221","14972.46"
"1222","14981.7"
"1223","14995.67"
"1224","15016.87"
"1225","15031.82"
"1226","15023.34"
"1227","14978.88"
"1228","14921.14"
"1229","14888.92"
"1230","14918.67"
"1231","15004.27"
"1232","15103.54"
"1233","15173.52"
"1234","15195.04"
"1235","15185.5"
"1236","15165.41"
"1237","15149.22"
"1238","15134.05"
"1239","15113.92"
"1240","15085.58"
"1241","15060.83"
"1242","15056.67"
"1243","15087.93"
"1244","15145.41"
"1245","15204.78"
"1246","15242.21"
"1247","15253.42"
"1248","15255.67"
"1249","15267.26"
"1250","15295.46"
"1251","15326.49"
"1252","15344.16"
"1253","15339.17"
"1254","15326.08"
"1255","15324.6"
"1256","15350.26"
"1257","15391.42"
"1258","15425.76"
"1259","15432.98"
"1260","15418.22"
"1261","15404.01"
"1262","15412.37"
"1263","15440.79"
"1264","15458.81"
"1265","15434.67"
"1266","15362.83"
"1267","15287.57"
"1268","15258.75"
"1269","15306.23"
"1270","15394.69"
"1271","15475.51"
"1272","15508.74"
"1273","15503.7"
"1274","15487.15"
"1275","15483.83"
"1276","15497.22"
"1277","15518.3"
"1278","15537.93"
"1279","15547.6"
"1280","15539.41"
"1281","15505.67"
"1282","15449.55"
"1283","15390.47"
"1284","15349.16"
"1285","15338.34"
"1286","15351.47"
"1287","15379.2"
"1288","15412.39"
"1289","15442.79"
"1290","15462.36"
"1291","15465.13"
"1292","15458.57"
"1293","15455.56"
"1294","15467.96"
"1295","15496.09"
"1296","15533.09"
"1297","15572.21"
"1298","15611.53"
"1299","15653.77"
"1300","15701.6"
"1301","15747.03"
"1302","15766.84"
"1303","15736.71"
"1304","15654.73"
"1305","15567.28"
"1306","15527.09"
"1307","15565.24"
"1308","15641.22"
"1309","15699.65"
"1310","15697.81"
"1311","15657.92"
"1312","15622.95"
"1313","15630.2"
"1314","15671.52"
"1315","15716.98"
"1316","15738.17"
"1317","15728.86"
"1318","15698.27"
"1319","15656.06"
"1320","15615.16"
"1321","15591.7"
"1322","15601.58"
"1323","15642.86"
"1324","15688.5"
"1325","15709.68"
"1326","15694.61"
"1327","15665.37"
"1328","15648.09"
"1329","15658.82"
"1330","15685.04"
"1331","15709.18"
"1332","15718.55"
"1333","15720.49"
"1334","15727.42"
"1335","15748.55"
"1336","15774.2"
"1337","15787.86"
"1338","15775.81"
"1339","15747.84"
"1340","15725.56"
"1341","15728.78"
"1342","15753.32"
"1343","15778.76"
"1344","15785.35"
"1345","15773.16"
"1346","15760.21"
"1347","15764.57"
"1348","15784.54"
"1349","15794.79"
"1350","15769.04"
"1351","15706.54"
"1352","15646.57"
"1353","15631.73"
"1354","15679.74"
"1355","15757.44"
"1356","15825.44"
"1357","15856.11"
"1358","15853.38"
"1359","15826.44"
"1360","15785.43"
"1361","15743.74"
"1362","15715.53"
"1363","15711.53"
"1364","15726.89"
"1365","15752.23"
"1366","15778.43"
"1367","15797.89"
"1368","15803.59"
"1369","15789.66"
"1370","15759.35"
"1371","15720.16"
"1372","15679.8"
"1373","15647.62"
"1374","15633.9"
"1375","15647.96"
"1376","15685.32"
"1377","15731.73"
"1378","15772.91"
"1379","15798.11"
"1380","15799.65"
"1381","15770.56"
"1382","15718.74"
"1383","15667.55"
"1384","15640.59"
"1385","15645.49"
"1386","15670.06"
"1387","15700.96"
"1388","15727.66"
"1389","15743.8"
"1390","15743.4"
"1391","15727.44"
"1392","15708.82"
"1393","15701.58"
"1394","15711.71"
"1395","15729.19"
"1396","15742.06"
"1397","15742.25"
"1398","15730.79"
"1399","15709.97"
"1400","15682.93"
"1401","15655.11"
"1402","15632.36"
"1403","15618.86"
"1404","15613.74"
"1405","15615.17"
"1406","15621.07"
"1407","15628.54"
"1408","15634.54"
"1409","15636.34"
"1410","15632.76"
"1411","15622.93"
"1412","15607.3"
"1413","15591.96"
"1414","15584.59"
"1415","15591.64"
"1416","15613.37"
"1417","15648.16"
"1418","15691.59"
"1419","15724.15"
"1420","15721.19"
"1421","15665.6"
"1422","15584.89"
"1423","15522.94"
"1424","15516.27"
"1425","15553.85"
"1426","15605.92"
"1427","15645.88"
"1428","15669.19"
"1429","15680.54"
"1430","15685.41"
"1431","15694.6"
"1432","15721.26"
"1433","15775.59"
"1434","15844.94"
"1435","15906.11"
"1436","15938.68"
"1437","15944.8"
"1438","15937.4"
"1439","15928.38"
"1440","15920.63"
"1441","15912.59"
"1442","15902.62"
"1443","15888.46"
"1444","15867.56"
"1445","15838.62"
"1446","15811.06"
"1447","15799.66"
"1448","15816.73"
"1449","15853.3"
"1450","15889.68"
"1451","15907.58"
"1452","15901.18"
"1453","15870.88"
"1454","15818.17"
"1455","15753.18"
"1456","15690.31"
"1457","15642.37"
"1458","15609.81"
"1459","15587.15"
"1460","15569.99"
"1461","15562.74"
"1462","15573.82"
"1463","15607.84"
"1464","15641.61"
"1465","15639.71"
"1466","15574.38"
"1467","15470.59"
"1468","15375.31"
"1469","15328.5"
"1470","15325.05"
"1471","15342.18"
"1472","15357.91"
"1473","15355.23"
"1474","15318.95"
"1475","15241.84"
"1476","15159.73"
"1477","15122.89"
"1478","15165.25"
"1479","15240.32"
"1480","15277.01"
"1481","15224.15"
"1482","15118.78"
"1483","15022.37"
"1484","14982.85"
"1485","14994.67"
"1486","15039.06"
"1487","15095.69"
"1488","15138.99"
"1489","15142.18"
"1490","15092.75"
"1491","15021.94"
"1492","14969.39"
"1493","14960.19"
"1494","14980.21"
"1495","15008.81"
"1496","15028.54"
"1497","15029.36"
"1498","15002.37"
"1499","14953.26"
"1500","14917.08"
"1501","14931.98"
"1502","15003.5"
"1503","15080.8"
"1504","15108.24"
"1505","15071.18"
"1506","15015.56"
"1507","14991.18"
"1508","15010.9"
"1509","15041.35"
"1510","15047.43"
"1511","15024.21"
"1512","14998.61"
"1513","14997.55"
"1514","15018.4"
"1515","15032.42"
"1516","15012.3"
"1517","14963.53"
"1518","14915.66"
"1519","14896.01"
"1520","14902.12"
"1521","14913.6"
"1522","14912.43"
"1523","14902.21"
"1524","14897.14"
"1525","14908.15"
"1526","14925.12"
"1527","14929.72"
"1528","14907.68"
"1529","14864.71"
"1530","14812.64"
"1531","14763.75"
"1532","14732.07"
"1533","14732.03"
"1534","14768.07"
"1535","14815.66"
"1536","14845.11"
"1537","14840.47"
"1538","14816.59"
"1539","14792.39"
"1540","14778.12"
"1541","14769.15"
"1542","14759.4"
"1543","14742.7"
"1544","14712.85"
"1545","14664.54"
"1546","14614.56"
"1547","14602.11"
"1548","14663.27"
"1549","14771.64"
"1550","14852.51"
"1551","14838.33"
"1552","14747.94"
"1553","14650.33"
"1554","14606.24"
"1555","14613.42"
"1556","14642.59"
"1557","14667.55"
"1558","14677.92"
"1559","14668.21"
"1560","14636.36"
"1561","14592.33"
"1562","14548.71"
"1563","14516"
"1564","14499.45"
"1565","14503.46"
"1566","14524.35"
"1567","14544.22"
"1568","14544.06"
"1569","14517.82"
"1570","14475.9"
"1571","14429.6"
"1572","14387.81"
"1573","14357.13"
"1574","14343.63"
"1575","14347.55"
"1576","14365.4"
"1577","14393.23"
"1578","14424.2"
"1579","14450.16"
"1580","14464.32"
"1581","14466.35"
"1582","14457.85"
"1583","14441.37"
"1584","14422.49"
"1585","14407.36"
"1586","14398.35"
"1587","14389.83"
"1588","14375.44"
"1589","14360.31"
"1590","14365.97"
"1591","14413.5"
"1592","14487.03"
"1593","14535.01"
"1594","14509.63"
"1595","14423.98"
"1596","14330.53"
"1597","14276.41"
"1598","14266.51"
"1599","14287.83"
"1600","14326.08"
"1601","14361.91"
"1602","14374.59"
"1603","14354.86"
"1604","14324.19"
"1605","14308.93"
"1606","14318.66"
"1607","14334.38"
"1608","14335.18"
"1609","14322.95"
"1610","14324.56"
"1611","14364.64"
"1612","14420.45"
"1613","14435.92"
"1614","14366.69"
"1615","14259.29"
"1616","14200.45"
"1617","14251.08"
"1618","14360.85"
"1619","14449.84"
"1620","14467.46"
"1621","14437.24"
"1622","14394.04"
"1623","14359.11"
"1624","14332.67"
"1625","14313.48"
"1626","14305.9"
"1627","14319.7"
"1628","14362.31"
"1629","14415.49"
"1630","14446.02"
"1631","14427.75"
"1632","14374.79"
"1633","14315.07"
"1634","14271.45"
"1635","14250.84"
"1636","14256.99"
"1637","14282.28"
"1638","14298.83"
"1639","14278.09"
"1640","14230.98"
"1641","14210.35"
"1642","14263.96"
"1643","14358.44"
"1644","14409.38"
"1645","14352.43"
"1646","14243.98"
"1647","14183.75"
"1648","14230.54"
"1649","14315.57"
"1650","14345.93"
"1651","14288.38"
"1652","14212.83"
"1653","14196.48"
"1654","14247.9"
"1655","14307.71"
"1656","14320.29"
"1657","14295.69"
"1658","14280.81"
"1659","14307.54"
"1660","14332.61"
"1661","14289.93"
"1662","14155.33"
"1663","14011.14"
"1664","13954.89"
"1665","14012.78"
"1666","14112.48"
"1667","14178.05"
"1668","14188.5"
"1669","14164.92"
"1670","14128.37"
"1671","14092.41"
"1672","14067.52"
"1673","14058.9"
"1674","14054.26"
"1675","14037.74"
"1676","14005.88"
"1677","13976.5"
"1678","13968.39"
"1679","13977.58"
"1680","13979.09"
"1681","13951.29"
"1682","13906.63"
"1683","13874.21"
"1684","13872.73"
"1685","13880.3"
"1686","13865.39"
"1687","13820.92"
"1688","13786.47"
"1689","13804.49"
"1690","13860.97"
"1691","13886.07"
"1692","13818.95"
"1693","13697.73"
"1694","13611.03"
"1695","13618.74"
"1696","13666.36"
"1697","13671.72"
"1698","13601.83"
"1699","13516.23"
"1700","13482.37"
"1701","13518.57"
"1702","13596.6"
"1703","13686.73"
"1704","13762.54"
"1705","13799.09"
"1706","13781.4"
"1707","13729.14"
"1708","13669.53"
"1709","13626.33"
"1710","13617.57"
"1711","13658.33"
"1712","13724.4"
"1713","13759.8"
"1714","13720.25"
"1715","13640.75"
"1716","13586.88"
"1717","13593.78"
"1718","13612.9"
"1719","13582.9"
"1720","13499.4"
"1721","13430.93"
"1722","13443.18"
"1723","13517.79"
"1724","13584.79"
"1725","13590.48"
"1726","13556.44"
"1727","13524.88"
"1728","13520.97"
"1729","13537.21"
"1730","13562.02"
"1731","13577.2"
"1732","13558.62"
"1733","13490.67"
"1734","13416.01"
"1735","13401.14"
"1736","13476.89"
"1737","13575.59"
"1738","13614.51"
"1739","13574.26"
"1740","13513.11"
"1741","13488.08"
"1742","13497.72"
"1743","13508.05"
"1744","13496.06"
"1745","13481.22"
"1746","13492.57"
"1747","13534.9"
"1748","13574.7"
"1749","13577.82"
"1750","13546.71"
"1751","13509.6"
"1752","13488.53"
"1753","13473.5"
"1754","13445.15"
"1755","13399.44"
"1756","13361.62"
"1757","13358.69"
"1758","13390.4"
"1759","13433.81"
"1760","13466.4"
"1761","13472.21"
"1762","13437.6"
"1763","13367.17"
"1764","13305.23"
"1765","13299.29"
"1766","13353.59"
"1767","13432.49"
"1768","13500.6"
"1769","13534.19"
"1770","13513.97"
"1771","13440.93"
"1772","13363.37"
"1773","13334.23"
"1774","13359.48"
"1775","13399.8"
"1776","13418.77"
"1777","13410.52"
"1778","13381.16"
"1779","13341.88"
"1780","13315.58"
"1781","13325.57"
"1782","13367.27"
"1783","13409.76"
"1784","13425.19"
"1785","13411.11"
"1786","13374.62"
"1787","13330.73"
"1788","13311.82"
"1789","13349.56"
"1790","13420.55"
"1791","13453.29"
"1792","13395.79"
"1793","13310.66"
"1794","13298.47"
"1795","13387.9"
"1796","13468.85"
"1797","13424.98"
"1798","13283.48"
"1799","13180.32"
"1800","13217.18"
"1801","13329.21"
"1802","13405.82"
"1803","13399.14"
"1804","13361.68"
"1805","13350.5"
"1806","13372.32"
"1807","13402.79"
"1808","13422.7"
"1809","13432.31"
"1810","13435.99"
"1811","13433.37"
"1812","13418.1"
"1813","13384.94"
"1814","13340.22"
"1815","13295.71"
"1816","13261.7"
"1817","13244.59"
"1818","13249.87"
"1819","13276.78"
"1820","13318.81"
"1821","13367.01"
"1822","13401.06"
"1823","13397.02"
"1824","13349"
"1825","13282.92"
"1826","13226.4"
"1827","13188.26"
"1828","13165.22"
"1829","13156.66"
"1830","13171.76"
"1831","13220.86"
"1832","13285.98"
"1833","13315.8"
"1834","13268.45"
"1835","13179.13"
"1836","13114.86"
"1837","13113.13"
"1838","13148.86"
"1839","13189.81"
"1840","13216.25"
"1841","13217.59"
"1842","13187.82"
"1843","13137.68"
"1844","13082.14"
"1845","13041.43"
"1846","13042.4"
"1847","13105.49"
"1848","13202.41"
"1849","13283.82"
"1850","13315.97"
"1851","13298.59"
"1852","13237.31"
"1853","13160.07"
"1854","13110.96"
"1855","13120.75"
"1856","13170.47"
"1857","13229.98"
"1858","13272.87"
"1859","13276.99"
"1860","13227.65"
"1861","13154.35"
"1862","13103.17"
"1863","13095.53"
"1864","13108.27"
"1865","13116.25"
"1866","13123.4"
"1867","13150.96"
"1868","13202.81"
"1869","13233.28"
"1870","13191.55"
"1871","13096.9"
"1872","13031.42"
"1873","13053.12"
"1874","13103.45"
"1875","13093.67"
"1876","13014.65"
"1877","12961.41"
"1878","13016.63"
"1879","13130.92"
"1880","13200.74"
"1881","13180.42"
"1882","13133.36"
"1883","13128.87"
"1884","13171.64"
"1885","13228.15"
"1886","13266.75"
"1887","13262.38"
"1888","13193.97"
"1889","13089.48"
"1890","13016.74"
"1891","13018.96"
"1892","13042.38"
"1893","13013.25"
"1894","12932.77"
"1895","12883.59"
"1896","12930.3"
"1897","13023.02"
"1898","13076.3"
"1899","13062.69"
"1900","13037"
"1901","13049.95"
"1902","13080.19"
"1903","13076.23"
"1904","13024.06"
"1905","12977.67"
"1906","12990.17"
"1907","13039.6"
"1908","13063.71"
"1909","13032.49"
"1910","12989.9"
"1911","12986.16"
"1912","13022.62"
"1913","13068.24"
"1914","13096.04"
"1915","13092.03"
"1916","13046.57"
"1917","12983.47"
"1918","12953.03"
"1919","12986.33"
"1920","13047.52"
"1921","13088.02"
"1922","13086.74"
"1923","13047.93"
"1924","12983.32"
"1925","12930.09"
"1926","12929.88"
"1927","12976.19"
"1928","13012.19"
"1929","12995.24"
"1930","12957.59"
"1931","12951.02"
"1932","12981.17"
"1933","13000.26"
"1934","12971.12"
"1935","12924.75"
"1936","12912.09"
"1937","12938.75"
"1938","12953.42"
"1939","12911.47"
"1940","12824.13"
"1941","12721.53"
"1942","12639.6"
"1943","12622"
"1944","12698.98"
"1945","12821.89"
"1946","12915.11"
"1947","12938.59"
"1948","12900.97"
"1949","12818.89"
"1950","12734.83"
"1951","12699.74"
"1952","12726.21"
"1953","12774.13"
"1954","12803.53"
"1955","12797.73"
"1956","12748.73"
"1957","12668.66"
"1958","12596.75"
"1959","12567.4"
"1960","12577.26"
"1961","12609.86"
"1962","12642"
"1963","12641.83"
"1964","12586.97"
"1965","12507.42"
"1966","12449.6"
"1967","12440.47"
"1968","12483.58"
"1969","12572.85"
"1970","12663.7"
"1971","12701.76"
"1972","12680.41"
"1973","12645.7"
"1974","12634.17"
"1975","12630.47"
"1976","12606.28"
"1977","12548.72"
"1978","12460.12"
"1979","12352.74"
"1980","12272.47"
"1981","12269.39"
"1982","12329.61"
"1983","12384.32"
"1984","12386.23"
"1985","12359.91"
"1986","12341.78"
"1987","12340.24"
"1988","12343.3"
"1989","12339.84"
"1990","12322.26"
"1991","12285.57"
"1992","12246.83"
"1993","12236.4"
"1994","12262.66"
"1995","12288.46"
"1996","12276.78"
"1997","12238.42"
"1998","12207.18"
"1999","12195.85"
"2000","12182.46"
"2001","12147.56"
"2002","12107.33"
"2003","12090.89"
"2004","12104.78"
"2005","12126.47"
"2006","12136.03"
"2007","12134.19"
"2008","12127.12"
"2009","12110.79"
"2010","12071.13"
"2011","12003.96"
"2012","11939.5"
"2013","11913.35"
"2014","11934.46"
"2015","11992.18"
"2016","12059.38"
"2017","12070.8"
"2018","11969.72"
"2019","11829.32"
"2020","11790.99"
"2021","11885.51"
"2022","11954.44"
"2023","11875.91"
"2024","11862.38"
"2025","12238.41"
"2026","12892.6"
"2027","13191.27"
"2028","12700.16"
"2029","11910.26"
"2030","11509.95"
"2031","11594.94"
"2032","11769.72"
"2033","11763.91"
"2034","11673.85"
"2035","11640.72"
"2036","11667.57"
"2037","11681.06"
"2038","11651.59"
"2039","11625.4"
"2040","11644.93"
"2041","11687.5"
"2042","11707.81"
"2043","11681.93"
"2044","11609.69"
"2045","11507.24"
"2046","11443.35"
"2047","11490.19"
"2048","11610.48"
"2049","11689.68"
"2050","11663.83"
"2051","11579.43"
"2052","11494.44"
"2053","11447.2"
"2054","11466.28"
"2055","11529.08"
"2056","11547.21"
"2057","11458.61"
"2058","11325.41"
"2059","11236.51"
"2060","11210.72"
"2061","11212.28"
"2062","11215.84"
"2063","11222.92"
"2064","11235.68"
"2065","11233.55"
"2066","11186.6"
"2067","11103.72"
"2068","11044.44"
"2069","11054.32"
"2070","11109.65"
"2071","11170.68"
"2072","11213.95"
"2073","11228.09"
"2074","11209.79"
"2075","11172.04"
"2076","11130.01"
"2077","11099.42"
"2078","11095.28"
"2079","11104.18"
"2080","11080.11"
"2081","11002.27"
"2082","10939.89"
"2083","10970.76"
"2084","11058.63"
"2085","11096.96"
"2086","11040.86"
"2087","10951.97"
"2088","10891.17"
"2089","10862"
"2090","10849.87"
"2091","10838.63"
"2092","10810.78"
"2093","10757.75"
"2094","10692.84"
"2095","10633.66"
"2096","10605.23"
"2097","10634.74"
"2098","10709.71"
"2099","10769.86"
"2100","10774.64"
"2101","10758.8"
"2102","10767.86"
"2103","10794.96"
"2104","10802.24"
"2105","10765.96"
"2106","10685.21"
"2107","10571.56"
"2108","10482.39"
"2109","10481.17"
"2110","10535.67"
"2111","10542.46"
"2112","10465.3"
"2113","10401.13"
"2114","10434.86"
"2115","10501.08"
"2116","10489.08"
"2117","10401.02"
"2118","10339.95"
"2119","10358.47"
"2120","10385.2"
"2121","10348.08"
"2122","10283.85"
"2123","10269.7"
"2124","10308.48"
"2125","10327.25"
"2126","10283.94"
"2127","10225.59"
"2128","10204.43"
"2129","10205.14"
"2130","10183.73"
"2131","10134.6"
"2132","10094.82"
"2133","10089.46"
"2134","10103.86"
"2135","10117.05"
"2136","10113.63"
"2137","10081.12"
"2138","10017.51"
"2139","9932.862"
"2140","9840.432"
"2141","9760.536"
"2142","9714.279"
"2143","9718.26"
"2144","9785.638"
"2145","9889.847"
"2146","9959.134"
"2147","9946.746"
"2148","9882.899"
"2149","9808.786"
"2150","9747.208"
"2151","9711.663"
"2152","9688.092"
"2153","9632.853"
"2154","9534.021"
"2155","9465.457"
"2156","9496.767"
"2157","9574.86"
"2158","9599.715"
"2159","9560.212"
"2160","9532.066"
"2161","9557.035"
"2162","9591.012"
"2163","9586.988"
"2164","9550.943"
"2165","9506.652"
"2166","9456.37"
"2167","9384.337"
"2168","9293.12"
"2169","9221.668"
"2170","9200.403"
"2171","9199.504"
"2172","9174.769"
"2173","9127.583"
"2174","9090.693"
"2175","9068.038"
"2176","9017.643"
"2177","8921.646"
"2178","8865.538"
"2179","8940.78"
"2180","9068.868"
"2181","9082.218"
"2182","8963.225"
"2183","8877.232"
"2184","8920.815"
"2185","8971.811"
"2186","8899.176"
"2187","8762.087"
"2188","8692.192"
"2189","8715.237"
"2190","8761.07"
"2191","8779.193"
"2192","8764.793"
"2193","8721.92"
"2194","8670.988"
"2195","8635.989"
"2196","8627.31"
"2197","8646.001"
"2198","8667.297"
"2199","8631.366"
"2200","8507.209"
"2201","8358.743"
"2202","8259.407"
"2203","8221.781"
"2204","8231.973"
"2205","8273.253"
"2206","8326.344"
"2207","8368.914"
"2208","8373.066"
"2209","8321.937"
"2210","8249.568"
"2211","8198.636"
"2212","8156.908"
"2213","8081.2"
"2214","7985.603"
"2215","7954.598"
"2216","8016.353"
"2217","8043.524"
"2218","7922.594"
"2219","7762.538"
"2220","7737.054"
"2221","7807.831"
"2222","7781.117"
"2223","7625.975"
"2224","7562.053"
"2225","7724.071"
"2226","7912.5"
"2227","7903.567"
"2228","7769.101"
"2229","7698.125"
"2230","7708.383"
"2231","7669.775"
"2232","7534.895"
"2233","7407.051"
"2234","7372.115"
"2235","7399.33"
"2236","7433.047"
"2237","7427.969"
"2238","7347.663"
"2239","7239.112"
"2240","7226.095"
"2241","7323.089"
"2242","7339.857"
"2243","7147.928"
"2244","6932.642"
"2245","6915.154"
"2246","7008.901"
"2247","6988.373"
"2248","6831.052"
"2249","6704.412"
"2250","6692.197"
"2251","6714.655"
"2252","6691.123"
"2253","6599.629"
"2254","6439.141"
"2255","6267.625"
"2256","6166.465"
"2257","6149.201"
"2258","6170.063"
"2259","6180.402"
"2260","6130.319"
"2261","5997.921"
"2262","5851.175"
"2263","5764.425"
"2264","5736.044"
"2265","5734.94"
"2266","5742.185"
"2267","5748.029"
"2268","5741"
"2269","5706.981"
"2270","5635.682"
"2271","5527.438"
"2272","5386.473"
"2273","5228.154"
"2274","5072.265"
"2275","4946.705"
"2276","4883.008"
"2277","4875.368"
"2278","4876.841"
"2279","4843.07"
"2280","4739.338"
"2281","4561.892"
"2282","4419.912"
"2283","4418.508"
"2284","4431.037"
"2285","4243.313"
"2286","3922.874"
"2287","3762.53"
"2288","3841.596"
"2289","3923.113"
"2290","3838.356"
"2291","3660.435"
"2292","3491.255"
"2293","3382.952"
"2294","3361.056"
"2295","3339.896"
"2296","3179.546"
"2297","2913.224"
"2298","2741.624"
"2299","2737.339"
"2300","2744.724"
