,"Scan 00898"
"400","9662.505"
"401","9614.475"
"402","9538.254"
"403","9461.456"
"404","9411.506"
"405","9411.842"
"406","9453.17"
"407","9509.675"
"408","9555.603"
"409","9567.309"
"410","9546.374"
"411","9511.889"
"412","9483.169"
"413","9478.566"
"414","9499.584"
"415","9532.018"
"416","9561.159"
"417","9572.621"
"418","9559.286"
"419","9522.986"
"420","9466.092"
"421","9391.061"
"422","9307.454"
"423","9236.295"
"424","9199.498"
"425","9218.723"
"426","9298.077"
"427","9405.157"
"428","9503.192"
"429","9555.697"
"430","9541.772"
"431","9482.123"
"432","9404.253"
"433","9335.471"
"434","9296.719"
"435","9287.392"
"436","9302.257"
"437","9336.118"
"438","9382.863"
"439","9432.246"
"440","9472.944"
"441","9493.713"
"442","9485.701"
"443","9452.783"
"444","9403.135"
"445","9344.875"
"446","9286.05"
"447","9234.505"
"448","9197.98"
"449","9184.158"
"450","9198.791"
"451","9232.003"
"452","9266.283"
"453","9284.181"
"454","9270.406"
"455","9230.32"
"456","9181.132"
"457","9140.072"
"458","9123.131"
"459","9132.442"
"460","9161.001"
"461","9201.681"
"462","9247.099"
"463","9285.532"
"464","9302.034"
"465","9281.676"
"466","9211.134"
"467","9102.912"
"468","8991.008"
"469","8909.862"
"470","8891.943"
"471","8934.602"
"472","9003.063"
"473","9061.581"
"474","9075.869"
"475","9040.28"
"476","8977.549"
"477","8911.488"
"478","8865.195"
"479","8846.899"
"480","8849.08"
"481","8863.502"
"482","8882.063"
"483","8899.183"
"484","8912.083"
"485","8918.146"
"486","8914.867"
"487","8902.517"
"488","8884.592"
"489","8864.76"
"490","8846.57"
"491","8830.794"
"492","8814.884"
"493","8796.106"
"494","8771.772"
"495","8739.884"
"496","8699.294"
"497","8648.904"
"498","8587.815"
"499","8521.307"
"500","8462.105"
"501","8423.321"
"502","8417.488"
"503","8441.095"
"504","8471.597"
"505","8485.462"
"506","8459.958"
"507","8392.563"
"508","8304.066"
"509","8216.436"
"510","8151.04"
"511","8115.718"
"512","8103.365"
"513","8106.133"
"514","8116.217"
"515","8125.739"
"516","8126.744"
"517","8111.314"
"518","8072.096"
"519","8013.331"
"520","7950.589"
"521","7899.832"
"522","7876.219"
"523","7880.967"
"524","7902.739"
"525","7929.806"
"526","7950.899"
"527","7961.412"
"528","7962.198"
"529","7954.262"
"530","7938.637"
"531","7916.737"
"532","7890.26"
"533","7860.897"
"534","7830.294"
"535","7799.619"
"536","7769.728"
"537","7741.47"
"538","7715.494"
"539","7690.503"
"540","7664.11"
"541","7633.924"
"542","7598.385"
"543","7562.582"
"544","7534.82"
"545","7523.381"
"546","7534.764"
"547","7563.761"
"548","7600.414"
"549","7634.793"
"550","7658.332"
"551","7669.636"
"552","7669.729"
"553","7659.638"
"554","7640.794"
"555","7616.438"
"556","7590.292"
"557","7566.063"
"558","7546.689"
"559","7532.486"
"560","7523.194"
"561","7518.561"
"562","7517.926"
"563","7519.529"
"564","7521.432"
"565","7521.711"
"566","7520.586"
"567","7522.86"
"568","7533.917"
"569","7559.014"
"570","7596.062"
"571","7630.656"
"572","7647.277"
"573","7630.82"
"574","7579.87"
"575","7510.783"
"576","7441.036"
"577","7387.548"
"578","7356.149"
"579","7341.59"
"580","7338.163"
"581","7340.396"
"582","7345.903"
"583","7354.653"
"584","7366.668"
"585","7381.78"
"586","7397.924"
"587","7411.968"
"588","7420.784"
"589","7421.888"
"590","7417.101"
"591","7410.001"
"592","7404.162"
"593","7402.688"
"594","7406.579"
"595","7416.215"
"596","7431.979"
"597","7452.007"
"598","7467.243"
"599","7467.215"
"600","7441.542"
"601","7389.106"
"602","7329.252"
"603","7284.005"
"604","7275.016"
"605","7307.146"
"606","7359.511"
"607","7409.107"
"608","7433.672"
"609","7427.937"
"610","7404.749"
"611","7377.792"
"612","7359.928"
"613","7353.233"
"614","7351.874"
"615","7349.854"
"616","7341.885"
"617","7328.344"
"618","7312.405"
"619","7297.25"
"620","7285.408"
"621","7276.114"
"622","7267.559"
"623","7257.936"
"624","7245.662"
"625","7229.837"
"626","7209.705"
"627","7184.524"
"628","7155.704"
"629","7128.984"
"630","7110.61"
"631","7106.701"
"632","7119.379"
"633","7145.62"
"634","7182.074"
"635","7225.192"
"636","7267.956"
"637","7300.496"
"638","7312.881"
"639","7297.076"
"640","7261.334"
"641","7222.307"
"642","7196.661"
"643","7196.565"
"644","7212.024"
"645","7226.202"
"646","7222.332"
"647","7191.309"
"648","7145.918"
"649","7102.803"
"650","7078.434"
"651","7079.623"
"652","7096.909"
"653","7119.293"
"654","7136.159"
"655","7145.326"
"656","7153.154"
"657","7166.368"
"658","7190.705"
"659","7221.66"
"660","7248.566"
"661","7260.696"
"662","7250.078"
"663","7223.748"
"664","7193.862"
"665","7172.546"
"666","7167.455"
"667","7173.055"
"668","7181.402"
"669","7184.641"
"670","7180.263"
"671","7174.505"
"672","7174.408"
"673","7186.454"
"674","7206.245"
"675","7219.246"
"676","7210.577"
"677","7168.199"
"678","7104.872"
"679","7046.203"
"680","7017.848"
"681","7038"
"682","7092.486"
"683","7158.327"
"684","7212.638"
"685","7240.097"
"686","7242.247"
"687","7222.909"
"688","7186.04"
"689","7140.19"
"690","7099.404"
"691","7078.016"
"692","7088.653"
"693","7124.577"
"694","7166.629"
"695","7195.499"
"696","7196.338"
"697","7177.598"
"698","7155.32"
"699","7145.495"
"700","7156.531"
"701","7177.688"
"702","7195.258"
"703","7195.86"
"704","7177.2"
"705","7151.176"
"706","7130.595"
"707","7126.973"
"708","7136.71"
"709","7146.268"
"710","7141.959"
"711","7114.281"
"712","7075.104"
"713","7043.116"
"714","7036.926"
"715","7063.781"
"716","7104.117"
"717","7134.533"
"718","7132.406"
"719","7097.161"
"720","7053.571"
"721","7027.765"
"722","7042.638"
"723","7089.972"
"724","7144.036"
"725","7178.949"
"726","7176.377"
"727","7148.826"
"728","7116.685"
"729","7100.195"
"730","7109.011"
"731","7133.372"
"732","7161.454"
"733","7181.929"
"734","7192.047"
"735","7196.512"
"736","7200.271"
"737","7207.792"
"738","7220.477"
"739","7238.505"
"740","7262.049"
"741","7289.801"
"742","7316.453"
"743","7336.025"
"744","7342.691"
"745","7335.133"
"746","7317.494"
"747","7294.238"
"748","7269.855"
"749","7249.186"
"750","7237.252"
"751","7239.075"
"752","7256.702"
"753","7281.342"
"754","7301.734"
"755","7306.786"
"756","7294.112"
"757","7274.688"
"758","7260.609"
"759","7262.936"
"760","7280.089"
"761","7301.925"
"762","7318.153"
"763","7321.251"
"764","7316.024"
"765","7310.705"
"766","7313.45"
"767","7326.455"
"768","7341.337"
"769","7348.638"
"770","7339.797"
"771","7319.298"
"772","7301.508"
"773","7301.025"
"774","7328.004"
"775","7370.924"
"776","7411.651"
"777","7432.165"
"778","7425.216"
"779","7403.66"
"780","7382.555"
"781","7376.205"
"782","7387.892"
"783","7412.38"
"784","7444.217"
"785","7477.633"
"786","7505.317"
"787","7519.497"
"788","7512.504"
"789","7485.587"
"790","7455.978"
"791","7442.551"
"792","7462.318"
"793","7507.228"
"794","7551.214"
"795","7567.838"
"796","7539.804"
"797","7489.098"
"798","7448.255"
"799","7449.366"
"800","7499.013"
"801","7563.866"
"802","7607.146"
"803","7595.969"
"804","7539.33"
"805","7471.772"
"806","7428.18"
"807","7431.972"
"808","7466.969"
"809","7508.452"
"810","7532.258"
"811","7533.577"
"812","7531.834"
"813","7547.981"
"814","7599.035"
"815","7671.357"
"816","7736.894"
"817","7767.552"
"818","7748.968"
"819","7701.534"
"820","7651.052"
"821","7622.231"
"822","7618.25"
"823","7622.448"
"824","7617.434"
"825","7590.455"
"826","7553.017"
"827","7524.518"
"828","7524.171"
"829","7556.5"
"830","7600.765"
"831","7633.74"
"832","7634.524"
"833","7607.71"
"834","7573.689"
"835","7553.08"
"836","7560.065"
"837","7588.131"
"838","7626.596"
"839","7664.845"
"840","7693.744"
"841","7705.78"
"842","7693.527"
"843","7652.267"
"844","7593.636"
"845","7535.375"
"846","7495.151"
"847","7483.689"
"848","7498.792"
"849","7536.854"
"850","7593.546"
"851","7656.117"
"852","7706.457"
"853","7726.381"
"854","7706.92"
"855","7668.216"
"856","7636.13"
"857","7635.567"
"858","7668.622"
"859","7714.069"
"860","7749.63"
"861","7757.626"
"862","7744.717"
"863","7725.593"
"864","7714.821"
"865","7719.379"
"866","7734.235"
"867","7753.298"
"868","7770.811"
"869","7783.925"
"870","7791.297"
"871","7791.61"
"872","7786.766"
"873","7786.407"
"874","7801.31"
"875","7841.112"
"876","7898.642"
"877","7953.891"
"878","7986.535"
"879","7983.237"
"880","7955.785"
"881","7921.608"
"882","7897.656"
"883","7888.358"
"884","7884.662"
"885","7876.854"
"886","7857.913"
"887","7834.938"
"888","7819.622"
"889","7823.509"
"890","7850.45"
"891","7893"
"892","7942.814"
"893","7992.03"
"894","8036.311"
"895","8072.909"
"896","8099.09"
"897","8112.816"
"898","8113.403"
"899","8100.322"
"900","8073.571"
"901","8038.538"
"902","8003.769"
"903","7977.846"
"904","7966.922"
"905","7971.043"
"906","7989.314"
"907","8020.543"
"908","8059.506"
"909","8097.996"
"910","8127.741"
"911","8143.564"
"912","8150.076"
"913","8153.808"
"914","8160.986"
"915","8172.015"
"916","8182.116"
"917","8186.336"
"918","8180.684"
"919","8164.886"
"920","8139.554"
"921","8105.609"
"922","8071.644"
"923","8054.202"
"924","8070.196"
"925","8129.589"
"926","8211.035"
"927","8284.394"
"928","8320.25"
"929","8312.14"
"930","8280.492"
"931","8247.271"
"932","8230.07"
"933","8224.254"
"934","8218.152"
"935","8200.363"
"936","8169.751"
"937","8138.344"
"938","8119.034"
"939","8121.502"
"940","8137.668"
"941","8153.351"
"942","8154.591"
"943","8137.642"
"944","8112.604"
"945","8090.559"
"946","8081.336"
"947","8087.421"
"948","8108.666"
"949","8144.741"
"950","8187.125"
"951","8215.911"
"952","8210.348"
"953","8156.195"
"954","8077.421"
"955","8011.855"
"956","7996.705"
"957","8039.874"
"958","8108.815"
"959","8168.014"
"960","8188.401"
"961","8177.7"
"962","8156.651"
"963","8145.715"
"964","8152.843"
"965","8169.375"
"966","8185.502"
"967","8192.971"
"968","8191.89"
"969","8185.144"
"970","8175.573"
"971","8164.149"
"972","8149.532"
"973","8130.236"
"974","8105.648"
"975","8079.402"
"976","8056.415"
"977","8041.521"
"978","8037.162"
"979","8043.084"
"980","8058.902"
"981","8083.501"
"982","8112.711"
"983","8141.549"
"984","8165.115"
"985","8180.448"
"986","8186.493"
"987","8182.276"
"988","8168.51"
"989","8151.975"
"990","8140.817"
"991","8142.69"
"992","8156.729"
"993","8174.93"
"994","8189.061"
"995","8194.318"
"996","8196.021"
"997","8201.352"
"998","8216.804"
"999","8240.034"
"1000","8262.559"
"1001","8275.783"
"1002","8275.3"
"1003","8266.58"
"1004","8256.53"
"1005","8252.052"
"1006","8259.093"
"1007","8277.111"
"1008","8302.895"
"1009","8333.14"
"1010","8360.759"
"1011","8373.218"
"1012","8357.563"
"1013","8306.294"
"1014","8241.649"
"1015","8195.922"
"1016","8200.423"
"1017","8254.715"
"1018","8321.059"
"1019","8359.56"
"1020","8342.726"
"1021","8295.487"
"1022","8256.617"
"1023","8263.188"
"1024","8317.384"
"1025","8389.078"
"1026","8446.906"
"1027","8467.891"
"1028","8455.488"
"1029","8418.348"
"1030","8365.636"
"1031","8313.157"
"1032","8281.384"
"1033","8290.826"
"1034","8344.744"
"1035","8407.205"
"1036","8436.846"
"1037","8399.321"
"1038","8320.34"
"1039","8256.055"
"1040","8262.256"
"1041","8352.966"
"1042","8475.438"
"1043","8570.906"
"1044","8592.79"
"1045","8562.324"
"1046","8524.162"
"1047","8521.712"
"1048","8562.96"
"1049","8617.063"
"1050","8651.17"
"1051","8642.899"
"1052","8606.838"
"1053","8565.735"
"1054","8541.001"
"1055","8535.462"
"1056","8538.465"
"1057","8539.083"
"1058","8533.146"
"1059","8531.291"
"1060","8546.111"
"1061","8587.24"
"1062","8642.012"
"1063","8687.61"
"1064","8701.596"
"1065","8679.993"
"1066","8643.664"
"1067","8615.235"
"1068","8611.606"
"1069","8625.475"
"1070","8643.146"
"1071","8651.697"
"1072","8650.801"
"1073","8650.31"
"1074","8660.349"
"1075","8682.81"
"1076","8700.384"
"1077","8693.021"
"1078","8645.301"
"1079","8577.137"
"1080","8524.731"
"1081","8523.545"
"1082","8576.25"
"1083","8642.961"
"1084","8680.93"
"1085","8661.876"
"1086","8613.032"
"1087","8574.943"
"1088","8584.68"
"1089","8632.975"
"1090","8677.75"
"1091","8676.436"
"1092","8614.192"
"1093","8529.641"
"1094","8467.52"
"1095","8463.982"
"1096","8505.297"
"1097","8559.785"
"1098","8596.625"
"1099","8605.225"
"1100","8594.931"
"1101","8575.938"
"1102","8556.907"
"1103","8542.404"
"1104","8536.325"
"1105","8541.419"
"1106","8551.235"
"1107","8554.857"
"1108","8541.633"
"1109","8511.372"
"1110","8477.056"
"1111","8452.514"
"1112","8448.179"
"1113","8462.925"
"1114","8493.182"
"1115","8534.666"
"1116","8575.876"
"1117","8601.06"
"1118","8594.716"
"1119","8558.467"
"1120","8519.232"
"1121","8505.98"
"1122","8536.583"
"1123","8585.092"
"1124","8614.747"
"1125","8592.473"
"1126","8529.038"
"1127","8463.848"
"1128","8436.424"
"1129","8459.556"
"1130","8503.423"
"1131","8534.372"
"1132","8527.734"
"1133","8496.242"
"1134","8462.354"
"1135","8446.964"
"1136","8451.82"
"1137","8465.933"
"1138","8478.186"
"1139","8484.171"
"1140","8490.092"
"1141","8503.092"
"1142","8526.824"
"1143","8551.053"
"1144","8562.088"
"1145","8547.897"
"1146","8514.92"
"1147","8481.08"
"1148","8464.247"
"1149","8470.447"
"1150","8488.727"
"1151","8506.806"
"1152","8516.333"
"1153","8522.552"
"1154","8533.648"
"1155","8556.561"
"1156","8586.88"
"1157","8614.154"
"1158","8628.123"
"1159","8626.885"
"1160","8618.565"
"1161","8611.873"
"1162","8611.91"
"1163","8613.825"
"1164","8611.073"
"1165","8599.06"
"1166","8586.402"
"1167","8587.229"
"1168","8614.592"
"1169","8659.733"
"1170","8693.745"
"1171","8687.093"
"1172","8631.781"
"1173","8563.085"
"1174","8521.489"
"1175","8536.373"
"1176","8585.112"
"1177","8629.893"
"1178","8636.1"
"1179","8607.214"
"1180","8571.599"
"1181","8557.649"
"1182","8575.64"
"1183","8611.011"
"1184","8647.395"
"1185","8671.898"
"1186","8681.923"
"1187","8676.768"
"1188","8656.925"
"1189","8631.06"
"1190","8611.238"
"1191","8608.992"
"1192","8625.726"
"1193","8654.063"
"1194","8686.323"
"1195","8715.097"
"1196","8733.461"
"1197","8734.534"
"1198","8715.586"
"1199","8689.489"
"1200","8672.795"
"1201","8679.682"
"1202","8704.178"
"1203","8730.195"
"1204","8742.052"
"1205","8735.323"
"1206","8716.809"
"1207","8693.786"
"1208","8671.947"
"1209","8653.894"
"1210","8641.862"
"1211","8637.701"
"1212","8641.658"
"1213","8653.575"
"1214","8672.48"
"1215","8690.217"
"1216","8694.917"
"1217","8675.514"
"1218","8639.763"
"1219","8614.035"
"1220","8625.325"
"1221","8681.457"
"1222","8754.399"
"1223","8812.175"
"1224","8831.915"
"1225","8824.42"
"1226","8808.257"
"1227","8799.63"
"1228","8796.791"
"1229","8789.789"
"1230","8769.434"
"1231","8740.433"
"1232","8719.305"
"1233","8722.745"
"1234","8755.457"
"1235","8803.727"
"1236","8852.258"
"1237","8887.504"
"1238","8900.94"
"1239","8884.924"
"1240","8836.085"
"1241","8774.654"
"1242","8728.963"
"1243","8724.769"
"1244","8758.715"
"1245","8809.166"
"1246","8854.438"
"1247","8879.735"
"1248","8877.816"
"1249","8841.956"
"1250","8780.602"
"1251","8731.288"
"1252","8734.872"
"1253","8813.066"
"1254","8921.317"
"1255","9000.715"
"1256","9003.124"
"1257","8949.562"
"1258","8888.284"
"1259","8864.187"
"1260","8878.656"
"1261","8903.481"
"1262","8910.507"
"1263","8890.77"
"1264","8857.151"
"1265","8823.709"
"1266","8802.063"
"1267","8799.219"
"1268","8821.664"
"1269","8870.236"
"1270","8927.379"
"1271","8971.785"
"1272","8986.179"
"1273","8976.315"
"1274","8956.09"
"1275","8938.537"
"1276","8927.63"
"1277","8922.015"
"1278","8920.214"
"1279","8919.664"
"1280","8916.775"
"1281","8907.963"
"1282","8892.146"
"1283","8871.998"
"1284","8850.497"
"1285","8829.994"
"1286","8811.333"
"1287","8795.129"
"1288","8782.339"
"1289","8775.231"
"1290","8776.396"
"1291","8787.63"
"1292","8805.527"
"1293","8824.602"
"1294","8839.994"
"1295","8853.996"
"1296","8873.375"
"1297","8904.576"
"1298","8945.727"
"1299","8987.056"
"1300","9018.539"
"1301","9033.989"
"1302","9032.714"
"1303","9014.446"
"1304","8982.045"
"1305","8945.092"
"1306","8914.048"
"1307","8897.351"
"1308","8896.704"
"1309","8912.423"
"1310","8942.865"
"1311","8976.406"
"1312","8998.223"
"1313","8995.573"
"1314","8972.413"
"1315","8940.711"
"1316","8912.011"
"1317","8891.63"
"1318","8880.531"
"1319","8879.454"
"1320","8886.026"
"1321","8894.771"
"1322","8900.147"
"1323","8899.97"
"1324","8896.755"
"1325","8893.369"
"1326","8889.988"
"1327","8881.452"
"1328","8861.976"
"1329","8830.057"
"1330","8796.385"
"1331","8773.797"
"1332","8771.521"
"1333","8784.027"
"1334","8802.019"
"1335","8817.602"
"1336","8831.132"
"1337","8845.944"
"1338","8864.686"
"1339","8884.036"
"1340","8897.689"
"1341","8899.9"
"1342","8892.278"
"1343","8881.445"
"1344","8873.568"
"1345","8864.295"
"1346","8839.737"
"1347","8786.346"
"1348","8712.911"
"1349","8654.868"
"1350","8648.768"
"1351","8701.859"
"1352","8775.593"
"1353","8827.545"
"1354","8836.242"
"1355","8823.112"
"1356","8814.815"
"1357","8825.329"
"1358","8834.563"
"1359","8816.763"
"1360","8758.013"
"1361","8686.1"
"1362","8638.001"
"1363","8640.668"
"1364","8674.813"
"1365","8707.854"
"1366","8712.477"
"1367","8693.01"
"1368","8665.489"
"1369","8645.323"
"1370","8642.841"
"1371","8665.996"
"1372","8720.194"
"1373","8785.083"
"1374","8825.306"
"1375","8808.315"
"1376","8741.966"
"1377","8662.938"
"1378","8607.063"
"1379","8583.11"
"1380","8576.451"
"1381","8572.15"
"1382","8566.77"
"1383","8568.797"
"1384","8587.045"
"1385","8621.851"
"1386","8663.095"
"1387","8699.971"
"1388","8719.951"
"1389","8708.011"
"1390","8649.187"
"1391","8550.534"
"1392","8456.85"
"1393","8416.453"
"1394","8448.296"
"1395","8512.5"
"1396","8562.224"
"1397","8570.278"
"1398","8555.214"
"1399","8542.072"
"1400","8546.578"
"1401","8559.39"
"1402","8567.009"
"1403","8560.322"
"1404","8543.777"
"1405","8524.435"
"1406","8508.487"
"1407","8499.114"
"1408","8498.831"
"1409","8508.355"
"1410","8521.274"
"1411","8529.398"
"1412","8527.251"
"1413","8521.418"
"1414","8521.851"
"1415","8536.423"
"1416","8562.75"
"1417","8595.284"
"1418","8628.131"
"1419","8653.536"
"1420","8663.111"
"1421","8650.727"
"1422","8623.656"
"1423","8594.094"
"1424","8573.888"
"1425","8572.562"
"1426","8598.738"
"1427","8657.302"
"1428","8727.563"
"1429","8778.089"
"1430","8783.156"
"1431","8758.966"
"1432","8740.256"
"1433","8757.229"
"1434","8804.601"
"1435","8860.701"
"1436","8905.237"
"1437","8929.658"
"1438","8931.021"
"1439","8908.393"
"1440","8876.997"
"1441","8859.99"
"1442","8876.796"
"1443","8915.01"
"1444","8946.352"
"1445","8945.698"
"1446","8915.711"
"1447","8873.018"
"1448","8833.922"
"1449","8810.971"
"1450","8814.828"
"1451","8852.449"
"1452","8899.878"
"1453","8917.757"
"1454","8873.408"
"1455","8789.921"
"1456","8717.668"
"1457","8699.963"
"1458","8722.459"
"1459","8743.354"
"1460","8726.838"
"1461","8684.171"
"1462","8648.246"
"1463","8646.286"
"1464","8663.441"
"1465","8666.376"
"1466","8627.548"
"1467","8559.611"
"1468","8491.974"
"1469","8450.57"
"1470","8438.744"
"1471","8450.992"
"1472","8479.149"
"1473","8499.524"
"1474","8482.763"
"1475","8409.929"
"1476","8318.428"
"1477","8264.589"
"1478","8289.493"
"1479","8359.261"
"1480","8417.054"
"1481","8419.005"
"1482","8378.788"
"1483","8325.976"
"1484","8284.88"
"1485","8258.963"
"1486","8246.54"
"1487","8244.38"
"1488","8243.84"
"1489","8235.088"
"1490","8214.219"
"1491","8195.541"
"1492","8196.848"
"1493","8225.934"
"1494","8263.716"
"1495","8286.67"
"1496","8279.371"
"1497","8245.267"
"1498","8190.545"
"1499","8128.742"
"1500","8088.147"
"1501","8098.492"
"1502","8161.383"
"1503","8229.882"
"1504","8252.912"
"1505","8216.747"
"1506","8162.728"
"1507","8135.714"
"1508","8146.875"
"1509","8165.232"
"1510","8158.313"
"1511","8124.306"
"1512","8093.767"
"1513","8097.019"
"1514","8130.755"
"1515","8161.944"
"1516","8159.194"
"1517","8128.628"
"1518","8103.901"
"1519","8115.115"
"1520","8147.69"
"1521","8160.124"
"1522","8118.205"
"1523","8050.514"
"1524","8016.301"
"1525","8061.444"
"1526","8145.716"
"1527","8195.322"
"1528","8154.875"
"1529","8059.761"
"1530","7973.149"
"1531","7942.956"
"1532","7959.233"
"1533","7998.362"
"1534","8040.027"
"1535","8073.579"
"1536","8090.128"
"1537","8088.092"
"1538","8082.173"
"1539","8089.107"
"1540","8110.45"
"1541","8121.681"
"1542","8096.378"
"1543","8035.987"
"1544","7978.797"
"1545","7964.21"
"1546","7997.208"
"1547","8047.827"
"1548","8085.752"
"1549","8099.192"
"1550","8090.672"
"1551","8064.135"
"1552","8033.998"
"1553","8020.778"
"1554","8040.693"
"1555","8079.104"
"1556","8108.118"
"1557","8105.036"
"1558","8073.277"
"1559","8024.337"
"1560","7970.311"
"1561","7925.299"
"1562","7903.84"
"1563","7913.318"
"1564","7943.415"
"1565","7981.122"
"1566","8015.111"
"1567","8037.021"
"1568","8038.958"
"1569","8019.432"
"1570","7985.065"
"1571","7943.158"
"1572","7904.014"
"1573","7880.649"
"1574","7884.311"
"1575","7904.489"
"1576","7916.705"
"1577","7900.813"
"1578","7870.288"
"1579","7853.599"
"1580","7871.481"
"1581","7907.038"
"1582","7932.07"
"1583","7927.626"
"1584","7904.107"
"1585","7877.689"
"1586","7860.342"
"1587","7855.134"
"1588","7863.938"
"1589","7884.831"
"1590","7910.493"
"1591","7933.142"
"1592","7944.036"
"1593","7933.503"
"1594","7893.699"
"1595","7838.585"
"1596","7796.256"
"1597","7790.032"
"1598","7808.276"
"1599","7824.517"
"1600","7819.64"
"1601","7806.433"
"1602","7806.229"
"1603","7830.064"
"1604","7861.407"
"1605","7879.293"
"1606","7873.805"
"1607","7853.802"
"1608","7829.952"
"1609","7812.219"
"1610","7809.79"
"1611","7830.727"
"1612","7868.75"
"1613","7907.452"
"1614","7932.033"
"1615","7941.045"
"1616","7938.945"
"1617","7930.582"
"1618","7922.354"
"1619","7921.069"
"1620","7929.115"
"1621","7937.71"
"1622","7936.435"
"1623","7921.596"
"1624","7899.854"
"1625","7878.876"
"1626","7868.772"
"1627","7881.979"
"1628","7927.86"
"1629","7983.553"
"1630","8007.396"
"1631","7968.401"
"1632","7895.957"
"1633","7840.19"
"1634","7834.33"
"1635","7858.917"
"1636","7884.389"
"1637","7892.581"
"1638","7885.808"
"1639","7868.648"
"1640","7848.84"
"1641","7837.504"
"1642","7845.146"
"1643","7873.45"
"1644","7918.54"
"1645","7973.432"
"1646","8013.759"
"1647","8008.905"
"1648","7948.374"
"1649","7884.295"
"1650","7880.458"
"1651","7954.83"
"1652","8046.141"
"1653","8087.623"
"1654","8068.018"
"1655","8031.031"
"1656","8018.371"
"1657","8029.119"
"1658","8038.395"
"1659","8025.877"
"1660","7994.861"
"1661","7955.818"
"1662","7919.393"
"1663","7896.625"
"1664","7898.346"
"1665","7922.19"
"1666","7947.567"
"1667","7953.846"
"1668","7939.987"
"1669","7919.961"
"1670","7905.907"
"1671","7894.987"
"1672","7878.192"
"1673","7849.248"
"1674","7811.072"
"1675","7768.533"
"1676","7728.741"
"1677","7702.656"
"1678","7700.919"
"1679","7719.762"
"1680","7742.121"
"1681","7752.322"
"1682","7750.321"
"1683","7743.694"
"1684","7736.728"
"1685","7720.795"
"1686","7684.257"
"1687","7629.42"
"1688","7585.213"
"1689","7581.954"
"1690","7612.636"
"1691","7633.287"
"1692","7605.247"
"1693","7549.682"
"1694","7518.269"
"1695","7543.663"
"1696","7582.799"
"1697","7574.355"
"1698","7496.356"
"1699","7400.756"
"1700","7345.758"
"1701","7347.928"
"1702","7384.37"
"1703","7431.861"
"1704","7477.13"
"1705","7511.574"
"1706","7528.789"
"1707","7529.968"
"1708","7517.988"
"1709","7497.272"
"1710","7474.781"
"1711","7457.572"
"1712","7450.153"
"1713","7454.977"
"1714","7472.193"
"1715","7487.921"
"1716","7482.871"
"1717","7448.109"
"1718","7403.139"
"1719","7371.896"
"1720","7362.083"
"1721","7360.605"
"1722","7353.576"
"1723","7333.511"
"1724","7296.851"
"1725","7246.874"
"1726","7216.66"
"1727","7247.225"
"1728","7342.712"
"1729","7436.378"
"1730","7457.236"
"1731","7408.964"
"1732","7362.182"
"1733","7377.44"
"1734","7431.673"
"1735","7467.643"
"1736","7452.673"
"1737","7422.11"
"1738","7421.87"
"1739","7460.116"
"1740","7498.763"
"1741","7500.706"
"1742","7465.989"
"1743","7415.34"
"1744","7368.112"
"1745","7337.53"
"1746","7335.289"
"1747","7364.532"
"1748","7414.931"
"1749","7473.746"
"1750","7512.483"
"1751","7491.544"
"1752","7389.334"
"1753","7270.936"
"1754","7226.699"
"1755","7288.441"
"1756","7375.942"
"1757","7401.134"
"1758","7359.64"
"1759","7316.713"
"1760","7326.013"
"1761","7363.57"
"1762","7378.432"
"1763","7345.377"
"1764","7295.489"
"1765","7266.105"
"1766","7269.706"
"1767","7295.818"
"1768","7332.293"
"1769","7362.113"
"1770","7366.414"
"1771","7340.372"
"1772","7311.98"
"1773","7312.482"
"1774","7341.016"
"1775","7365.779"
"1776","7359.751"
"1777","7334.636"
"1778","7317.281"
"1779","7321.219"
"1780","7328.705"
"1781","7318.619"
"1782","7293.381"
"1783","7277.663"
"1784","7290.106"
"1785","7307.273"
"1786","7290.031"
"1787","7229.373"
"1788","7182.432"
"1789","7211.022"
"1790","7300.14"
"1791","7367.748"
"1792","7347.631"
"1793","7271.841"
"1794","7205.236"
"1795","7185.394"
"1796","7197.096"
"1797","7220.007"
"1798","7247.366"
"1799","7282.7"
"1800","7324.57"
"1801","7348.245"
"1802","7322.938"
"1803","7251.667"
"1804","7191.509"
"1805","7197.772"
"1806","7251.789"
"1807","7289.207"
"1808","7266.729"
"1809","7216.796"
"1810","7187.577"
"1811","7199.445"
"1812","7237.981"
"1813","7285.333"
"1814","7314.354"
"1815","7293.544"
"1816","7217.406"
"1817","7146.394"
"1818","7147.746"
"1819","7215.187"
"1820","7274.343"
"1821","7264.98"
"1822","7216.316"
"1823","7186.83"
"1824","7204.717"
"1825","7244.684"
"1826","7276.794"
"1827","7281.249"
"1828","7244.746"
"1829","7170.439"
"1830","7117.415"
"1831","7154.204"
"1832","7266.083"
"1833","7340.651"
"1834","7283.54"
"1835","7161.388"
"1836","7107.154"
"1837","7179.74"
"1838","7281.216"
"1839","7301.437"
"1840","7241.823"
"1841","7186.437"
"1842","7196.654"
"1843","7238.218"
"1844","7254.877"
"1845","7233.188"
"1846","7213.739"
"1847","7232.668"
"1848","7269.546"
"1849","7279.6"
"1850","7242.302"
"1851","7188.946"
"1852","7155.483"
"1853","7149.953"
"1854","7160.252"
"1855","7174.672"
"1856","7184.63"
"1857","7182.629"
"1858","7173.413"
"1859","7175.827"
"1860","7205.677"
"1861","7255.112"
"1862","7307.335"
"1863","7347.012"
"1864","7361.509"
"1865","7339.969"
"1866","7287.449"
"1867","7218.511"
"1868","7148.774"
"1869","7096.361"
"1870","7078.762"
"1871","7092.084"
"1872","7113.256"
"1873","7123.601"
"1874","7126.982"
"1875","7133.496"
"1876","7154.125"
"1877","7201.01"
"1878","7278.772"
"1879","7340.773"
"1880","7319.617"
"1881","7204.522"
"1882","7091.057"
"1883","7076.111"
"1884","7146.228"
"1885","7222.69"
"1886","7250.037"
"1887","7237.339"
"1888","7204.277"
"1889","7169.96"
"1890","7153.046"
"1891","7162.037"
"1892","7167.428"
"1893","7132.551"
"1894","7068.966"
"1895","7040.62"
"1896","7095.234"
"1897","7183.004"
"1898","7223.931"
"1899","7194.08"
"1900","7148.933"
"1901","7141.8"
"1902","7168.334"
"1903","7199.87"
"1904","7213.717"
"1905","7198.229"
"1906","7147.155"
"1907","7093.333"
"1908","7090.534"
"1909","7160.154"
"1910","7249.678"
"1911","7299.878"
"1912","7295.273"
"1913","7249.298"
"1914","7177.632"
"1915","7100.65"
"1916","7039.145"
"1917","7006.663"
"1918","7011.03"
"1919","7051.947"
"1920","7102.454"
"1921","7130.993"
"1922","7127.075"
"1923","7099.615"
"1924","7060.202"
"1925","7027.918"
"1926","7022.758"
"1927","7039.875"
"1928","7048.462"
"1929","7026.363"
"1930","6995.963"
"1931","6991.204"
"1932","7016.249"
"1933","7040.76"
"1934","7040.404"
"1935","7030.669"
"1936","7038.87"
"1937","7071.784"
"1938","7110.433"
"1939","7135.633"
"1940","7136.181"
"1941","7104.172"
"1942","7058.679"
"1943","7054.439"
"1944","7129.162"
"1945","7210.092"
"1946","7187.833"
"1947","7050.84"
"1948","6921.022"
"1949","6905.268"
"1950","6966.896"
"1951","7018.875"
"1952","7018.805"
"1953","6985.655"
"1954","6944.272"
"1955","6927.292"
"1956","6969.116"
"1957","7058.294"
"1958","7121.671"
"1959","7099.781"
"1960","7033.612"
"1961","6997.23"
"1962","7008.814"
"1963","7014.414"
"1964","6970.437"
"1965","6912.184"
"1966","6898.83"
"1967","6934.657"
"1968","6957.709"
"1969","6919.997"
"1970","6858.927"
"1971","6835.383"
"1972","6859.513"
"1973","6885.518"
"1974","6875.917"
"1975","6840.78"
"1976","6802.209"
"1977","6771.526"
"1978","6749.435"
"1979","6740.734"
"1980","6766.661"
"1981","6849.151"
"1982","6955.404"
"1983","7005.635"
"1984","6957.365"
"1985","6887.822"
"1986","6889.784"
"1987","6950.713"
"1988","6981.277"
"1989","6935.369"
"1990","6881.357"
"1991","6895.729"
"1992","6948.417"
"1993","6945.19"
"1994","6844.733"
"1995","6716.595"
"1996","6637.248"
"1997","6626.376"
"1998","6675.885"
"1999","6765.509"
"2000","6855.434"
"2001","6906.399"
"2002","6894.688"
"2003","6803.621"
"2004","6662.02"
"2005","6556.878"
"2006","6556.238"
"2007","6622.931"
"2008","6690.999"
"2009","6725.503"
"2010","6721.965"
"2011","6688.19"
"2012","6668.575"
"2013","6709.458"
"2014","6775.935"
"2015","6773.473"
"2016","6663.835"
"2017","6546.831"
"2018","6528.303"
"2019","6582.203"
"2020","6612.803"
"2021","6593.06"
"2022","6613.887"
"2023","6740.733"
"2024","6814.972"
"2025","6602.683"
"2026","6159.287"
"2027","5886.844"
"2028","6074.57"
"2029","6475.392"
"2030","6723.783"
"2031","6727.634"
"2032","6621.488"
"2033","6514.586"
"2034","6431.635"
"2035","6383.688"
"2036","6379.929"
"2037","6428.238"
"2038","6514.679"
"2039","6588.301"
"2040","6604.603"
"2041","6578.024"
"2042","6543.526"
"2043","6519.256"
"2044","6504.692"
"2045","6495.778"
"2046","6479.531"
"2047","6442.759"
"2048","6395.818"
"2049","6365.679"
"2050","6368.064"
"2051","6394.105"
"2052","6431.186"
"2053","6462.472"
"2054","6469.649"
"2055","6450.07"
"2056","6421.255"
"2057","6395.461"
"2058","6358.31"
"2059","6291.831"
"2060","6225.761"
"2061","6226.824"
"2062","6315.714"
"2063","6406.562"
"2064","6413.405"
"2065","6361.639"
"2066","6325.778"
"2067","6324.341"
"2068","6302.542"
"2069","6224.523"
"2070","6148.954"
"2071","6151.826"
"2072","6220.555"
"2073","6276.633"
"2074","6272.635"
"2075","6230.092"
"2076","6177.748"
"2077","6133.89"
"2078","6112.318"
"2079","6118.393"
"2080","6147.768"
"2081","6190.916"
"2082","6222.995"
"2083","6219.695"
"2084","6198.651"
"2085","6203.17"
"2086","6239.725"
"2087","6251.618"
"2088","6193.192"
"2089","6106.463"
"2090","6058.48"
"2091","6064.104"
"2092","6091.875"
"2093","6117.905"
"2094","6140.66"
"2095","6160.142"
"2096","6163.439"
"2097","6132.525"
"2098","6072.893"
"2099","6018.326"
"2100","5996.058"
"2101","6005.6"
"2102","6038.612"
"2103","6064.892"
"2104","6041.812"
"2105","5968.375"
"2106","5908.649"
"2107","5915.09"
"2108","5963.949"
"2109","6012.01"
"2110","6036.786"
"2111","6031.307"
"2112","5991.426"
"2113","5917.748"
"2114","5817.965"
"2115","5735.326"
"2116","5722.322"
"2117","5774.615"
"2118","5837.044"
"2119","5868.634"
"2120","5865.279"
"2121","5830.851"
"2122","5787.735"
"2123","5764.542"
"2124","5760.498"
"2125","5744.912"
"2126","5706.091"
"2127","5685.136"
"2128","5721.354"
"2129","5778.245"
"2130","5787.648"
"2131","5740.14"
"2132","5691.502"
"2133","5680.254"
"2134","5686.901"
"2135","5685.109"
"2136","5674.28"
"2137","5665.388"
"2138","5654.566"
"2139","5620.813"
"2140","5552.965"
"2141","5470.802"
"2142","5400.309"
"2143","5372.222"
"2144","5417.967"
"2145","5520.226"
"2146","5606.17"
"2147","5624.483"
"2148","5592.699"
"2149","5538.823"
"2150","5479.645"
"2151","5427.111"
"2152","5397.835"
"2153","5413.419"
"2154","5466.395"
"2155","5473.728"
"2156","5364.174"
"2157","5229.209"
"2158","5220.838"
"2159","5333.92"
"2160","5409.975"
"2161","5367.553"
"2162","5315.861"
"2163","5359.234"
"2164","5419.029"
"2165","5360.117"
"2166","5210.298"
"2167","5134.259"
"2168","5198.196"
"2169","5270.145"
"2170","5235.72"
"2171","5171.809"
"2172","5199.044"
"2173","5270.45"
"2174","5224.199"
"2175","5036.72"
"2176","4903.632"
"2177","4964.995"
"2178","5085.153"
"2179","5085.839"
"2180","4988.663"
"2181","4922.957"
"2182","4947.457"
"2183","5033.836"
"2184","5137.486"
"2185","5184.001"
"2186","5115.167"
"2187","5015.861"
"2188","5021.295"
"2189","5103.671"
"2190","5088.458"
"2191","4925.642"
"2192","4820.39"
"2193","4934.706"
"2194","5095.119"
"2195","5057.166"
"2196","4870.878"
"2197","4772.438"
"2198","4830.208"
"2199","4878.241"
"2200","4797.698"
"2201","4663.891"
"2202","4576.818"
"2203","4550.791"
"2204","4562.348"
"2205","4574.372"
"2206","4537.606"
"2207","4444.451"
"2208","4368.983"
"2209","4376.639"
"2210","4453.821"
"2211","4562.599"
"2212","4635.359"
"2213","4589.766"
"2214","4447.962"
"2215","4359.949"
"2216","4410.415"
"2217","4495.986"
"2218","4507.448"
"2219","4474.518"
"2220","4471.086"
"2221","4494.296"
"2222","4484.783"
"2223","4429.11"
"2224","4384.986"
"2225","4394.617"
"2226","4432.392"
"2227","4460.216"
"2228","4446.796"
"2229","4366.805"
"2230","4251.773"
"2231","4181.896"
"2232","4184.977"
"2233","4195.867"
"2234","4168.441"
"2235","4157.953"
"2236","4225.414"
"2237","4297.657"
"2238","4245.162"
"2239","4087.439"
"2240","3982.677"
"2241","4000.068"
"2242","4036.53"
"2243","4012.736"
"2244","4007.451"
"2245","4112.384"
"2246","4224.165"
"2247","4155.233"
"2248","3929.449"
"2249","3767.855"
"2250","3772.586"
"2251","3818.597"
"2252","3792.998"
"2253","3712.627"
"2254","3622.159"
"2255","3556.121"
"2256","3542.902"
"2257","3581.129"
"2258","3643.12"
"2259","3675.696"
"2260","3585.701"
"2261","3348.885"
"2262","3172.242"
"2263","3254.372"
"2264","3437.348"
"2265","3440.515"
"2266","3273.307"
"2267","3161.205"
"2268","3177.976"
"2269","3179.42"
"2270","3072.646"
"2271","2941.119"
"2272","2877.889"
"2273","2877.748"
"2274","2903.588"
"2275","2914.553"
"2276","2869.014"
"2277","2768.987"
"2278","2664.381"
"2279","2583.692"
"2280","2507.593"
"2281","2426.71"
"2282","2390.846"
"2283","2447.533"
"2284","2522.215"
"2285","2493.441"
"2286","2376.333"
"2287","2295.782"
"2288","2301.105"
"2289","2328.297"
"2290","2310.278"
"2291","2195.295"
"2292","1965.786"
"2293","1759.839"
"2294","1738.698"
"2295","1825.311"
"2296","1817.605"
"2297","1688.092"
"2298","1579.683"
"2299","1566.977"
"2300","1597.065"
