,"Scan 00917"
"400","11781.13"
"401","11757.4"
"402","11729.74"
"403","11705.72"
"404","11692.87"
"405","11697.37"
"406","11714.49"
"407","11733.99"
"408","11745.64"
"409","11740.03"
"410","11717.13"
"411","11683.47"
"412","11645.65"
"413","11610.16"
"414","11582"
"415","11564.81"
"416","11562.16"
"417","11577.41"
"418","11607.87"
"419","11643.41"
"420","11673.53"
"421","11687.89"
"422","11683.25"
"423","11667.79"
"424","11650.68"
"425","11640.97"
"426","11642.66"
"427","11649.26"
"428","11653.01"
"429","11646.23"
"430","11625.7"
"431","11600.27"
"432","11580.74"
"433","11577.82"
"434","11596.95"
"435","11625.39"
"436","11646.61"
"437","11644.17"
"438","11607.01"
"439","11547.24"
"440","11483.21"
"441","11433.14"
"442","11411.65"
"443","11414.09"
"444","11429.3"
"445","11446.21"
"446","11455.1"
"447","11454.94"
"448","11448.3"
"449","11437.75"
"450","11425.65"
"451","11412.87"
"452","11399.55"
"453","11385.81"
"454","11371.74"
"455","11357.02"
"456","11341.1"
"457","11323.44"
"458","11303.67"
"459","11283.48"
"460","11265.97"
"461","11254.21"
"462","11250.86"
"463","11252.55"
"464","11251.45"
"465","11239.68"
"466","11210.13"
"467","11168.45"
"468","11130.85"
"469","11113.8"
"470","11132.59"
"471","11181.46"
"472","11235.38"
"473","11268.79"
"474","11257.42"
"475","11204.05"
"476","11138.21"
"477","11090.38"
"478","11089.71"
"479","11134.45"
"480","11190.22"
"481","11221.22"
"482","11193.07"
"483","11105.67"
"484","10997.17"
"485","10907.51"
"486","10875.31"
"487","10905.27"
"488","10962.73"
"489","11011"
"490","11014.46"
"491","10965.37"
"492","10889.21"
"493","10813.26"
"494","10764"
"495","10746.73"
"496","10741.21"
"497","10725.77"
"498","10679.49"
"499","10601.86"
"500","10516.98"
"501","10450.29"
"502","10426.38"
"503","10447.34"
"504","10488.58"
"505","10524.08"
"506","10528.62"
"507","10495.77"
"508","10440.84"
"509","10380.28"
"510","10330.05"
"511","10295.8"
"512","10271.75"
"513","10251.54"
"514","10229.08"
"515","10203.88"
"516","10181.27"
"517","10166.83"
"518","10165.75"
"519","10175.15"
"520","10184.26"
"521","10182.04"
"522","10158.14"
"523","10114.7"
"524","10065.14"
"525","10023.17"
"526","10001.6"
"527","9998.77"
"528","10001.22"
"529","9995.214"
"530","9968.308"
"531","9925.539"
"532","9884.771"
"533","9864.063"
"534","9879.561"
"535","9925.734"
"536","9982.984"
"537","10031.57"
"538","10053.36"
"539","10044.91"
"540","10011.15"
"541","9957.069"
"542","9888.382"
"543","9816.912"
"544","9757.417"
"545","9724.591"
"546","9729.762"
"547","9762.104"
"548","9801.792"
"549","9829.066"
"550","9828.001"
"551","9803.061"
"552","9765.563"
"553","9726.788"
"554","9696.826"
"555","9680.795"
"556","9682.427"
"557","9705.441"
"558","9749.561"
"559","9800.584"
"560","9841.339"
"561","9854.757"
"562","9832.066"
"563","9787.194"
"564","9737.871"
"565","9701.692"
"566","9687.959"
"567","9688.204"
"568","9691.689"
"569","9687.809"
"570","9671.974"
"571","9649.659"
"572","9627.28"
"573","9611.093"
"574","9602.46"
"575","9596.392"
"576","9587.487"
"577","9570.64"
"578","9547.008"
"579","9524.007"
"580","9509.283"
"581","9509.912"
"582","9524.905"
"583","9547.17"
"584","9569.491"
"585","9585.327"
"586","9594.493"
"587","9600.396"
"588","9606.474"
"589","9615.523"
"590","9626.159"
"591","9635.276"
"592","9639.776"
"593","9636.855"
"594","9625.037"
"595","9603.237"
"596","9570.37"
"597","9527.452"
"598","9482.225"
"599","9443.748"
"600","9421.024"
"601","9418.08"
"602","9427.962"
"603","9442.273"
"604","9452.709"
"605","9454.642"
"606","9449.066"
"607","9437.453"
"608","9421.309"
"609","9403.268"
"610","9387.166"
"611","9376.883"
"612","9375.897"
"613","9382.186"
"614","9389.703"
"615","9392.335"
"616","9384.952"
"617","9370.443"
"618","9355.642"
"619","9347.383"
"620","9350.672"
"621","9361.247"
"622","9371.896"
"623","9375.436"
"624","9366.891"
"625","9348.312"
"626","9323.144"
"627","9294.814"
"628","9266.51"
"629","9240.93"
"630","9220.709"
"631","9208.455"
"632","9206.095"
"633","9214.681"
"634","9235.209"
"635","9268.334"
"636","9309.098"
"637","9347.921"
"638","9375.111"
"639","9382.063"
"640","9369.354"
"641","9342.315"
"642","9306.29"
"643","9266.832"
"644","9230.549"
"645","9204.362"
"646","9195.172"
"647","9205.686"
"648","9226.637"
"649","9246.65"
"650","9254.49"
"651","9246.471"
"652","9231.646"
"653","9220.272"
"654","9222.193"
"655","9238.291"
"656","9260.364"
"657","9279.824"
"658","9288.898"
"659","9288.164"
"660","9283.233"
"661","9279.772"
"662","9281.935"
"663","9285.661"
"664","9284.089"
"665","9270.373"
"666","9241.125"
"667","9203.163"
"668","9165.175"
"669","9135.768"
"670","9119.6"
"671","9114.855"
"672","9119.133"
"673","9129.997"
"674","9144.414"
"675","9158.774"
"676","9169.47"
"677","9173.371"
"678","9171.66"
"679","9167.736"
"680","9165.012"
"681","9165.93"
"682","9168.719"
"683","9170.462"
"684","9168.26"
"685","9161.368"
"686","9153.862"
"687","9150.455"
"688","9155.722"
"689","9169.854"
"690","9187.822"
"691","9204.3"
"692","9214.356"
"693","9217.485"
"694","9216.028"
"695","9212.359"
"696","9208.778"
"697","9207.169"
"698","9209.282"
"699","9216.855"
"700","9228.924"
"701","9237.684"
"702","9234.271"
"703","9210.127"
"704","9167.137"
"705","9120.571"
"706","9086.541"
"707","9079.71"
"708","9097.747"
"709","9127.146"
"710","9154.23"
"711","9167.751"
"712","9168.794"
"713","9162.388"
"714","9153.549"
"715","9145.126"
"716","9134.889"
"717","9119.862"
"718","9097.288"
"719","9070.283"
"720","9048.743"
"721","9042.912"
"722","9061.682"
"723","9100.819"
"724","9148.711"
"725","9193.684"
"726","9225.376"
"727","9238.765"
"728","9230.198"
"729","9196.114"
"730","9141.229"
"731","9085.442"
"732","9050.259"
"733","9055.822"
"734","9098.403"
"735","9153.533"
"736","9196.094"
"737","9205.139"
"738","9186.622"
"739","9157.232"
"740","9133.644"
"741","9127.993"
"742","9140.184"
"743","9168.053"
"744","9209.26"
"745","9255.106"
"746","9289.203"
"747","9294.726"
"748","9257.813"
"749","9192.425"
"750","9127.744"
"751","9093.083"
"752","9107.554"
"753","9153.063"
"754","9203.032"
"755","9231.223"
"756","9228.835"
"757","9213.806"
"758","9206.315"
"759","9224.793"
"760","9266.164"
"761","9312.789"
"762","9346.777"
"763","9353.991"
"764","9336.938"
"765","9302.77"
"766","9258.651"
"767","9213.971"
"768","9182.093"
"769","9176.763"
"770","9210.34"
"771","9274.986"
"772","9347.569"
"773","9404.601"
"774","9427.805"
"775","9424.319"
"776","9409.041"
"777","9396.786"
"778","9395.868"
"779","9402.443"
"780","9411.336"
"781","9417.76"
"782","9422.678"
"783","9431.491"
"784","9449.721"
"785","9480.683"
"786","9517.093"
"787","9548.478"
"788","9564.436"
"789","9560.541"
"790","9543.071"
"791","9519.409"
"792","9496.684"
"793","9478.683"
"794","9466.78"
"795","9462.302"
"796","9465.929"
"797","9475.601"
"798","9488.516"
"799","9501.898"
"800","9514.169"
"801","9525.628"
"802","9536.738"
"803","9547.855"
"804","9558.163"
"805","9566.142"
"806","9570.252"
"807","9569.586"
"808","9565.369"
"809","9559.294"
"810","9553.023"
"811","9547.226"
"812","9541.313"
"813","9534.625"
"814","9526.828"
"815","9520.164"
"816","9518.086"
"817","9524.044"
"818","9538.55"
"819","9554.685"
"820","9564.367"
"821","9559.986"
"822","9543.114"
"823","9523.791"
"824","9512.377"
"825","9517.114"
"826","9535.269"
"827","9560.525"
"828","9586.579"
"829","9607.631"
"830","9618.768"
"831","9615.155"
"832","9592.981"
"833","9559.604"
"834","9529.302"
"835","9516.446"
"836","9530.034"
"837","9561.744"
"838","9599.769"
"839","9632.488"
"840","9653.059"
"841","9659.839"
"842","9651.456"
"843","9627.762"
"844","9595.989"
"845","9566.119"
"846","9548.098"
"847","9547.073"
"848","9559.296"
"849","9580.048"
"850","9604.921"
"851","9633.021"
"852","9665.691"
"853","9704.313"
"854","9747.499"
"855","9785.104"
"856","9805.274"
"857","9796.744"
"858","9762.503"
"859","9720.118"
"860","9687.809"
"861","9679.895"
"862","9690.018"
"863","9705.014"
"864","9711.854"
"865","9706.526"
"866","9699.282"
"867","9701.629"
"868","9723.312"
"869","9758.656"
"870","9794.012"
"871","9815.681"
"872","9816.698"
"873","9806.242"
"874","9795.864"
"875","9796.371"
"876","9807.606"
"877","9821.05"
"878","9827.964"
"879","9822.754"
"880","9811.084"
"881","9801.154"
"882","9800.889"
"883","9811.086"
"884","9824.878"
"885","9835.015"
"886","9836.165"
"887","9833.014"
"888","9833.507"
"889","9845.468"
"890","9870.241"
"891","9899.668"
"892","9924.823"
"893","9937.982"
"894","9940.226"
"895","9936.587"
"896","9932.113"
"897","9931.179"
"898","9936.856"
"899","9952.066"
"900","9978.891"
"901","10010.77"
"902","10036.08"
"903","10043.16"
"904","10028.13"
"905","10006.76"
"906","9997.846"
"907","10018.49"
"908","10062.2"
"909","10105.1"
"910","10122.9"
"911","10102.33"
"912","10064.82"
"913","10038.63"
"914","10050.61"
"915","10100.59"
"916","10164.37"
"917","10216.9"
"918","10238.74"
"919","10231.94"
"920","10203.67"
"921","10161.24"
"922","10115.27"
"923","10079.75"
"924","10068.86"
"925","10092.33"
"926","10140.08"
"927","10196.43"
"928","10245.86"
"929","10277.77"
"930","10287.31"
"931","10269.97"
"932","10224.47"
"933","10166.01"
"934","10115.03"
"935","10091.57"
"936","10100.93"
"937","10129.55"
"938","10162.64"
"939","10187.35"
"940","10201.61"
"941","10207.08"
"942","10205.41"
"943","10198"
"944","10185.95"
"945","10170.31"
"946","10152.85"
"947","10139.33"
"948","10136.94"
"949","10152.66"
"950","10182.45"
"951","10207.04"
"952","10206"
"953","10164.95"
"954","10104.88"
"955","10059.64"
"956","10062.47"
"957","10117.99"
"958","10191.31"
"959","10244.65"
"960","10247.72"
"961","10213.15"
"962","10168.7"
"963","10141.76"
"964","10141.9"
"965","10155.09"
"966","10165.67"
"967","10161.12"
"968","10145.86"
"969","10129.94"
"970","10123.23"
"971","10128.02"
"972","10137.22"
"973","10143.19"
"974","10139.47"
"975","10125.41"
"976","10102.11"
"977","10070.84"
"978","10036.99"
"979","10010.54"
"980","10001.76"
"981","10017.87"
"982","10053.21"
"983","10098.71"
"984","10145.34"
"985","10184.95"
"986","10210.28"
"987","10214.1"
"988","10193.79"
"989","10163.27"
"990","10140.16"
"991","10141.27"
"992","10168.65"
"993","10212.02"
"994","10260.71"
"995","10305.35"
"996","10340.45"
"997","10361.22"
"998","10363.48"
"999","10350.71"
"1000","10331.7"
"1001","10315.35"
"1002","10307.88"
"1003","10309.26"
"1004","10318.49"
"1005","10334.61"
"1006","10356.24"
"1007","10379.29"
"1008","10398.49"
"1009","10408.67"
"1010","10406.97"
"1011","10393.94"
"1012","10370.34"
"1013","10338.58"
"1014","10309.68"
"1015","10297.62"
"1016","10315.84"
"1017","10361.23"
"1018","10411.23"
"1019","10442.13"
"1020","10437.24"
"1021","10409.46"
"1022","10379.49"
"1023","10367.4"
"1024","10379.46"
"1025","10409.23"
"1026","10449.76"
"1027","10494.04"
"1028","10534.78"
"1029","10564.62"
"1030","10576.77"
"1031","10571.51"
"1032","10554.1"
"1033","10529.92"
"1034","10504.77"
"1035","10485.38"
"1036","10478.63"
"1037","10490.5"
"1038","10519.21"
"1039","10559.06"
"1040","10604.29"
"1041","10649.17"
"1042","10687.89"
"1043","10714.66"
"1044","10724.88"
"1045","10720.62"
"1046","10706.21"
"1047","10686.09"
"1048","10666.46"
"1049","10655.48"
"1050","10661.4"
"1051","10687.64"
"1052","10720.6"
"1053","10742.87"
"1054","10738.57"
"1055","10712.6"
"1056","10684.92"
"1057","10675.79"
"1058","10695.21"
"1059","10730.68"
"1060","10766.73"
"1061","10789.38"
"1062","10796.07"
"1063","10789.43"
"1064","10772.19"
"1065","10751.05"
"1066","10738.05"
"1067","10745.57"
"1068","10781.08"
"1069","10831.09"
"1070","10876.62"
"1071","10899.73"
"1072","10899.88"
"1073","10890.58"
"1074","10885.72"
"1075","10891.84"
"1076","10898.27"
"1077","10891.85"
"1078","10862.29"
"1079","10820.73"
"1080","10788.24"
"1081","10785.47"
"1082","10815.62"
"1083","10859.2"
"1084","10895.19"
"1085","10908.29"
"1086","10905.22"
"1087","10897.95"
"1088","10897.47"
"1089","10901.83"
"1090","10899.89"
"1091","10880.4"
"1092","10842.53"
"1093","10805.61"
"1094","10791.26"
"1095","10814.81"
"1096","10855.23"
"1097","10878.37"
"1098","10851.71"
"1099","10780.64"
"1100","10707.83"
"1101","10677.54"
"1102","10714.53"
"1103","10791.58"
"1104","10872.92"
"1105","10926.22"
"1106","10947.57"
"1107","10946.7"
"1108","10933.41"
"1109","10914.96"
"1110","10895.44"
"1111","10878.75"
"1112","10867.75"
"1113","10861.87"
"1114","10859.79"
"1115","10860.16"
"1116","10861.32"
"1117","10861.39"
"1118","10858.53"
"1119","10852.48"
"1120","10845.26"
"1121","10839.08"
"1122","10835.83"
"1123","10835.98"
"1124","10839.69"
"1125","10846.9"
"1126","10855.19"
"1127","10860.55"
"1128","10859"
"1129","10849.42"
"1130","10835.24"
"1131","10820.31"
"1132","10808.71"
"1133","10805.58"
"1134","10816.3"
"1135","10845.38"
"1136","10886.63"
"1137","10926.71"
"1138","10952.26"
"1139","10957.41"
"1140","10948.07"
"1141","10931.2"
"1142","10912.8"
"1143","10895.07"
"1144","10879.21"
"1145","10866.5"
"1146","10858.56"
"1147","10857.23"
"1148","10864.29"
"1149","10877.98"
"1150","10891.53"
"1151","10897.75"
"1152","10892.9"
"1153","10885.19"
"1154","10885.41"
"1155","10902.54"
"1156","10929.31"
"1157","10949.73"
"1158","10948.24"
"1159","10925.53"
"1160","10901.72"
"1161","10898.11"
"1162","10926.05"
"1163","10969.58"
"1164","11008.07"
"1165","11024.03"
"1166","11021.4"
"1167","11012.99"
"1168","11011.16"
"1169","11018.26"
"1170","11027.47"
"1171","11031.62"
"1172","11028.36"
"1173","11025.04"
"1174","11030.2"
"1175","11049.59"
"1176","11076.22"
"1177","11099.32"
"1178","11109"
"1179","11105.36"
"1180","11095.06"
"1181","11084.88"
"1182","11080.18"
"1183","11084.47"
"1184","11101.14"
"1185","11130.06"
"1186","11160.74"
"1187","11180.76"
"1188","11180.02"
"1189","11164.04"
"1190","11144.85"
"1191","11134.03"
"1192","11134.18"
"1193","11140.08"
"1194","11146.3"
"1195","11151.67"
"1196","11162.56"
"1197","11186.1"
"1198","11223.95"
"1199","11257.11"
"1200","11261.75"
"1201","11219.05"
"1202","11152.62"
"1203","11107.42"
"1204","11126.58"
"1205","11207"
"1206","11299.54"
"1207","11353.25"
"1208","11343.74"
"1209","11298.74"
"1210","11252.01"
"1211","11230.21"
"1212","11231.11"
"1213","11245.11"
"1214","11263.05"
"1215","11279.34"
"1216","11290.23"
"1217","11292.17"
"1218","11285.87"
"1219","11276.22"
"1220","11268.29"
"1221","11265.63"
"1222","11268.97"
"1223","11278.75"
"1224","11294.64"
"1225","11313.6"
"1226","11331.96"
"1227","11345.86"
"1228","11350.12"
"1229","11338.95"
"1230","11307.41"
"1231","11265.49"
"1232","11235.83"
"1233","11241.16"
"1234","11284.9"
"1235","11340.75"
"1236","11379.91"
"1237","11385.23"
"1238","11372.98"
"1239","11365.36"
"1240","11379.85"
"1241","11407.75"
"1242","11431.36"
"1243","11435"
"1244","11425.71"
"1245","11424.8"
"1246","11452.91"
"1247","11506.61"
"1248","11555.98"
"1249","11569.95"
"1250","11539.47"
"1251","11497.86"
"1252","11483.24"
"1253","11518.62"
"1254","11574.77"
"1255","11611.14"
"1256","11594.44"
"1257","11537.95"
"1258","11473.29"
"1259","11430.47"
"1260","11418.01"
"1261","11429.8"
"1262","11459.41"
"1263","11498.14"
"1264","11534.72"
"1265","11557.83"
"1266","11563.74"
"1267","11563.14"
"1268","11568.36"
"1269","11586.44"
"1270","11607.25"
"1271","11617.14"
"1272","11605.41"
"1273","11578.05"
"1274","11547"
"1275","11523.45"
"1276","11510.99"
"1277","11508.71"
"1278","11515.46"
"1279","11526.28"
"1280","11532.54"
"1281","11525.66"
"1282","11505.4"
"1283","11483.99"
"1284","11474.7"
"1285","11485.32"
"1286","11510.47"
"1287","11542.85"
"1288","11575.2"
"1289","11600.48"
"1290","11611.68"
"1291","11603.72"
"1292","11583.78"
"1293","11564"
"1294","11555.72"
"1295","11561.16"
"1296","11576.83"
"1297","11599.24"
"1298","11627.04"
"1299","11660.88"
"1300","11701.3"
"1301","11740.19"
"1302","11757.1"
"1303","11730.68"
"1304","11658.12"
"1305","11576.58"
"1306","11528.44"
"1307","11540.5"
"1308","11587.86"
"1309","11634.91"
"1310","11652.13"
"1311","11641.36"
"1312","11614.44"
"1313","11583.4"
"1314","11561.67"
"1315","11563.35"
"1316","11600.64"
"1317","11660.46"
"1318","11712.15"
"1319","11725.83"
"1320","11699.32"
"1321","11657.92"
"1322","11627.81"
"1323","11619.11"
"1324","11619.37"
"1325","11614.48"
"1326","11599.05"
"1327","11585.03"
"1328","11586.44"
"1329","11610.22"
"1330","11643.32"
"1331","11669.14"
"1332","11674.82"
"1333","11662.72"
"1334","11639.08"
"1335","11611.14"
"1336","11591.81"
"1337","11596.11"
"1338","11636.03"
"1339","11698.14"
"1340","11756.23"
"1341","11785.53"
"1342","11780.94"
"1343","11750.68"
"1344","11703.43"
"1345","11651.61"
"1346","11610.97"
"1347","11596.99"
"1348","11612.21"
"1349","11643.71"
"1350","11677.68"
"1351","11703.68"
"1352","11716.48"
"1353","11711.36"
"1354","11689.67"
"1355","11665.23"
"1356","11653.38"
"1357","11660.73"
"1358","11670.6"
"1359","11662.39"
"1360","11624.44"
"1361","11576.52"
"1362","11545.32"
"1363","11550.22"
"1364","11576.86"
"1365","11601.19"
"1366","11603.61"
"1367","11591.26"
"1368","11581.19"
"1369","11587.78"
"1370","11604.54"
"1371","11615.22"
"1372","11605.71"
"1373","11584.49"
"1374","11573.18"
"1375","11591.36"
"1376","11629.01"
"1377","11655.01"
"1378","11639.44"
"1379","11583.21"
"1380","11513.83"
"1381","11459.12"
"1382","11431.88"
"1383","11429.35"
"1384","11447.94"
"1385","11479.87"
"1386","11512.24"
"1387","11531.92"
"1388","11532.15"
"1389","11515.44"
"1390","11485.12"
"1391","11449.82"
"1392","11427.25"
"1393","11435.96"
"1394","11479.1"
"1395","11529.02"
"1396","11554.47"
"1397","11540.39"
"1398","11509.44"
"1399","11489.67"
"1400","11495.19"
"1401","11502.84"
"1402","11483.22"
"1403","11422.45"
"1404","11354.52"
"1405","11322.61"
"1406","11354.91"
"1407","11426.71"
"1408","11501.71"
"1409","11549.13"
"1410","11560.25"
"1411","11531.81"
"1412","11466.33"
"1413","11391.92"
"1414","11343.86"
"1415","11348.72"
"1416","11390.08"
"1417","11438.25"
"1418","11467.02"
"1419","11469.23"
"1420","11444.15"
"1421","11395.12"
"1422","11349.7"
"1423","11344.29"
"1424","11406.37"
"1425","11505.94"
"1426","11590.37"
"1427","11614.52"
"1428","11585.55"
"1429","11532.53"
"1430","11482.99"
"1431","11452.76"
"1432","11452.45"
"1433","11490.13"
"1434","11554.42"
"1435","11624.98"
"1436","11682.53"
"1437","11716.83"
"1438","11722"
"1439","11694.59"
"1440","11651.09"
"1441","11617.77"
"1442","11617.23"
"1443","11640.85"
"1444","11664.38"
"1445","11667.07"
"1446","11658.69"
"1447","11664.33"
"1448","11704.21"
"1449","11756.25"
"1450","11777.13"
"1451","11730.55"
"1452","11640.53"
"1453","11561.12"
"1454","11539.3"
"1455","11562"
"1456","11586.81"
"1457","11576.13"
"1458","11532.31"
"1459","11476.8"
"1460","11429.51"
"1461","11397.99"
"1462","11384.09"
"1463","11387.44"
"1464","11391.61"
"1465","11373.16"
"1466","11313.95"
"1467","11232.65"
"1468","11163.23"
"1469","11133.86"
"1470","11135.23"
"1471","11143.33"
"1472","11137.56"
"1473","11117.53"
"1474","11090.21"
"1475","11062.74"
"1476","11043.33"
"1477","11040.49"
"1478","11058.15"
"1479","11077.66"
"1480","11073.43"
"1481","11027.93"
"1482","10959.22"
"1483","10895.21"
"1484","10858.84"
"1485","10853.34"
"1486","10877.1"
"1487","10924.31"
"1488","10974.51"
"1489","11004.03"
"1490","10997.93"
"1491","10968.16"
"1492","10931.82"
"1493","10902.54"
"1494","10884.57"
"1495","10880.62"
"1496","10888.89"
"1497","10897.15"
"1498","10891.69"
"1499","10866.97"
"1500","10833.76"
"1501","10804.71"
"1502","10784.38"
"1503","10763.45"
"1504","10731.43"
"1505","10692.08"
"1506","10670.06"
"1507","10690.89"
"1508","10749.59"
"1509","10803.02"
"1510","10807.37"
"1511","10763.99"
"1512","10721.97"
"1513","10729.92"
"1514","10784.46"
"1515","10836.25"
"1516","10838.09"
"1517","10795.16"
"1518","10751.03"
"1519","10745.39"
"1520","10766.64"
"1521","10772.31"
"1522","10726.82"
"1523","10654.63"
"1524","10609.54"
"1525","10634.27"
"1526","10699.87"
"1527","10749.47"
"1528","10738.09"
"1529","10679.52"
"1530","10605.5"
"1531","10543.86"
"1532","10507.44"
"1533","10505.54"
"1534","10538.6"
"1535","10581.3"
"1536","10603.69"
"1537","10589.87"
"1538","10555.2"
"1539","10519.27"
"1540","10498.57"
"1541","10504.22"
"1542","10546.29"
"1543","10611.33"
"1544","10654.84"
"1545","10632.2"
"1546","10547.11"
"1547","10452.3"
"1548","10399.85"
"1549","10398.3"
"1550","10422.51"
"1551","10448.03"
"1552","10466.13"
"1553","10477.28"
"1554","10482.35"
"1555","10484.51"
"1556","10487.94"
"1557","10493.85"
"1558","10488.78"
"1559","10454.72"
"1560","10385.13"
"1561","10313.56"
"1562","10282.31"
"1563","10311"
"1564","10363.17"
"1565","10394.05"
"1566","10381.58"
"1567","10343.82"
"1568","10302.67"
"1569","10269.87"
"1570","10244.35"
"1571","10224.42"
"1572","10212.4"
"1573","10214.27"
"1574","10235.44"
"1575","10273.57"
"1576","10321.34"
"1577","10370.11"
"1578","10402.34"
"1579","10396.51"
"1580","10340.75"
"1581","10269.68"
"1582","10231.91"
"1583","10256.01"
"1584","10306.98"
"1585","10337.38"
"1586","10322.91"
"1587","10288.07"
"1588","10263.25"
"1589","10263.41"
"1590","10281.64"
"1591","10309.16"
"1592","10333.79"
"1593","10340.05"
"1594","10314.4"
"1595","10267.69"
"1596","10226.6"
"1597","10213.8"
"1598","10222.47"
"1599","10233.2"
"1600","10230.76"
"1601","10217.92"
"1602","10202.27"
"1603","10191.01"
"1604","10190.17"
"1605","10205.51"
"1606","10234.14"
"1607","10258.59"
"1608","10260.68"
"1609","10243.61"
"1610","10233.93"
"1611","10256.31"
"1612","10294.45"
"1613","10303.15"
"1614","10246.97"
"1615","10166.14"
"1616","10134.43"
"1617","10200.68"
"1618","10306.91"
"1619","10366.71"
"1620","10333.44"
"1621","10261.04"
"1622","10218.46"
"1623","10231.91"
"1624","10261.92"
"1625","10265.1"
"1626","10235.25"
"1627","10201.51"
"1628","10191.72"
"1629","10206.06"
"1630","10228.56"
"1631","10245.26"
"1632","10254.4"
"1633","10258.4"
"1634","10257.55"
"1635","10245.43"
"1636","10214.45"
"1637","10168.03"
"1638","10129.37"
"1639","10122.86"
"1640","10150.11"
"1641","10188.43"
"1642","10215.77"
"1643","10230.76"
"1644","10245.09"
"1645","10266.99"
"1646","10283.69"
"1647","10274.92"
"1648","10232.87"
"1649","10188.66"
"1650","10180.66"
"1651","10218.89"
"1652","10264.39"
"1653","10274.73"
"1654","10240.72"
"1655","10186.12"
"1656","10135.68"
"1657","10110.29"
"1658","10128.7"
"1659","10198.57"
"1660","10273.71"
"1661","10291.63"
"1662","10224.47"
"1663","10132.34"
"1664","10088.1"
"1665","10112.55"
"1666","10154.62"
"1667","10161.04"
"1668","10124.74"
"1669","10074.07"
"1670","10035.44"
"1671","10015.98"
"1672","10014.92"
"1673","10028.24"
"1674","10041.31"
"1675","10037.32"
"1676","10006.98"
"1677","9953.871"
"1678","9883.333"
"1679","9809.67"
"1680","9755.479"
"1681","9740.632"
"1682","9759.953"
"1683","9796.052"
"1684","9832.526"
"1685","9857.217"
"1686","9859.059"
"1687","9836.895"
"1688","9808.488"
"1689","9793.026"
"1690","9792.953"
"1691","9794.126"
"1692","9783.432"
"1693","9762.782"
"1694","9741.763"
"1695","9726.455"
"1696","9708.945"
"1697","9677.994"
"1698","9635.007"
"1699","9605.125"
"1700","9614.534"
"1701","9655.546"
"1702","9688.371"
"1703","9678.135"
"1704","9638.958"
"1705","9608.075"
"1706","9610.623"
"1707","9628.9"
"1708","9636.096"
"1709","9624.194"
"1710","9616.026"
"1711","9635.242"
"1712","9671.942"
"1713","9689.106"
"1714","9656.986"
"1715","9596.493"
"1716","9548.063"
"1717","9538.715"
"1718","9558.454"
"1719","9591.058"
"1720","9622.346"
"1721","9640.773"
"1722","9636.289"
"1723","9613.371"
"1724","9585.419"
"1725","9562.161"
"1726","9536.512"
"1727","9496.861"
"1728","9444.035"
"1729","9402.769"
"1730","9398.942"
"1731","9427.762"
"1732","9456.936"
"1733","9458.903"
"1734","9444.469"
"1735","9440.12"
"1736","9462.284"
"1737","9499.527"
"1738","9535.702"
"1739","9556.792"
"1740","9551.411"
"1741","9511.541"
"1742","9460.116"
"1743","9437.333"
"1744","9468.07"
"1745","9519.108"
"1746","9544.034"
"1747","9522.991"
"1748","9478.047"
"1749","9433.938"
"1750","9401.528"
"1751","9381.916"
"1752","9375.146"
"1753","9377.158"
"1754","9382.672"
"1755","9385.615"
"1756","9378.434"
"1757","9354.636"
"1758","9328.701"
"1759","9332.581"
"1760","9388.117"
"1761","9457.211"
"1762","9480.962"
"1763","9433.746"
"1764","9362.713"
"1765","9322.457"
"1766","9322.21"
"1767","9329.314"
"1768","9315.296"
"1769","9287.64"
"1770","9267.57"
"1771","9267.326"
"1772","9278.057"
"1773","9288.303"
"1774","9295.46"
"1775","9305.464"
"1776","9323.182"
"1777","9344.395"
"1778","9361.336"
"1779","9368.901"
"1780","9368.266"
"1781","9361.461"
"1782","9349.678"
"1783","9333.302"
"1784","9313.423"
"1785","9295.549"
"1786","9286.843"
"1787","9292.163"
"1788","9311.321"
"1789","9342.719"
"1790","9371.762"
"1791","9372.491"
"1792","9327.482"
"1793","9267.558"
"1794","9239.536"
"1795","9261.386"
"1796","9295.302"
"1797","9299.777"
"1798","9273.354"
"1799","9244.912"
"1800","9236.042"
"1801","9232.157"
"1802","9208.847"
"1803","9162.803"
"1804","9124.47"
"1805","9124.704"
"1806","9164.889"
"1807","9228.219"
"1808","9295.838"
"1809","9342.878"
"1810","9343.909"
"1811","9302.258"
"1812","9257.257"
"1813","9243.465"
"1814","9239.791"
"1815","9199.05"
"1816","9106.009"
"1817","9026.842"
"1818","9036.387"
"1819","9124.972"
"1820","9204.644"
"1821","9202.79"
"1822","9144.789"
"1823","9088.143"
"1824","9062.799"
"1825","9050.047"
"1826","9028.71"
"1827","9006.921"
"1828","9011.696"
"1829","9058.588"
"1830","9122.722"
"1831","9170.86"
"1832","9180.348"
"1833","9140.981"
"1834","9050.607"
"1835","8956.719"
"1836","8927.213"
"1837","8989.519"
"1838","9085.488"
"1839","9149.371"
"1840","9163.368"
"1841","9145.171"
"1842","9112.872"
"1843","9082.734"
"1844","9070.234"
"1845","9077.031"
"1846","9087.349"
"1847","9085.986"
"1848","9070.119"
"1849","9042.279"
"1850","9011.68"
"1851","9001.635"
"1852","9034.164"
"1853","9088.469"
"1854","9112.796"
"1855","9076.581"
"1856","9028.544"
"1857","9033.271"
"1858","9090.171"
"1859","9123.494"
"1860","9070.617"
"1861","8975.685"
"1862","8922.824"
"1863","8952.936"
"1864","9028.586"
"1865","9105.204"
"1866","9150.696"
"1867","9140.389"
"1868","9067.932"
"1869","8978.498"
"1870","8924.405"
"1871","8919.962"
"1872","8945.38"
"1873","8980.562"
"1874","9009.537"
"1875","9017.614"
"1876","8997.571"
"1877","8951.952"
"1878","8887.556"
"1879","8835.25"
"1880","8835.591"
"1881","8895.885"
"1882","8960.966"
"1883","8974.844"
"1884","8945.857"
"1885","8920.392"
"1886","8928.828"
"1887","8957.439"
"1888","8985.743"
"1889","9002.107"
"1890","9002.087"
"1891","8982.978"
"1892","8947.81"
"1893","8901.206"
"1894","8854.148"
"1895","8824.52"
"1896","8825.439"
"1897","8843.572"
"1898","8857.328"
"1899","8857.289"
"1900","8851.305"
"1901","8848.019"
"1902","8852.411"
"1903","8867.838"
"1904","8889.043"
"1905","8895.23"
"1906","8867.834"
"1907","8824.22"
"1908","8801.024"
"1909","8815.502"
"1910","8840.486"
"1911","8844.906"
"1912","8825.311"
"1913","8796.508"
"1914","8770.991"
"1915","8753.797"
"1916","8748.384"
"1917","8753.368"
"1918","8763.529"
"1919","8772.502"
"1920","8770.498"
"1921","8748.014"
"1922","8715.945"
"1923","8703.98"
"1924","8732.204"
"1925","8779.989"
"1926","8817.13"
"1927","8825.207"
"1928","8798.146"
"1929","8738.866"
"1930","8687.983"
"1931","8695.015"
"1932","8755.401"
"1933","8801.929"
"1934","8780.158"
"1935","8717.427"
"1936","8665.76"
"1937","8649.96"
"1938","8660.662"
"1939","8685.223"
"1940","8705.137"
"1941","8700.356"
"1942","8669.607"
"1943","8636.474"
"1944","8622.653"
"1945","8629.167"
"1946","8649.667"
"1947","8672.08"
"1948","8676.555"
"1949","8648.811"
"1950","8610.081"
"1951","8593.741"
"1952","8606.201"
"1953","8616.868"
"1954","8599.942"
"1955","8572.75"
"1956","8567.316"
"1957","8589.184"
"1958","8608.213"
"1959","8596.82"
"1960","8555.841"
"1961","8496.063"
"1962","8436.555"
"1963","8407.016"
"1964","8427.032"
"1965","8459.86"
"1966","8452.031"
"1967","8400.808"
"1968","8364.679"
"1969","8389.469"
"1970","8443.226"
"1971","8472.224"
"1972","8458.415"
"1973","8423.075"
"1974","8386.905"
"1975","8359.384"
"1976","8346.513"
"1977","8341.613"
"1978","8325.521"
"1979","8287.792"
"1980","8251.734"
"1981","8246.678"
"1982","8271.095"
"1983","8296.981"
"1984","8303.948"
"1985","8297.811"
"1986","8288.965"
"1987","8281.485"
"1988","8274.834"
"1989","8268.063"
"1990","8259.455"
"1991","8247.78"
"1992","8238.381"
"1993","8240.53"
"1994","8254.847"
"1995","8264.038"
"1996","8251.277"
"1997","8221.975"
"1998","8192.315"
"1999","8173.987"
"2000","8171.174"
"2001","8183.535"
"2002","8187.223"
"2003","8150.25"
"2004","8073.13"
"2005","7998.003"
"2006","7965.377"
"2007","7995.197"
"2008","8099.188"
"2009","8235.616"
"2010","8310.241"
"2011","8260.46"
"2012","8137.114"
"2013","8013.438"
"2014","7943.027"
"2015","7964.982"
"2016","8075.614"
"2017","8169.876"
"2018","8141.866"
"2019","8016.324"
"2020","7887.78"
"2021","7843.452"
"2022","7956.64"
"2023","8229.596"
"2024","8243.966"
"2025","7447.216"
"2026","6073.762"
"2027","5300.619"
"2028","5955.231"
"2029","7235.458"
"2030","7985.283"
"2031","7983.893"
"2032","7785.619"
"2033","7784.814"
"2034","7895.134"
"2035","7964.99"
"2036","7960.358"
"2037","7912.609"
"2038","7852.178"
"2039","7806.601"
"2040","7795.024"
"2041","7789.397"
"2042","7746.605"
"2043","7676.648"
"2044","7648.37"
"2045","7702.45"
"2046","7770.173"
"2047","7765.702"
"2048","7695.375"
"2049","7630.647"
"2050","7618.406"
"2051","7650.508"
"2052","7708.516"
"2053","7750.621"
"2054","7726.075"
"2055","7635.572"
"2056","7546.033"
"2057","7515.871"
"2058","7550.886"
"2059","7640.967"
"2060","7734.697"
"2061","7748.646"
"2062","7655.205"
"2063","7555.238"
"2064","7549.118"
"2065","7598.591"
"2066","7604.333"
"2067","7540.593"
"2068","7477.957"
"2069","7473.016"
"2070","7500.921"
"2071","7518.621"
"2072","7511.316"
"2073","7485.267"
"2074","7446.505"
"2075","7399.508"
"2076","7349.514"
"2077","7307.956"
"2078","7288.018"
"2079","7278.47"
"2080","7240.008"
"2081","7163.514"
"2082","7145.206"
"2083","7286.052"
"2084","7494.24"
"2085","7559.566"
"2086","7412.944"
"2087","7227.987"
"2088","7163.73"
"2089","7183.525"
"2090","7192.797"
"2091","7170.568"
"2092","7161.164"
"2093","7191.897"
"2094","7243.32"
"2095","7288.659"
"2096","7298.858"
"2097","7245.031"
"2098","7140.731"
"2099","7050.51"
"2100","7021.435"
"2101","7031.831"
"2102","7048.336"
"2103","7065.447"
"2104","7093.837"
"2105","7118.698"
"2106","7085.289"
"2107","6962.867"
"2108","6841.164"
"2109","6833.644"
"2110","6917.318"
"2111","6967.419"
"2112","6921.013"
"2113","6839.569"
"2114","6789.051"
"2115","6781.376"
"2116","6809.488"
"2117","6854.118"
"2118","6885.122"
"2119","6887.436"
"2120","6881.51"
"2121","6888.683"
"2122","6903.5"
"2123","6910.233"
"2124","6903.27"
"2125","6887.333"
"2126","6865.507"
"2127","6835.428"
"2128","6793.539"
"2129","6734.01"
"2130","6651.02"
"2131","6567.073"
"2132","6536"
"2133","6582.146"
"2134","6642.708"
"2135","6650.463"
"2136","6623.408"
"2137","6618.01"
"2138","6642.961"
"2139","6651.772"
"2140","6610.822"
"2141","6532.322"
"2142","6439.5"
"2143","6377.558"
"2144","6399.975"
"2145","6494.096"
"2146","6571.886"
"2147","6571.369"
"2148","6515.24"
"2149","6440.422"
"2150","6380.136"
"2151","6364.301"
"2152","6377.155"
"2153","6353.789"
"2154","6273.095"
"2155","6233.485"
"2156","6327.529"
"2157","6477.564"
"2158","6540.566"
"2159","6491.996"
"2160","6423.086"
"2161","6390.054"
"2162","6357.968"
"2163","6291.256"
"2164","6224.2"
"2165","6213.356"
"2166","6264.752"
"2167","6341.626"
"2168","6396.813"
"2169","6365.989"
"2170","6212.57"
"2171","6041.045"
"2172","5985.578"
"2173","6020.339"
"2174","6009.382"
"2175","5916.108"
"2176","5862.375"
"2177","5935.972"
"2178","6048"
"2179","6080.901"
"2180","6032.658"
"2181","5963.838"
"2182","5905.988"
"2183","5854.658"
"2184","5804.508"
"2185","5753.684"
"2186","5703.946"
"2187","5677.124"
"2188","5701.505"
"2189","5770.244"
"2190","5844.705"
"2191","5891.069"
"2192","5887.438"
"2193","5823.83"
"2194","5738.612"
"2195","5678.428"
"2196","5624.212"
"2197","5516.544"
"2198","5384.826"
"2199","5380.966"
"2200","5578.408"
"2201","5786.646"
"2202","5801.339"
"2203","5677.33"
"2204","5576.661"
"2205","5554.49"
"2206","5566.894"
"2207","5576.901"
"2208","5568.382"
"2209","5530.009"
"2210","5461.294"
"2211","5367.24"
"2212","5279.256"
"2213","5243.24"
"2214","5261.541"
"2215","5283.047"
"2216","5279.048"
"2217","5286.82"
"2218","5337.371"
"2219","5365.568"
"2220","5281.864"
"2221","5139.893"
"2222","5098.167"
"2223","5197.547"
"2224","5298.037"
"2225","5293.56"
"2226","5233.145"
"2227","5187.549"
"2228","5164.974"
"2229","5147.028"
"2230","5118.118"
"2231","5065.379"
"2232","4994.124"
"2233","4940.74"
"2234","4931.104"
"2235","4942.143"
"2236","4941.97"
"2237","4916.111"
"2238","4859.483"
"2239","4790.997"
"2240","4751.676"
"2241","4755.423"
"2242","4765.081"
"2243","4750.789"
"2244","4730.653"
"2245","4731.687"
"2246","4761.835"
"2247","4818.039"
"2248","4860.434"
"2249","4815.469"
"2250","4675.627"
"2251","4554.095"
"2252","4530.529"
"2253","4518.061"
"2254","4411.6"
"2255","4252.817"
"2256","4146.197"
"2257","4117.706"
"2258","4124.675"
"2259","4132.224"
"2260","4122.074"
"2261","4082.864"
"2262","4020.605"
"2263","3949.889"
"2264","3918.133"
"2265","3978.127"
"2266","4068.551"
"2267","4044.3"
"2268","3874.458"
"2269","3689.456"
"2270","3583.534"
"2271","3524.749"
"2272","3471.931"
"2273","3441.332"
"2274","3460.269"
"2275","3477.054"
"2276","3395.543"
"2277","3220.129"
"2278","3066.174"
"2279","3000.94"
"2280","2983.868"
"2281","2972.142"
"2282","2963.27"
"2283","2958.897"
"2284","2920.859"
"2285","2797.856"
"2286","2618.591"
"2287","2475.878"
"2288","2410.054"
"2289","2383.272"
"2290","2367.213"
"2291","2374.149"
"2292","2409.599"
"2293","2414.404"
"2294","2320.414"
"2295","2164.549"
"2296","2039.563"
"2297","1976.181"
"2298","1944.296"
"2299","1924.559"
"2300","1920.081"
