,"Scan 00919"
"400","9109.627"
"401","9108.884"
"402","9098.431"
"403","9080.948"
"404","9059.104"
"405","9035.679"
"406","9014.597"
"407","9000.347"
"408","8997.392"
"409","9009.442"
"410","9030.887"
"411","9049.651"
"412","9053.618"
"413","9031.485"
"414","8987.068"
"415","8938.252"
"416","8903.341"
"417","8900.07"
"418","8930.852"
"419","8979.271"
"420","9027.855"
"421","9059.37"
"422","9064.208"
"423","9044.963"
"424","9005.318"
"425","8948.95"
"426","8883.739"
"427","8826.368"
"428","8794.519"
"429","8805.727"
"430","8865.554"
"431","8947.461"
"432","9019.725"
"433","9050.85"
"434","9021.315"
"435","8952.486"
"436","8874.394"
"437","8816.86"
"438","8802.107"
"439","8819.734"
"440","8850.509"
"441","8875.331"
"442","8878.847"
"443","8865.606"
"444","8846.887"
"445","8833.89"
"446","8835.853"
"447","8849.105"
"448","8864.689"
"449","8873.688"
"450","8868.496"
"451","8851.967"
"452","8832.08"
"453","8816.792"
"454","8812.957"
"455","8816.802"
"456","8818.461"
"457","8808.058"
"458","8776.855"
"459","8729.158"
"460","8677.869"
"461","8635.965"
"462","8615.467"
"463","8615.769"
"464","8626.844"
"465","8638.496"
"466","8641.1"
"467","8633.633"
"468","8622.247"
"469","8613.265"
"470","8612.673"
"471","8620.34"
"472","8630.537"
"473","8637.369"
"474","8635.229"
"475","8624.447"
"476","8611.223"
"477","8601.974"
"478","8602.802"
"479","8612.686"
"480","8623.059"
"481","8625.033"
"482","8610.109"
"483","8579.234"
"484","8543.91"
"485","8516.129"
"486","8507.502"
"487","8520.012"
"488","8544.467"
"489","8571.098"
"490","8590.252"
"491","8594.2"
"492","8577.49"
"493","8534.837"
"494","8461.318"
"495","8363.164"
"496","8260.068"
"497","8172.415"
"498","8120.006"
"499","8106.98"
"500","8118.621"
"501","8139.172"
"502","8153.194"
"503","8152.549"
"504","8137.751"
"505","8109.818"
"506","8069.766"
"507","8018.691"
"508","7957.796"
"509","7888.276"
"510","7811.534"
"511","7734.962"
"512","7672.582"
"513","7638.676"
"514","7646.745"
"515","7692.208"
"516","7751.58"
"517","7800.605"
"518","7816.025"
"519","7794.028"
"520","7749.791"
"521","7699.205"
"522","7657.57"
"523","7630.27"
"524","7613.762"
"525","7604.201"
"526","7597.883"
"527","7593.199"
"528","7590.249"
"529","7589.183"
"530","7590.039"
"531","7591.242"
"532","7590.039"
"533","7583.661"
"534","7569.527"
"535","7547.097"
"536","7517.152"
"537","7480.499"
"538","7438.348"
"539","7395.993"
"540","7361.027"
"541","7341.029"
"542","7342.342"
"543","7361.549"
"544","7390.51"
"545","7421.093"
"546","7445.827"
"547","7461.427"
"548","7466.331"
"549","7458.985"
"550","7438.713"
"551","7409.587"
"552","7377.258"
"553","7347.354"
"554","7324.634"
"555","7310.119"
"556","7303.814"
"557","7305.72"
"558","7315.162"
"559","7329.079"
"560","7343.91"
"561","7356.112"
"562","7362.913"
"563","7363.646"
"564","7357.995"
"565","7345.662"
"566","7327.505"
"567","7306.881"
"568","7287.465"
"569","7272.882"
"570","7264.669"
"571","7260.87"
"572","7259.204"
"573","7257.456"
"574","7255.633"
"575","7256.63"
"576","7263.521"
"577","7279.136"
"578","7300.918"
"579","7320.944"
"580","7331.084"
"581","7323.89"
"582","7301.374"
"583","7272.72"
"584","7247.253"
"585","7233.452"
"586","7231.831"
"587","7238.397"
"588","7249.126"
"589","7260.208"
"590","7269.163"
"591","7274.072"
"592","7273.02"
"593","7265.093"
"594","7254.008"
"595","7244.81"
"596","7242.528"
"597","7250.095"
"598","7263.771"
"599","7278.485"
"600","7289.207"
"601","7293.017"
"602","7291.664"
"603","7287.51"
"604","7282.866"
"605","7277.168"
"606","7265.45"
"607","7242.384"
"608","7203.006"
"609","7151.313"
"610","7100.845"
"611","7065.563"
"612","7058.33"
"613","7077.405"
"614","7110.345"
"615","7144.506"
"616","7168.606"
"617","7182.347"
"618","7190.834"
"619","7199.196"
"620","7211.201"
"621","7223.764"
"622","7231.611"
"623","7229.49"
"624","7214.685"
"625","7192.557"
"626","7170.065"
"627","7154.107"
"628","7146.797"
"629","7140.631"
"630","7126.969"
"631","7097.472"
"632","7054.106"
"633","7012.133"
"634","6987.637"
"635","6995.625"
"636","7033.907"
"637","7086.107"
"638","7135.482"
"639","7166.66"
"640","7175.85"
"641","7165.25"
"642","7137.103"
"643","7094.883"
"644","7048.252"
"645","7008.755"
"646","6987.907"
"647","6992.373"
"648","7015.021"
"649","7046.275"
"650","7076.622"
"651","7098.431"
"652","7107.25"
"653","7098.941"
"654","7069.842"
"655","7027.246"
"656","6989.554"
"657","6975.603"
"658","7001.681"
"659","7057.46"
"660","7116.606"
"661","7152.645"
"662","7145.102"
"663","7106.279"
"664","7059.655"
"665","7028.646"
"666","7028.016"
"667","7046.976"
"668","7070.061"
"669","7081.982"
"670","7077.112"
"671","7065.645"
"672","7059.229"
"673","7068.856"
"674","7092.894"
"675","7117.944"
"676","7130.203"
"677","7118.046"
"678","7088.836"
"679","7059.784"
"680","7048.14"
"681","7065.958"
"682","7102.727"
"683","7141.803"
"684","7166.629"
"685","7168.86"
"686","7158.515"
"687","7148.076"
"688","7149.734"
"689","7167.032"
"690","7193.2"
"691","7220.882"
"692","7242.918"
"693","7254.274"
"694","7251.279"
"695","7230.296"
"696","7190.035"
"697","7141.506"
"698","7099.716"
"699","7079.62"
"700","7088.009"
"701","7111.028"
"702","7131.631"
"703","7133.165"
"704","7112.222"
"705","7082.359"
"706","7058.217"
"707","7053.365"
"708","7068.993"
"709","7098.137"
"710","7133.707"
"711","7168.788"
"712","7197.306"
"713","7213.473"
"714","7211.525"
"715","7190.682"
"716","7161.933"
"717","7137.943"
"718","7131.026"
"719","7143.548"
"720","7166.44"
"721","7190.015"
"722","7205.239"
"723","7209.22"
"724","7202.53"
"725","7185.777"
"726","7160.545"
"727","7132.406"
"728","7107.951"
"729","7093.721"
"730","7093.087"
"731","7103.584"
"732","7122.133"
"733","7145.696"
"734","7171.945"
"735","7199.162"
"736","7225.653"
"737","7249.597"
"738","7268.329"
"739","7278.853"
"740","7278.171"
"741","7265.062"
"742","7243.076"
"743","7216.555"
"744","7189.906"
"745","7169.607"
"746","7164.654"
"747","7184.179"
"748","7235.04"
"749","7302.742"
"750","7361.074"
"751","7383.752"
"752","7354.014"
"753","7289.865"
"754","7217.233"
"755","7161.821"
"756","7138.256"
"757","7144.189"
"758","7175.834"
"759","7228.986"
"760","7294.193"
"761","7358.448"
"762","7408.691"
"763","7434.578"
"764","7437.79"
"765","7423.356"
"766","7396.323"
"767","7362.786"
"768","7330.744"
"769","7308.376"
"770","7303.348"
"771","7315.937"
"772","7340.818"
"773","7372.539"
"774","7405.636"
"775","7434.611"
"776","7453.954"
"777","7458.218"
"778","7448.332"
"779","7437.135"
"780","7438.768"
"781","7466.208"
"782","7515.284"
"783","7568.561"
"784","7608.283"
"785","7620.789"
"786","7612.164"
"787","7594.445"
"788","7579.606"
"789","7574.413"
"790","7576.321"
"791","7581.815"
"792","7587.62"
"793","7593.494"
"794","7601.4"
"795","7613.34"
"796","7629.885"
"797","7645.417"
"798","7652.657"
"799","7644.459"
"800","7621.236"
"801","7595.233"
"802","7579.718"
"803","7586.423"
"804","7610.6"
"805","7637.45"
"806","7652.037"
"807","7645.093"
"808","7626.923"
"809","7612.046"
"810","7614.688"
"811","7638.563"
"812","7674.236"
"813","7711.445"
"814","7740.812"
"815","7759.86"
"816","7769.352"
"817","7770.071"
"818","7763.515"
"819","7752.989"
"820","7742.076"
"821","7734.222"
"822","7730.186"
"823","7728.246"
"824","7726.591"
"825","7723.851"
"826","7720.968"
"827","7719.634"
"828","7721.533"
"829","7727.519"
"830","7737.023"
"831","7749.335"
"832","7763.518"
"833","7776.07"
"834","7781.917"
"835","7775.957"
"836","7756.244"
"837","7730.99"
"838","7710.443"
"839","7704.525"
"840","7714.261"
"841","7730.979"
"842","7745.522"
"843","7750.206"
"844","7746.255"
"845","7738.217"
"846","7730.631"
"847","7727.579"
"848","7732.268"
"849","7747.811"
"850","7776.692"
"851","7814.152"
"852","7850.817"
"853","7877.242"
"854","7887.176"
"855","7884.45"
"856","7874.875"
"857","7864.19"
"858","7856.363"
"859","7853.559"
"860","7857.853"
"861","7870.72"
"862","7890.409"
"863","7914.117"
"864","7939.028"
"865","7962.243"
"866","7980.723"
"867","7991.415"
"868","7991.904"
"869","7985.342"
"870","7977.764"
"871","7975.217"
"872","7981.327"
"873","7993.91"
"874","8009.92"
"875","8026.494"
"876","8043.364"
"877","8062.25"
"878","8084.918"
"879","8110.463"
"880","8128.353"
"881","8125.903"
"882","8091.156"
"883","8031.418"
"884","7974.745"
"885","7950.2"
"886","7978.859"
"887","8040.019"
"888","8099.358"
"889","8123.058"
"890","8103.24"
"891","8070.096"
"892","8056.856"
"893","8091.268"
"894","8160.55"
"895","8233.75"
"896","8279.965"
"897","8284.425"
"898","8263.758"
"899","8238.216"
"900","8226.328"
"901","8229.049"
"902","8237.01"
"903","8240.719"
"904","8234.999"
"905","8225.494"
"906","8219.537"
"907","8224.025"
"908","8239.935"
"909","8263.865"
"910","8292.322"
"911","8321.878"
"912","8349.313"
"913","8371.456"
"914","8385.374"
"915","8392.699"
"916","8399.122"
"917","8410.476"
"918","8428.985"
"919","8443.053"
"920","8437.751"
"921","8399.008"
"922","8333.827"
"923","8271.083"
"924","8240.67"
"925","8264.016"
"926","8324.463"
"927","8394.646"
"928","8447.677"
"929","8471.682"
"930","8472.396"
"931","8456.545"
"932","8431.218"
"933","8405.25"
"934","8388.045"
"935","8388.763"
"936","8407.628"
"937","8433.411"
"938","8454.125"
"939","8459.873"
"940","8452.302"
"941","8437.022"
"942","8419.639"
"943","8405.094"
"944","8397.432"
"945","8400.635"
"946","8417.312"
"947","8442.101"
"948","8466.771"
"949","8483.192"
"950","8488.034"
"951","8484.629"
"952","8476.811"
"953","8468.14"
"954","8460.616"
"955","8455.668"
"956","8454.653"
"957","8455.884"
"958","8453.444"
"959","8441.116"
"960","8414.813"
"961","8382.63"
"962","8356.964"
"963","8350.021"
"964","8365.492"
"965","8395.776"
"966","8432.484"
"967","8467.658"
"968","8495.669"
"969","8511.657"
"970","8510.959"
"971","8495.602"
"972","8475.91"
"973","8462.733"
"974","8464.054"
"975","8473.967"
"976","8482.357"
"977","8479.373"
"978","8462.786"
"979","8438.917"
"980","8414.54"
"981","8395.949"
"982","8387.4"
"983","8392.605"
"984","8414.966"
"985","8450.844"
"986","8489.68"
"987","8520.615"
"988","8535.854"
"989","8538.625"
"990","8534.637"
"991","8529.544"
"992","8528.034"
"993","8533.979"
"994","8551.223"
"995","8580.693"
"996","8614.679"
"997","8643.883"
"998","8659.529"
"999","8659.637"
"1000","8646.938"
"1001","8624.267"
"1002","8596.025"
"1003","8570.333"
"1004","8555.846"
"1005","8561.225"
"1006","8592.696"
"1007","8640.105"
"1008","8686.54"
"1009","8715.229"
"1010","8717.78"
"1011","8697.833"
"1012","8659.952"
"1013","8610.414"
"1014","8564.767"
"1015","8541.694"
"1016","8559.27"
"1017","8615.766"
"1018","8686.205"
"1019","8744.262"
"1020","8770.297"
"1021","8772.942"
"1022","8768.296"
"1023","8771.871"
"1024","8787.203"
"1025","8806.731"
"1026","8822.474"
"1027","8829.731"
"1028","8834.164"
"1029","8843.466"
"1030","8864.638"
"1031","8895.602"
"1032","8927.902"
"1033","8952.967"
"1034","8965.926"
"1035","8970.328"
"1036","8970.891"
"1037","8971.996"
"1038","8975.159"
"1039","8980.445"
"1040","8987.913"
"1041","8997.829"
"1042","9010.795"
"1043","9027.442"
"1044","9047.628"
"1045","9066.918"
"1046","9079.396"
"1047","9079.378"
"1048","9067.682"
"1049","9052.254"
"1050","9041.412"
"1051","9040.313"
"1052","9042.949"
"1053","9040.85"
"1054","9026.218"
"1055","9000.554"
"1056","8972.106"
"1057","8949.279"
"1058","8939.506"
"1059","8948.102"
"1060","8980.1"
"1061","9038.536"
"1062","9111.412"
"1063","9179.886"
"1064","9225.313"
"1065","9239.184"
"1066","9226.644"
"1067","9193.796"
"1068","9148.95"
"1069","9109.693"
"1070","9096.07"
"1071","9126.4"
"1072","9191.021"
"1073","9257.635"
"1074","9293.332"
"1075","9281.118"
"1076","9241.151"
"1077","9198.889"
"1078","9177.213"
"1079","9179.267"
"1080","9199.098"
"1081","9230.659"
"1082","9266.249"
"1083","9296.021"
"1084","9309.973"
"1085","9302.398"
"1086","9284.061"
"1087","9269.673"
"1088","9272.801"
"1089","9291.717"
"1090","9313.861"
"1091","9326.485"
"1092","9323.076"
"1093","9309.103"
"1094","9291.417"
"1095","9276.508"
"1096","9268.782"
"1097","9271.885"
"1098","9289.11"
"1099","9315.658"
"1100","9338.743"
"1101","9345.251"
"1102","9326.849"
"1103","9287.979"
"1104","9235.191"
"1105","9175.504"
"1106","9119.709"
"1107","9080.412"
"1108","9069.938"
"1109","9089.405"
"1110","9125.825"
"1111","9165.313"
"1112","9197.207"
"1113","9221.853"
"1114","9241.923"
"1115","9259.432"
"1116","9269.622"
"1117","9263.749"
"1118","9233.27"
"1119","9183.323"
"1120","9139.271"
"1121","9128.113"
"1122","9166.815"
"1123","9232.698"
"1124","9293.305"
"1125","9318.902"
"1126","9312.24"
"1127","9297.28"
"1128","9298.109"
"1129","9322.074"
"1130","9349.828"
"1131","9359.626"
"1132","9336.665"
"1133","9295.046"
"1134","9256.383"
"1135","9240.498"
"1136","9245.322"
"1137","9254.212"
"1138","9250.454"
"1139","9230.104"
"1140","9209.379"
"1141","9206.282"
"1142","9232.419"
"1143","9273.948"
"1144","9310.676"
"1145","9324.334"
"1146","9317.959"
"1147","9307.851"
"1148","9310.24"
"1149","9327.9"
"1150","9344.3"
"1151","9341.394"
"1152","9309.543"
"1153","9268.165"
"1154","9242.969"
"1155","9255.948"
"1156","9295.216"
"1157","9330.834"
"1158","9333.575"
"1159","9303.593"
"1160","9276.256"
"1161","9289.012"
"1162","9360.024"
"1163","9454.468"
"1164","9528.479"
"1165","9545.485"
"1166","9518.539"
"1167","9481.319"
"1168","9466.12"
"1169","9475.866"
"1170","9486.336"
"1171","9472.401"
"1172","9426.963"
"1173","9379.127"
"1174","9362.366"
"1175","9399.856"
"1176","9466.609"
"1177","9523.561"
"1178","9535.184"
"1179","9508.11"
"1180","9476.498"
"1181","9474.438"
"1182","9511.324"
"1183","9562.699"
"1184","9601.65"
"1185","9610.656"
"1186","9600.063"
"1187","9585.355"
"1188","9580.095"
"1189","9584.688"
"1190","9594.057"
"1191","9603.243"
"1192","9609.849"
"1193","9613.713"
"1194","9614.749"
"1195","9613.487"
"1196","9611.537"
"1197","9610.615"
"1198","9612.136"
"1199","9616.332"
"1200","9623.166"
"1201","9632.62"
"1202","9644.858"
"1203","9660.132"
"1204","9678.57"
"1205","9697.429"
"1206","9711.101"
"1207","9713.878"
"1208","9703.482"
"1209","9684.379"
"1210","9661.805"
"1211","9640.888"
"1212","9626.282"
"1213","9622.522"
"1214","9633.519"
"1215","9657.634"
"1216","9690.372"
"1217","9727.067"
"1218","9759.803"
"1219","9777.451"
"1220","9768.846"
"1221","9733.558"
"1222","9691.243"
"1223","9663.773"
"1224","9666.431"
"1225","9690.14"
"1226","9720.205"
"1227","9743.363"
"1228","9757.27"
"1229","9764.555"
"1230","9767.868"
"1231","9769.548"
"1232","9771.688"
"1233","9776.387"
"1234","9786.23"
"1235","9804.571"
"1236","9834.822"
"1237","9877.293"
"1238","9923.42"
"1239","9963.052"
"1240","9987.225"
"1241","9993.551"
"1242","9981.897"
"1243","9952.931"
"1244","9916.376"
"1245","9887.635"
"1246","9881.696"
"1247","9899.686"
"1248","9927.493"
"1249","9950.283"
"1250","9960.746"
"1251","9966.017"
"1252","9974.861"
"1253","9991.892"
"1254","10007.31"
"1255","10008.21"
"1256","9984.804"
"1257","9947.45"
"1258","9914.421"
"1259","9902.901"
"1260","9915.885"
"1261","9946.714"
"1262","9988.463"
"1263","10031.92"
"1264","10065.28"
"1265","10076.67"
"1266","10062.45"
"1267","10034.62"
"1268","10006.96"
"1269","9990.442"
"1270","9986.935"
"1271","9996.445"
"1272","10017.53"
"1273","10040.43"
"1274","10052.43"
"1275","10042.51"
"1276","10017.12"
"1277","9992.963"
"1278","9986.109"
"1279","9996.544"
"1280","10009.04"
"1281","10007.96"
"1282","9987.984"
"1283","9959.206"
"1284","9932.993"
"1285","9917.077"
"1286","9910.445"
"1287","9910.806"
"1288","9916.517"
"1289","9928.502"
"1290","9948.322"
"1291","9976.945"
"1292","10011.51"
"1293","10047.61"
"1294","10080.79"
"1295","10106.11"
"1296","10118.32"
"1297","10112.72"
"1298","10096.21"
"1299","10086.75"
"1300","10102.4"
"1301","10143.69"
"1302","10186.16"
"1303","10203.48"
"1304","10182.99"
"1305","10141.62"
"1306","10100.14"
"1307","10075.55"
"1308","10072.37"
"1309","10092.52"
"1310","10135.31"
"1311","10186.58"
"1312","10227.91"
"1313","10242.88"
"1314","10231.49"
"1315","10201.59"
"1316","10161.11"
"1317","10118.32"
"1318","10081.72"
"1319","10059.58"
"1320","10054.1"
"1321","10061.47"
"1322","10077.61"
"1323","10096.68"
"1324","10110.45"
"1325","10110.55"
"1326","10095.59"
"1327","10078.08"
"1328","10072.2"
"1329","10084.33"
"1330","10098.84"
"1331","10096.16"
"1332","10064.43"
"1333","10023.15"
"1334","9999.803"
"1335","10016.02"
"1336","10059.03"
"1337","10103.57"
"1338","10127.12"
"1339","10130.56"
"1340","10126.47"
"1341","10126.93"
"1342","10136.51"
"1343","10154.63"
"1344","10180.29"
"1345","10206.33"
"1346","10219.98"
"1347","10208.71"
"1348","10174.13"
"1349","10134.78"
"1350","10110.03"
"1351","10109.69"
"1352","10128.56"
"1353","10160.14"
"1354","10195.71"
"1355","10222.05"
"1356","10225.36"
"1357","10200.56"
"1358","10165.87"
"1359","10143.38"
"1360","10146.82"
"1361","10160.44"
"1362","10162.01"
"1363","10136.37"
"1364","10101.06"
"1365","10083.02"
"1366","10103.2"
"1367","10146.77"
"1368","10185.63"
"1369","10195.07"
"1370","10176.95"
"1371","10145.6"
"1372","10114.73"
"1373","10091.2"
"1374","10077.88"
"1375","10077.22"
"1376","10086.56"
"1377","10099.64"
"1378","10110.17"
"1379","10113.28"
"1380","10105.26"
"1381","10082.84"
"1382","10051.41"
"1383","10025.42"
"1384","10019.36"
"1385","10035.05"
"1386","10058.66"
"1387","10075.51"
"1388","10077.9"
"1389","10068.39"
"1390","10050.31"
"1391","10028.58"
"1392","10010.74"
"1393","10004.61"
"1394","10014.12"
"1395","10035.58"
"1396","10064.33"
"1397","10094.34"
"1398","10116.26"
"1399","10120.3"
"1400","10100.82"
"1401","10063.33"
"1402","10015.2"
"1403","9965.712"
"1404","9930.032"
"1405","9924.472"
"1406","9957.805"
"1407","10012.29"
"1408","10064.37"
"1409","10094.36"
"1410","10098.08"
"1411","10075.18"
"1412","10029.2"
"1413","9980.844"
"1414","9955.651"
"1415","9971.871"
"1416","10011.81"
"1417","10046.72"
"1418","10054.04"
"1419","10045.01"
"1420","10042.33"
"1421","10063.56"
"1422","10095.83"
"1423","10115.13"
"1424","10103.04"
"1425","10077.18"
"1426","10069.41"
"1427","10104.78"
"1428","10161.25"
"1429","10197.02"
"1430","10178.52"
"1431","10132.44"
"1432","10112.17"
"1433","10161.53"
"1434","10250.31"
"1435","10314.06"
"1436","10298.29"
"1437","10229.43"
"1438","10172.57"
"1439","10184.65"
"1440","10253.46"
"1441","10332.88"
"1442","10380.54"
"1443","10387.81"
"1444","10362.88"
"1445","10315.1"
"1446","10262.88"
"1447","10229.15"
"1448","10233.94"
"1449","10272.26"
"1450","10326.58"
"1451","10378.96"
"1452","10409.01"
"1453","10395.11"
"1454","10321.35"
"1455","10218.61"
"1456","10140.68"
"1457","10133.48"
"1458","10178.97"
"1459","10228.63"
"1460","10239.99"
"1461","10218.13"
"1462","10189.98"
"1463","10178.05"
"1464","10171.87"
"1465","10146.51"
"1466","10082.08"
"1467","9993.575"
"1468","9910.57"
"1469","9858.723"
"1470","9838.369"
"1471","9839.932"
"1472","9852.835"
"1473","9860.792"
"1474","9845.427"
"1475","9794.833"
"1476","9732.089"
"1477","9692.018"
"1478","9699.348"
"1479","9729.165"
"1480","9741.356"
"1481","9707.222"
"1482","9648.651"
"1483","9601.52"
"1484","9592.908"
"1485","9615.067"
"1486","9651.648"
"1487","9687.921"
"1488","9714.85"
"1489","9724.642"
"1490","9713.023"
"1491","9686.552"
"1492","9653.862"
"1493","9622.937"
"1494","9599.966"
"1495","9590.834"
"1496","9597.147"
"1497","9610.513"
"1498","9621.138"
"1499","9621.711"
"1500","9609.913"
"1501","9584.11"
"1502","9549.565"
"1503","9523.445"
"1504","9523.827"
"1505","9553.459"
"1506","9592.52"
"1507","9619.644"
"1508","9623.791"
"1509","9606.872"
"1510","9571.883"
"1511","9528.991"
"1512","9495.912"
"1513","9489.758"
"1514","9509.295"
"1515","9537.063"
"1516","9555.755"
"1517","9558.188"
"1518","9544.6"
"1519","9516.154"
"1520","9482.001"
"1521","9456.096"
"1522","9450.316"
"1523","9458.865"
"1524","9467.323"
"1525","9463.621"
"1526","9450.977"
"1527","9438.569"
"1528","9432.365"
"1529","9422.506"
"1530","9394.286"
"1531","9341.292"
"1532","9288.479"
"1533","9268.227"
"1534","9298.423"
"1535","9354.868"
"1536","9405.785"
"1537","9429.781"
"1538","9428.641"
"1539","9407.353"
"1540","9375.472"
"1541","9350.398"
"1542","9349.872"
"1543","9373.198"
"1544","9395.306"
"1545","9390.497"
"1546","9358.269"
"1547","9323.681"
"1548","9311.319"
"1549","9320.899"
"1550","9332.917"
"1551","9329.438"
"1552","9313.67"
"1553","9301.09"
"1554","9304.845"
"1555","9320.438"
"1556","9335.813"
"1557","9341.34"
"1558","9339.656"
"1559","9337.19"
"1560","9337.648"
"1561","9335.155"
"1562","9321.75"
"1563","9293.47"
"1564","9256.26"
"1565","9217.531"
"1566","9182.083"
"1567","9150.067"
"1568","9121.187"
"1569","9095.764"
"1570","9074.918"
"1571","9059.971"
"1572","9055.144"
"1573","9067.284"
"1574","9101.807"
"1575","9146.361"
"1576","9177.188"
"1577","9173.759"
"1578","9140.724"
"1579","9093.961"
"1580","9048.888"
"1581","9018.357"
"1582","9014.468"
"1583","9042.318"
"1584","9084.842"
"1585","9120.621"
"1586","9135.85"
"1587","9132.762"
"1588","9115.689"
"1589","9091.951"
"1590","9073.091"
"1591","9070.603"
"1592","9087.588"
"1593","9119.049"
"1594","9158.697"
"1595","9189.063"
"1596","9185.435"
"1597","9129.705"
"1598","9050.664"
"1599","8997.008"
"1600","9003.788"
"1601","9047.021"
"1602","9086.878"
"1603","9095.551"
"1604","9077.383"
"1605","9042.057"
"1606","9000.07"
"1607","8963.299"
"1608","8943.572"
"1609","8947.582"
"1610","8976.373"
"1611","9029.591"
"1612","9092.288"
"1613","9139.208"
"1614","9149.032"
"1615","9130.866"
"1616","9107.281"
"1617","9095.738"
"1618","9091.632"
"1619","9084.487"
"1620","9068.954"
"1621","9052.639"
"1622","9045.063"
"1623","9049.435"
"1624","9059.25"
"1625","9067.325"
"1626","9069.688"
"1627","9065.41"
"1628","9054.747"
"1629","9048.615"
"1630","9064.15"
"1631","9111.805"
"1632","9164.676"
"1633","9183.021"
"1634","9146.042"
"1635","9091.937"
"1636","9070.034"
"1637","9098.941"
"1638","9142.094"
"1639","9158.315"
"1640","9136.866"
"1641","9099.405"
"1642","9067.934"
"1643","9050.366"
"1644","9045.76"
"1645","9052.155"
"1646","9062.601"
"1647","9068.332"
"1648","9063.167"
"1649","9048.947"
"1650","9029.11"
"1651","9010.029"
"1652","9003.133"
"1653","9019.71"
"1654","9055.947"
"1655","9093.091"
"1656","9113.349"
"1657","9114.824"
"1658","9104.54"
"1659","9088.813"
"1660","9070.044"
"1661","9049.438"
"1662","9029.304"
"1663","9014.722"
"1664","9011.081"
"1665","9017.477"
"1666","9024.31"
"1667","9021.788"
"1668","9006.968"
"1669","8982.129"
"1670","8950.378"
"1671","8919.441"
"1672","8898.948"
"1673","8894.456"
"1674","8897.879"
"1675","8898.329"
"1676","8889.026"
"1677","8870.264"
"1678","8843.333"
"1679","8815.447"
"1680","8799.285"
"1681","8805.421"
"1682","8825.452"
"1683","8841.716"
"1684","8839.612"
"1685","8816.706"
"1686","8773.557"
"1687","8717.781"
"1688","8670.446"
"1689","8653.009"
"1690","8660.576"
"1691","8662.166"
"1692","8630.396"
"1693","8578.887"
"1694","8542.155"
"1695","8544.251"
"1696","8567.331"
"1697","8583.397"
"1698","8577.983"
"1699","8562.079"
"1700","8549.097"
"1701","8544.085"
"1702","8544.17"
"1703","8546.192"
"1704","8547.292"
"1705","8544.743"
"1706","8538.347"
"1707","8536.741"
"1708","8550.34"
"1709","8578.24"
"1710","8600.986"
"1711","8598.362"
"1712","8566.4"
"1713","8514.258"
"1714","8452.796"
"1715","8401.022"
"1716","8381.09"
"1717","8403.192"
"1718","8444.709"
"1719","8477.777"
"1720","8488.694"
"1721","8481.903"
"1722","8463.453"
"1723","8443.843"
"1724","8436.321"
"1725","8447.75"
"1726","8456.645"
"1727","8433.903"
"1728","8375.4"
"1729","8325.037"
"1730","8329.661"
"1731","8386.98"
"1732","8450.649"
"1733","8478.744"
"1734","8469.757"
"1735","8438.701"
"1736","8403.048"
"1737","8386.858"
"1738","8414.408"
"1739","8477.436"
"1740","8527.829"
"1741","8521.256"
"1742","8473.885"
"1743","8435.59"
"1744","8441.359"
"1745","8468.978"
"1746","8483.095"
"1747","8464.731"
"1748","8420.747"
"1749","8361.249"
"1750","8308.885"
"1751","8295.146"
"1752","8338.745"
"1753","8396.748"
"1754","8408.233"
"1755","8351.891"
"1756","8282.221"
"1757","8259.155"
"1758","8288.108"
"1759","8329.127"
"1760","8346.24"
"1761","8334.029"
"1762","8297.739"
"1763","8247.909"
"1764","8206.58"
"1765","8196.323"
"1766","8219.019"
"1767","8257.432"
"1768","8293.528"
"1769","8308.996"
"1770","8285.469"
"1771","8226.321"
"1772","8185.734"
"1773","8221.801"
"1774","8318.741"
"1775","8389.575"
"1776","8360.981"
"1777","8265.907"
"1778","8178.894"
"1779","8150.583"
"1780","8175.267"
"1781","8238.286"
"1782","8306.214"
"1783","8327.878"
"1784","8265.254"
"1785","8164.835"
"1786","8104.723"
"1787","8126.302"
"1788","8190.168"
"1789","8247.756"
"1790","8280.416"
"1791","8295.607"
"1792","8299.802"
"1793","8289.4"
"1794","8257.499"
"1795","8207.046"
"1796","8159.995"
"1797","8138.773"
"1798","8140.343"
"1799","8142.378"
"1800","8129.204"
"1801","8117.221"
"1802","8131.417"
"1803","8169.589"
"1804","8186.05"
"1805","8138.612"
"1806","8067.11"
"1807","8062.074"
"1808","8172.221"
"1809","8298.204"
"1810","8311.434"
"1811","8193.479"
"1812","8063.872"
"1813","8033.913"
"1814","8080.747"
"1815","8118.547"
"1816","8097.658"
"1817","8061.211"
"1818","8064.343"
"1819","8110.406"
"1820","8154.787"
"1821","8161.259"
"1822","8148.192"
"1823","8151.695"
"1824","8179.513"
"1825","8189.342"
"1826","8139.427"
"1827","8054.482"
"1828","8002.04"
"1829","8023.333"
"1830","8066.823"
"1831","8062.805"
"1832","7997.875"
"1833","7924.704"
"1834","7894.175"
"1835","7918.821"
"1836","7995.229"
"1837","8102.965"
"1838","8185.903"
"1839","8188.606"
"1840","8131.315"
"1841","8090.341"
"1842","8117.524"
"1843","8164.668"
"1844","8160.872"
"1845","8092.214"
"1846","8016.694"
"1847","7988.57"
"1848","8002.055"
"1849","8025.484"
"1850","8040.241"
"1851","8055.711"
"1852","8083.246"
"1853","8111.9"
"1854","8114.625"
"1855","8077.931"
"1856","8038.778"
"1857","8044.01"
"1858","8092.341"
"1859","8126.992"
"1860","8100.483"
"1861","8041.785"
"1862","8008.436"
"1863","8021.134"
"1864","8033.894"
"1865","7999.66"
"1866","7934.696"
"1867","7893.038"
"1868","7906.06"
"1869","7939.573"
"1870","7950.208"
"1871","7940.12"
"1872","7952.301"
"1873","8014.009"
"1874","8076.648"
"1875","8072.236"
"1876","7995.493"
"1877","7923.177"
"1878","7923.852"
"1879","7972.246"
"1880","8004.615"
"1881","7995.001"
"1882","7988.639"
"1883","8030.974"
"1884","8087.393"
"1885","8075.939"
"1886","7963.096"
"1887","7846.154"
"1888","7836.462"
"1889","7919.358"
"1890","7977.622"
"1891","7931.861"
"1892","7856.057"
"1893","7856.848"
"1894","7950.27"
"1895","8053.941"
"1896","8092.831"
"1897","8056.194"
"1898","7954.308"
"1899","7819.88"
"1900","7717.292"
"1901","7702.241"
"1902","7752.558"
"1903","7813.305"
"1904","7849.403"
"1905","7862.006"
"1906","7856.61"
"1907","7843.567"
"1908","7835.819"
"1909","7838.018"
"1910","7835.915"
"1911","7814.728"
"1912","7784.96"
"1913","7773.841"
"1914","7797.113"
"1915","7837.581"
"1916","7873.218"
"1917","7896.236"
"1918","7910.093"
"1919","7916.135"
"1920","7907.596"
"1921","7876.772"
"1922","7831.475"
"1923","7793.799"
"1924","7780.098"
"1925","7781.859"
"1926","7784.791"
"1927","7783.048"
"1928","7779.632"
"1929","7779.168"
"1930","7791.662"
"1931","7827.698"
"1932","7868.896"
"1933","7863.33"
"1934","7775.546"
"1935","7661.839"
"1936","7605.642"
"1937","7636.605"
"1938","7716.911"
"1939","7804.787"
"1940","7860.781"
"1941","7847.379"
"1942","7778.643"
"1943","7736.862"
"1944","7788.232"
"1945","7880.584"
"1946","7921.455"
"1947","7875.387"
"1948","7784.747"
"1949","7694.441"
"1950","7631.037"
"1951","7614.128"
"1952","7641.156"
"1953","7679.208"
"1954","7697.807"
"1955","7693.575"
"1956","7672.756"
"1957","7643.294"
"1958","7615.379"
"1959","7596.994"
"1960","7582.909"
"1961","7563.687"
"1962","7542.846"
"1963","7540.601"
"1964","7568.406"
"1965","7586.505"
"1966","7540.688"
"1967","7448.478"
"1968","7413.919"
"1969","7510.149"
"1970","7638.77"
"1971","7655.122"
"1972","7543.462"
"1973","7430.21"
"1974","7415.322"
"1975","7455.488"
"1976","7472.191"
"1977","7444.032"
"1978","7405.845"
"1979","7389.7"
"1980","7408.641"
"1981","7469.762"
"1982","7550.835"
"1983","7604.457"
"1984","7595.393"
"1985","7528.669"
"1986","7419.285"
"1987","7313.188"
"1988","7278.881"
"1989","7344.645"
"1990","7435.146"
"1991","7465.866"
"1992","7429.868"
"1993","7367.102"
"1994","7311.119"
"1995","7280.789"
"1996","7290.034"
"1997","7326.598"
"1998","7365.487"
"1999","7385.54"
"2000","7372.075"
"2001","7317.832"
"2002","7257.654"
"2003","7241.075"
"2004","7264.816"
"2005","7257.96"
"2006","7173.35"
"2007","7093.433"
"2008","7131.926"
"2009","7268.798"
"2010","7352.684"
"2011","7280.891"
"2012","7132.4"
"2013","7019.167"
"2014","6981.928"
"2015","7009.06"
"2016","7078.493"
"2017","7146.243"
"2018","7170.846"
"2019","7164.466"
"2020","7167.605"
"2021","7193.247"
"2022","7207.105"
"2023","7179.722"
"2024","7139.142"
"2025","7133.422"
"2026","7160.306"
"2027","7157.229"
"2028","7083.98"
"2029","7004.318"
"2030","7002.881"
"2031","7075.426"
"2032","7144.039"
"2033","7153.423"
"2034","7113.458"
"2035","7045.301"
"2036","6977.379"
"2037","6941.976"
"2038","6949.588"
"2039","6973.567"
"2040","6987.177"
"2041","6984.527"
"2042","6967.758"
"2043","6955.19"
"2044","6983.052"
"2045","7061.251"
"2046","7104.539"
"2047","7017.363"
"2048","6846.212"
"2049","6737.74"
"2050","6762.129"
"2051","6823.383"
"2052","6820.933"
"2053","6774.068"
"2054","6752.951"
"2055","6780.456"
"2056","6818.299"
"2057","6834.381"
"2058","6838.003"
"2059","6847.202"
"2060","6854.351"
"2061","6831.933"
"2062","6776.607"
"2063","6740.962"
"2064","6773.898"
"2065","6837.75"
"2066","6856.864"
"2067","6809.117"
"2068","6742.413"
"2069","6701.859"
"2070","6702.345"
"2071","6747.838"
"2072","6792.271"
"2073","6752.557"
"2074","6610.22"
"2075","6484.593"
"2076","6489.384"
"2077","6582.354"
"2078","6659.376"
"2079","6674.385"
"2080","6648.325"
"2081","6607.815"
"2082","6585.74"
"2083","6612.271"
"2084","6671.718"
"2085","6719.97"
"2086","6726.093"
"2087","6682.36"
"2088","6592.545"
"2089","6507.18"
"2090","6488.381"
"2091","6535.392"
"2092","6591.666"
"2093","6617.839"
"2094","6621.053"
"2095","6613.024"
"2096","6588.315"
"2097","6534.443"
"2098","6460.625"
"2099","6402.202"
"2100","6387.02"
"2101","6412.541"
"2102","6467.975"
"2103","6522.455"
"2104","6533.689"
"2105","6497.42"
"2106","6468.835"
"2107","6488.979"
"2108","6513.953"
"2109","6481.208"
"2110","6395.931"
"2111","6313.938"
"2112","6275.049"
"2113","6285.627"
"2114","6340.785"
"2115","6395.023"
"2116","6392.899"
"2117","6355.297"
"2118","6371.165"
"2119","6465.014"
"2120","6508.218"
"2121","6384.726"
"2122","6201.015"
"2123","6145.437"
"2124","6233.864"
"2125","6306.342"
"2126","6261.469"
"2127","6170.88"
"2128","6120.967"
"2129","6101.994"
"2130","6063.372"
"2131","6006.053"
"2132","5988.237"
"2133","6039.228"
"2134","6099.056"
"2135","6100.731"
"2136","6045.093"
"2137","5965.18"
"2138","5903.572"
"2139","5913.532"
"2140","6008.245"
"2141","6084.46"
"2142","6038.487"
"2143","5928.79"
"2144","5887.133"
"2145","5940.221"
"2146","5994.565"
"2147","5982.752"
"2148","5928.83"
"2149","5870.531"
"2150","5829.067"
"2151","5817.572"
"2152","5832.128"
"2153","5850.485"
"2154","5858.308"
"2155","5864.184"
"2156","5875.109"
"2157","5862.65"
"2158","5787.289"
"2159","5690.011"
"2160","5690.131"
"2161","5827.858"
"2162","5955.402"
"2163","5932.159"
"2164","5812.921"
"2165","5719.159"
"2166","5709.059"
"2167","5786.957"
"2168","5912.109"
"2169","5960.517"
"2170","5842.008"
"2171","5672.711"
"2172","5616.298"
"2173","5658.115"
"2174","5660.397"
"2175","5572.771"
"2176","5485.134"
"2177","5470.511"
"2178","5494.371"
"2179","5503.89"
"2180","5507.608"
"2181","5546.063"
"2182","5602.21"
"2183","5588.886"
"2184","5467.996"
"2185","5347.374"
"2186","5334.736"
"2187","5369.914"
"2188","5330.199"
"2189","5213.857"
"2190","5128.521"
"2191","5140.847"
"2192","5228.88"
"2193","5350.29"
"2194","5417.424"
"2195","5342.851"
"2196","5195.484"
"2197","5142.134"
"2198","5216.022"
"2199","5265.042"
"2200","5191.099"
"2201","5100.274"
"2202","5111.775"
"2203","5163.097"
"2204","5120.305"
"2205","4999.88"
"2206","4956.72"
"2207","5042.248"
"2208","5097.033"
"2209","4994.253"
"2210","4854.777"
"2211","4849.146"
"2212","4962.53"
"2213","5071.643"
"2214","5110.829"
"2215","5086.812"
"2216","5025.775"
"2217","4992.322"
"2218","5036.734"
"2219","5091.123"
"2220","5053.023"
"2221","4930.445"
"2222","4813.53"
"2223","4770.265"
"2224","4832.115"
"2225","4983.603"
"2226","5070.953"
"2227","4946.779"
"2228","4703.015"
"2229","4526.754"
"2230","4468.705"
"2231","4461.429"
"2232","4467.22"
"2233","4506.311"
"2234","4581.519"
"2235","4613.058"
"2236","4522.37"
"2237","4387.794"
"2238","4355.858"
"2239","4445.352"
"2240","4555.592"
"2241","4612.209"
"2242","4597.521"
"2243","4508.915"
"2244","4377.832"
"2245","4246.176"
"2246","4174.551"
"2247","4226.946"
"2248","4348.626"
"2249","4374.764"
"2250","4243.507"
"2251","4085.466"
"2252","4019.933"
"2253","4052.164"
"2254","4155.711"
"2255","4257.955"
"2256","4269.152"
"2257","4176.024"
"2258","4032.134"
"2259","3895.438"
"2260","3827.183"
"2261","3855.492"
"2262","3901.668"
"2263","3879.205"
"2264","3790.384"
"2265","3673.503"
"2266","3575.308"
"2267","3547.846"
"2268","3593.934"
"2269","3647.878"
"2270","3653.079"
"2271","3590.335"
"2272","3455.175"
"2273","3288.239"
"2274","3143.745"
"2275","3064.238"
"2276","3083.066"
"2277","3173.644"
"2278","3243.764"
"2279","3226.871"
"2280","3114.806"
"2281","2932.064"
"2282","2800.229"
"2283","2832.273"
"2284","2903.17"
"2285","2797.027"
"2286","2571.541"
"2287","2502.76"
"2288","2638.763"
"2289","2691.081"
"2290","2502.608"
"2291","2325.774"
"2292","2391.11"
"2293","2498.019"
"2294","2353.165"
"2295","2042.418"
"2296","1853.25"
"2297","1855.036"
"2298","1903.41"
"2299","1907.846"
"2300","1883.952"
