,"Scan 00899"
"400","6406.802"
"401","6400.376"
"402","6387.364"
"403","6376.122"
"404","6374.954"
"405","6390.827"
"406","6419.708"
"407","6452.013"
"408","6478.182"
"409","6489.453"
"410","6486.56"
"411","6476.84"
"412","6467.711"
"413","6466.162"
"414","6471.546"
"415","6476.09"
"416","6471.81"
"417","6451.057"
"418","6416.224"
"419","6382.052"
"420","6363.939"
"421","6376.965"
"422","6421.915"
"423","6476.622"
"424","6516.985"
"425","6519.174"
"426","6474.811"
"427","6407.658"
"428","6345.346"
"429","6315.291"
"430","6332.211"
"431","6376.9"
"432","6424.618"
"433","6450.806"
"434","6439.622"
"435","6404.961"
"436","6367.032"
"437","6345.905"
"438","6355.657"
"439","6384.574"
"440","6413.978"
"441","6425.317"
"442","6404.476"
"443","6361.044"
"444","6312.59"
"445","6276.577"
"446","6267.476"
"447","6280.277"
"448","6301.957"
"449","6319.552"
"450","6321.807"
"451","6310.908"
"452","6295.632"
"453","6284.75"
"454","6285.901"
"455","6295.965"
"456","6305.647"
"457","6305.637"
"458","6287.628"
"459","6254.788"
"460","6217.845"
"461","6187.594"
"462","6174.066"
"463","6177.178"
"464","6189.298"
"465","6202.654"
"466","6209.791"
"467","6207.729"
"468","6197.222"
"469","6179.13"
"470","6154.475"
"471","6127.432"
"472","6105.071"
"473","6094.53"
"474","6102.521"
"475","6127.205"
"476","6158.26"
"477","6185.062"
"478","6197.3"
"479","6191.124"
"480","6169.533"
"481","6135.834"
"482","6093.432"
"483","6048.985"
"484","6012.8"
"485","5995.308"
"486","6006.491"
"487","6043.975"
"488","6091.042"
"489","6130.269"
"490","6144.716"
"491","6130.118"
"492","6097.298"
"493","6057.905"
"494","6023.265"
"495","5996.159"
"496","5969.088"
"497","5933.968"
"498","5883.069"
"499","5818.693"
"500","5755.235"
"501","5707.725"
"502","5690.653"
"503","5703.638"
"504","5728.654"
"505","5746.753"
"506","5739.53"
"507","5702.057"
"508","5644.936"
"509","5579.573"
"510","5517.195"
"511","5465.62"
"512","5428.908"
"513","5410.902"
"514","5415.123"
"515","5437.472"
"516","5465.876"
"517","5487.952"
"518","5491.901"
"519","5477.647"
"520","5456.559"
"521","5440.42"
"522","5440.284"
"523","5454.237"
"524","5468.671"
"525","5469.64"
"526","5444.247"
"527","5395.911"
"528","5341.409"
"529","5297.824"
"530","5280.899"
"531","5288.704"
"532","5306.333"
"533","5318.659"
"534","5311.869"
"535","5286.846"
"536","5254.017"
"537","5223.917"
"538","5206.093"
"539","5200.831"
"540","5203.175"
"541","5208.138"
"542","5211.357"
"543","5213.383"
"544","5217.151"
"545","5225.598"
"546","5240.814"
"547","5259.346"
"548","5275.484"
"549","5283.544"
"550","5279.114"
"551","5264.614"
"552","5244.751"
"553","5224.218"
"554","5207.092"
"555","5194.858"
"556","5188.284"
"557","5188.136"
"558","5193.917"
"559","5200.738"
"560","5202.769"
"561","5194.214"
"562","5172.645"
"563","5144.844"
"564","5119.128"
"565","5103.756"
"566","5102.625"
"567","5110.293"
"568","5120.137"
"569","5125.595"
"570","5122.832"
"571","5112.556"
"572","5095.911"
"573","5074.069"
"574","5049.686"
"575","5027.334"
"576","5011.703"
"577","5007.244"
"578","5013.48"
"579","5025.016"
"580","5036.26"
"581","5041.994"
"582","5042.112"
"583","5040.376"
"584","5040.634"
"585","5046.28"
"586","5056.438"
"587","5067.817"
"588","5077.114"
"589","5081.418"
"590","5080.424"
"591","5074.886"
"592","5065.566"
"593","5053.528"
"594","5041.298"
"595","5031.815"
"596","5028.006"
"597","5030.606"
"598","5033.332"
"599","5028.521"
"600","5008.572"
"601","4972.45"
"602","4933.634"
"603","4907.499"
"604","4909.135"
"605","4940.236"
"606","4981.956"
"607","5013.765"
"608","5015.969"
"609","4988.526"
"610","4952.358"
"611","4929.326"
"612","4939.433"
"613","4977.723"
"614","5020.959"
"615","5045.561"
"616","5031.496"
"617","4987.45"
"618","4936.24"
"619","4900.697"
"620","4898.594"
"621","4922.127"
"622","4955.354"
"623","4982.39"
"624","4992.172"
"625","4988.971"
"626","4980.1"
"627","4972.813"
"628","4970.401"
"629","4968.184"
"630","4960.533"
"631","4942.019"
"632","4913.937"
"633","4886.252"
"634","4869.476"
"635","4873.287"
"636","4894.143"
"637","4917.593"
"638","4928.905"
"639","4915.65"
"640","4885.188"
"641","4855.084"
"642","4842.928"
"643","4861.431"
"644","4899.237"
"645","4937.57"
"646","4957.727"
"647","4948.403"
"648","4919.424"
"649","4884.345"
"650","4856.595"
"651","4843.041"
"652","4839.493"
"653","4840.71"
"654","4841.595"
"655","4840.098"
"656","4837.266"
"657","4834.277"
"658","4832.327"
"659","4832.783"
"660","4837.13"
"661","4846.84"
"662","4862.476"
"663","4879.578"
"664","4891.979"
"665","4893.528"
"666","4881.099"
"667","4860.48"
"668","4839.102"
"669","4824.333"
"670","4821.277"
"671","4831.315"
"672","4855.485"
"673","4894.452"
"674","4941.403"
"675","4982.559"
"676","5003.917"
"677","4993.462"
"678","4956.472"
"679","4907.19"
"680","4859.902"
"681","4826.432"
"682","4807.98"
"683","4802.851"
"684","4809.349"
"685","4824.848"
"686","4844.662"
"687","4863.825"
"688","4877.49"
"689","4884.124"
"690","4886.156"
"691","4886.24"
"692","4886.902"
"693","4889.235"
"694","4893.408"
"695","4899.581"
"696","4907.367"
"697","4913.545"
"698","4913.967"
"699","4904.507"
"700","4883.658"
"701","4856.556"
"702","4829.356"
"703","4808.152"
"704","4796.94"
"705","4797.048"
"706","4809.622"
"707","4835.36"
"708","4869.618"
"709","4904.233"
"710","4930.999"
"711","4943.194"
"712","4941.627"
"713","4929.519"
"714","4910.08"
"715","4886.725"
"716","4863.342"
"717","4843.887"
"718","4832.22"
"719","4829.624"
"720","4834.425"
"721","4844.786"
"722","4858.673"
"723","4872.088"
"724","4879.932"
"725","4877.101"
"726","4861.036"
"727","4839.597"
"728","4823.302"
"729","4822.576"
"730","4840.973"
"731","4869.424"
"732","4897.53"
"733","4915.333"
"734","4920.583"
"735","4917.724"
"736","4911.421"
"737","4905.949"
"738","4903.111"
"739","4903.725"
"740","4908.6"
"741","4917.098"
"742","4924.673"
"743","4926.12"
"744","4916.437"
"745","4896.835"
"746","4876.052"
"747","4863.261"
"748","4866.538"
"749","4883.747"
"750","4907.148"
"751","4928.958"
"752","4942.598"
"753","4945.891"
"754","4937.668"
"755","4916.836"
"756","4886.798"
"757","4857.854"
"758","4840.877"
"759","4845.7"
"760","4869.43"
"761","4900.553"
"762","4927.407"
"763","4940.969"
"764","4943.935"
"765","4942.269"
"766","4941.892"
"767","4945.7"
"768","4951.229"
"769","4955.467"
"770","4955.625"
"771","4952.156"
"772","4947.969"
"773","4946.033"
"774","4949.108"
"775","4958.969"
"776","4977.085"
"777","5004.888"
"778","5040.133"
"779","5073.7"
"780","5095.721"
"781","5097.086"
"782","5079.963"
"783","5055.233"
"784","5033.994"
"785","5025.156"
"786","5027.104"
"787","5035.056"
"788","5044.245"
"789","5051.156"
"790","5054.527"
"791","5053.325"
"792","5046.759"
"793","5037.315"
"794","5029.834"
"795","5029.201"
"796","5038.831"
"797","5055.817"
"798","5075.556"
"799","5093.48"
"800","5107.014"
"801","5116.692"
"802","5123.321"
"803","5127.655"
"804","5129.858"
"805","5129.738"
"806","5127.096"
"807","5122.017"
"808","5115.56"
"809","5108.99"
"810","5103.568"
"811","5100.258"
"812","5099.654"
"813","5102.325"
"814","5108.697"
"815","5118.051"
"816","5129.135"
"817","5140.691"
"818","5151.431"
"819","5159.976"
"820","5164.935"
"821","5164.969"
"822","5159.74"
"823","5149.833"
"824","5135.871"
"825","5119.229"
"826","5105.251"
"827","5100.571"
"828","5111.741"
"829","5138.841"
"830","5170.83"
"831","5195.573"
"832","5202.008"
"833","5190.859"
"834","5170.149"
"835","5148.01"
"836","5131.044"
"837","5120.943"
"838","5118.412"
"839","5124.058"
"840","5135.886"
"841","5149.062"
"842","5158.613"
"843","5160.458"
"844","5155.933"
"845","5148.39"
"846","5141.175"
"847","5137.172"
"848","5138.388"
"849","5146.735"
"850","5163.72"
"851","5186.154"
"852","5207.856"
"853","5222.607"
"854","5226.36"
"855","5221.955"
"856","5213.58"
"857","5205.328"
"858","5198.904"
"859","5193.578"
"860","5188.505"
"861","5183.605"
"862","5182.805"
"863","5191.356"
"864","5214.402"
"865","5250.293"
"866","5286.634"
"867","5310.083"
"868","5309.491"
"869","5292.927"
"870","5278.405"
"871","5283.981"
"872","5317.674"
"873","5363.391"
"874","5401.503"
"875","5413.591"
"876","5399.125"
"877","5371.231"
"878","5343.379"
"879","5325.466"
"880","5314.563"
"881","5304.854"
"882","5290.813"
"883","5274.279"
"884","5265.033"
"885","5273.247"
"886","5305.887"
"887","5353.167"
"888","5399.853"
"889","5430.88"
"890","5440.533"
"891","5436.807"
"892","5428.791"
"893","5424.747"
"894","5426.824"
"895","5434.434"
"896","5446.97"
"897","5463.519"
"898","5482.552"
"899","5502.475"
"900","5521.701"
"901","5538.735"
"902","5552.137"
"903","5560.468"
"904","5562.644"
"905","5558.483"
"906","5547.947"
"907","5531.063"
"908","5508.874"
"909","5483.174"
"910","5455.773"
"911","5429.848"
"912","5412.887"
"913","5413.232"
"914","5438.531"
"915","5483.446"
"916","5531.092"
"917","5564.174"
"918","5570.047"
"919","5553.908"
"920","5525.234"
"921","5493.447"
"922","5466.613"
"923","5451.385"
"924","5454.351"
"925","5478.948"
"926","5514.422"
"927","5546.03"
"928","5559.396"
"929","5551.658"
"930","5533.455"
"931","5516.191"
"932","5509.417"
"933","5513.24"
"934","5524.777"
"935","5541.111"
"936","5558.101"
"937","5570.035"
"938","5571.097"
"939","5557.004"
"940","5531.93"
"941","5502.958"
"942","5477.122"
"943","5459.119"
"944","5450.466"
"945","5452.458"
"946","5465.258"
"947","5482.47"
"948","5495.34"
"949","5495.265"
"950","5480.788"
"951","5460.394"
"952","5443.303"
"953","5437.105"
"954","5439.849"
"955","5446.115"
"956","5450.576"
"957","5452.179"
"958","5455.776"
"959","5466.651"
"960","5488.105"
"961","5512.117"
"962","5526.664"
"963","5520.02"
"964","5493.24"
"965","5464.347"
"966","5452.54"
"967","5472.172"
"968","5511.626"
"969","5550.628"
"970","5569.308"
"971","5562.371"
"972","5542.575"
"973","5523.807"
"974","5517.007"
"975","5518.826"
"976","5521.583"
"977","5517.762"
"978","5504.701"
"979","5485.177"
"980","5462.252"
"981","5439.313"
"982","5421.106"
"983","5412.737"
"984","5419.045"
"985","5438.778"
"986","5464.697"
"987","5489.303"
"988","5506.611"
"989","5516.105"
"990","5518.489"
"991","5514.685"
"992","5509.209"
"993","5509.607"
"994","5523.513"
"995","5553.4"
"996","5586.499"
"997","5607.227"
"998","5601.554"
"999","5575.456"
"1000","5548.785"
"1001","5541.646"
"1002","5563.804"
"1003","5600.617"
"1004","5633.914"
"1005","5645.513"
"1006","5621.453"
"1007","5576.173"
"1008","5535.817"
"1009","5526.183"
"1010","5553.573"
"1011","5596.3"
"1012","5630.501"
"1013","5636.678"
"1014","5619.087"
"1015","5590.028"
"1016","5561.671"
"1017","5541.923"
"1018","5533.662"
"1019","5539.49"
"1020","5560.018"
"1021","5587.489"
"1022","5611.927"
"1023","5623.815"
"1024","5623.014"
"1025","5618.072"
"1026","5617.867"
"1027","5628.464"
"1028","5647.057"
"1029","5669.098"
"1030","5690.179"
"1031","5707.766"
"1032","5720.637"
"1033","5727.6"
"1034","5727.402"
"1035","5718.661"
"1036","5699.974"
"1037","5670.993"
"1038","5640.382"
"1039","5621.374"
"1040","5627.045"
"1041","5657.545"
"1042","5692.364"
"1043","5709.122"
"1044","5691.301"
"1045","5654.979"
"1046","5627.485"
"1047","5635.296"
"1048","5680.684"
"1049","5739.383"
"1050","5785.759"
"1051","5801.429"
"1052","5793.64"
"1053","5775.294"
"1054","5758.7"
"1055","5747.895"
"1056","5740.917"
"1057","5735.68"
"1058","5732"
"1059","5733.865"
"1060","5745.812"
"1061","5770.897"
"1062","5801.026"
"1063","5823.032"
"1064","5823.998"
"1065","5802.95"
"1066","5774.987"
"1067","5756.351"
"1068","5759.167"
"1069","5778.184"
"1070","5803.559"
"1071","5825.622"
"1072","5837.581"
"1073","5834.965"
"1074","5813.394"
"1075","5774.845"
"1076","5736.138"
"1077","5716.218"
"1078","5731.091"
"1079","5774.304"
"1080","5829.053"
"1081","5878.652"
"1082","5913.4"
"1083","5932.66"
"1084","5936.4"
"1085","5926.082"
"1086","5908.887"
"1087","5893.371"
"1088","5887.361"
"1089","5888.973"
"1090","5889.439"
"1091","5879.88"
"1092","5856.149"
"1093","5823.211"
"1094","5787.082"
"1095","5753.171"
"1096","5723.399"
"1097","5698.433"
"1098","5678.929"
"1099","5665.293"
"1100","5657.69"
"1101","5656.275"
"1102","5661.068"
"1103","5671.754"
"1104","5687.958"
"1105","5709.106"
"1106","5733.029"
"1107","5756.781"
"1108","5777.386"
"1109","5790.897"
"1110","5792.137"
"1111","5775.86"
"1112","5740.847"
"1113","5699.582"
"1114","5667.463"
"1115","5658.383"
"1116","5670.724"
"1117","5693.741"
"1118","5716.632"
"1119","5732.059"
"1120","5737.792"
"1121","5732.016"
"1122","5714.662"
"1123","5692.55"
"1124","5674.198"
"1125","5667.588"
"1126","5674.259"
"1127","5691.547"
"1128","5716.697"
"1129","5746.196"
"1130","5775.312"
"1131","5799.205"
"1132","5813.585"
"1133","5816.482"
"1134","5806.525"
"1135","5782.774"
"1136","5749.55"
"1137","5714.676"
"1138","5686.004"
"1139","5668.602"
"1140","5663.156"
"1141","5669.97"
"1142","5687.623"
"1143","5707.865"
"1144","5720.736"
"1145","5717.209"
"1146","5698.635"
"1147","5672.816"
"1148","5647.646"
"1149","5630.431"
"1150","5627.633"
"1151","5645.651"
"1152","5686.15"
"1153","5734.42"
"1154","5772.196"
"1155","5783.743"
"1156","5776.372"
"1157","5769.665"
"1158","5782.763"
"1159","5816.048"
"1160","5847.422"
"1161","5853.458"
"1162","5821.787"
"1163","5770.42"
"1164","5722.556"
"1165","5698.388"
"1166","5697.675"
"1167","5711.687"
"1168","5731.769"
"1169","5751.57"
"1170","5766.858"
"1171","5773.497"
"1172","5770.563"
"1173","5763.591"
"1174","5758.886"
"1175","5760.798"
"1176","5764.503"
"1177","5762.497"
"1178","5748.335"
"1179","5728.199"
"1180","5716.501"
"1181","5727.541"
"1182","5763.495"
"1183","5809.944"
"1184","5851.268"
"1185","5876.095"
"1186","5885.705"
"1187","5883.704"
"1188","5873.625"
"1189","5858.493"
"1190","5841.125"
"1191","5824.484"
"1192","5814.187"
"1193","5818.159"
"1194","5844.284"
"1195","5889.515"
"1196","5931.535"
"1197","5946.046"
"1198","5917.313"
"1199","5861.83"
"1200","5803.675"
"1201","5764.871"
"1202","5749.881"
"1203","5754.365"
"1204","5773.746"
"1205","5799.741"
"1206","5820.374"
"1207","5823.56"
"1208","5804.792"
"1209","5774.413"
"1210","5744.497"
"1211","5725.648"
"1212","5722.494"
"1213","5738.158"
"1214","5774.28"
"1215","5819.548"
"1216","5855.954"
"1217","5866.173"
"1218","5850"
"1219","5824.141"
"1220","5805.958"
"1221","5805.124"
"1222","5816.921"
"1223","5835.052"
"1224","5854.108"
"1225","5871.972"
"1226","5887.285"
"1227","5898.473"
"1228","5902.347"
"1229","5894.981"
"1230","5873.142"
"1231","5845.755"
"1232","5832.058"
"1233","5851.294"
"1234","5903.081"
"1235","5956.878"
"1236","5979.564"
"1237","5952.438"
"1238","5898.049"
"1239","5846.279"
"1240","5821.778"
"1241","5820.231"
"1242","5827.38"
"1243","5830.077"
"1244","5827.882"
"1245","5828.317"
"1246","5838.737"
"1247","5858.379"
"1248","5877.566"
"1249","5886.207"
"1250","5880.106"
"1251","5866.384"
"1252","5853.446"
"1253","5848.162"
"1254","5852.093"
"1255","5865.657"
"1256","5888.617"
"1257","5916.556"
"1258","5943.413"
"1259","5963.215"
"1260","5971.212"
"1261","5963.49"
"1262","5936.465"
"1263","5896.082"
"1264","5859.122"
"1265","5842.882"
"1266","5855.163"
"1267","5885.717"
"1268","5922.27"
"1269","5953.414"
"1270","5970.587"
"1271","5965.798"
"1272","5934.386"
"1273","5890.641"
"1274","5855.562"
"1275","5848.172"
"1276","5866.901"
"1277","5898.066"
"1278","5928.03"
"1279","5947.536"
"1280","5951.463"
"1281","5934.987"
"1282","5900.965"
"1283","5863.732"
"1284","5838.558"
"1285","5834.678"
"1286","5846.843"
"1287","5867.667"
"1288","5889.301"
"1289","5902.082"
"1290","5895.89"
"1291","5863.924"
"1292","5820.978"
"1293","5790.495"
"1294","5793.964"
"1295","5830.591"
"1296","5885.639"
"1297","5944.257"
"1298","5994.072"
"1299","6025.064"
"1300","6027.51"
"1301","6001.941"
"1302","5963.549"
"1303","5928.633"
"1304","5907.237"
"1305","5895.898"
"1306","5889.403"
"1307","5885.477"
"1308","5891.604"
"1309","5917.297"
"1310","5966.909"
"1311","6018.367"
"1312","6041.146"
"1313","6009.985"
"1314","5941.896"
"1315","5874.167"
"1316","5841.764"
"1317","5847.559"
"1318","5872.025"
"1319","5895.483"
"1320","5905.559"
"1321","5897.136"
"1322","5865.639"
"1323","5816.962"
"1324","5771.738"
"1325","5751.635"
"1326","5766.436"
"1327","5802.275"
"1328","5842.483"
"1329","5874.609"
"1330","5898.219"
"1331","5914.992"
"1332","5925.969"
"1333","5929.587"
"1334","5923.622"
"1335","5907.317"
"1336","5888.544"
"1337","5878.302"
"1338","5886.093"
"1339","5908.711"
"1340","5936.557"
"1341","5960.095"
"1342","5971.222"
"1343","5962.806"
"1344","5928.451"
"1345","5875.817"
"1346","5825.28"
"1347","5797.16"
"1348","5794.614"
"1349","5800.321"
"1350","5795.967"
"1351","5776.857"
"1352","5759.584"
"1353","5762.531"
"1354","5792.587"
"1355","5833.129"
"1356","5864.652"
"1357","5873.505"
"1358","5861.765"
"1359","5834.121"
"1360","5796.536"
"1361","5759.454"
"1362","5734.312"
"1363","5729.454"
"1364","5739"
"1365","5752.972"
"1366","5763.333"
"1367","5773.677"
"1368","5791.902"
"1369","5823.552"
"1370","5855.784"
"1371","5867.148"
"1372","5839.086"
"1373","5783.042"
"1374","5727.922"
"1375","5701.102"
"1376","5706.27"
"1377","5730.203"
"1378","5759.533"
"1379","5784.9"
"1380","5800.417"
"1381","5800.516"
"1382","5784.771"
"1383","5758.088"
"1384","5725.749"
"1385","5697.061"
"1386","5686.303"
"1387","5707.717"
"1388","5757.036"
"1389","5802.993"
"1390","5812.436"
"1391","5774.337"
"1392","5715.619"
"1393","5666.853"
"1394","5646.222"
"1395","5647.076"
"1396","5659.805"
"1397","5676.307"
"1398","5691.99"
"1399","5702.765"
"1400","5707.831"
"1401","5715.227"
"1402","5734.459"
"1403","5768.179"
"1404","5797.869"
"1405","5800.938"
"1406","5764.464"
"1407","5709.556"
"1408","5664.808"
"1409","5651.621"
"1410","5662.788"
"1411","5683.991"
"1412","5702.155"
"1413","5709.781"
"1414","5700.909"
"1415","5672.917"
"1416","5639.663"
"1417","5620.092"
"1418","5627.826"
"1419","5647.525"
"1420","5654.055"
"1421","5629.02"
"1422","5594.02"
"1423","5585.337"
"1424","5631.205"
"1425","5708.041"
"1426","5771.841"
"1427","5786.064"
"1428","5765.875"
"1429","5748.113"
"1430","5763.516"
"1431","5797.694"
"1432","5816.308"
"1433","5791.311"
"1434","5743.63"
"1435","5716.815"
"1436","5747.403"
"1437","5814.925"
"1438","5871.663"
"1439","5876.77"
"1440","5847.39"
"1441","5829.105"
"1442","5860.696"
"1443","5922.089"
"1444","5963.88"
"1445","5943.772"
"1446","5881.635"
"1447","5828.591"
"1448","5829.066"
"1449","5868.665"
"1450","5903.438"
"1451","5894.601"
"1452","5848.625"
"1453","5794.512"
"1454","5758.519"
"1455","5742.921"
"1456","5738.278"
"1457","5735.548"
"1458","5729.569"
"1459","5717.028"
"1460","5696.066"
"1461","5675.854"
"1462","5670.636"
"1463","5690.695"
"1464","5717.448"
"1465","5719.608"
"1466","5673.038"
"1467","5602.781"
"1468","5554.397"
"1469","5564.277"
"1470","5609.922"
"1471","5645.773"
"1472","5634.519"
"1473","5587.871"
"1474","5535.398"
"1475","5502.032"
"1476","5487.457"
"1477","5482.887"
"1478","5480.927"
"1479","5481.063"
"1480","5484.895"
"1481","5492.524"
"1482","5497.495"
"1483","5491.525"
"1484","5470.204"
"1485","5444.414"
"1486","5428.82"
"1487","5432.06"
"1488","5441.674"
"1489","5440.583"
"1490","5419.888"
"1491","5395.857"
"1492","5389.577"
"1493","5410.688"
"1494","5438.096"
"1495","5445.638"
"1496","5420.834"
"1497","5383.086"
"1498","5356.262"
"1499","5352.879"
"1500","5362.65"
"1501","5372.599"
"1502","5374.239"
"1503","5366.844"
"1504","5350.534"
"1505","5329.504"
"1506","5313.951"
"1507","5314.31"
"1508","5331.827"
"1509","5356.25"
"1510","5376.838"
"1511","5389.1"
"1512","5395.15"
"1513","5397.269"
"1514","5395.007"
"1515","5385.505"
"1516","5366.3"
"1517","5341.649"
"1518","5320.747"
"1519","5311.709"
"1520","5309.958"
"1521","5303.263"
"1522","5282.255"
"1523","5261.787"
"1524","5268.543"
"1525","5321.602"
"1526","5391.325"
"1527","5429.073"
"1528","5398.994"
"1529","5328.212"
"1530","5263.139"
"1531","5238.86"
"1532","5247.524"
"1533","5271.123"
"1534","5293.474"
"1535","5303.705"
"1536","5291.943"
"1537","5257.867"
"1538","5222.466"
"1539","5209.438"
"1540","5226.706"
"1541","5255.088"
"1542","5273.082"
"1543","5273.976"
"1544","5270.627"
"1545","5276.768"
"1546","5294.747"
"1547","5315.362"
"1548","5329.345"
"1549","5334.251"
"1550","5332.915"
"1551","5328.453"
"1552","5325.371"
"1553","5328.984"
"1554","5343.332"
"1555","5363.316"
"1556","5379.925"
"1557","5384.183"
"1558","5367.458"
"1559","5321.205"
"1560","5245.628"
"1561","5171.537"
"1562","5136.415"
"1563","5159.187"
"1564","5212.839"
"1565","5263.51"
"1566","5291.929"
"1567","5304.571"
"1568","5310.412"
"1569","5313.782"
"1570","5313.134"
"1571","5306.55"
"1572","5292.301"
"1573","5268.831"
"1574","5235.297"
"1575","5199.045"
"1576","5172.681"
"1577","5167.014"
"1578","5178.934"
"1579","5199.131"
"1580","5219.193"
"1581","5235.222"
"1582","5244.667"
"1583","5246.493"
"1584","5244.478"
"1585","5243.331"
"1586","5245.223"
"1587","5246.963"
"1588","5244.76"
"1589","5238.695"
"1590","5234.335"
"1591","5237.36"
"1592","5246.585"
"1593","5254.209"
"1594","5252.641"
"1595","5239.877"
"1596","5217.536"
"1597","5188.716"
"1598","5166.336"
"1599","5167.485"
"1600","5202.017"
"1601","5248.626"
"1602","5277.647"
"1603","5272.66"
"1604","5252.686"
"1605","5242.455"
"1606","5253.019"
"1607","5272.185"
"1608","5285.805"
"1609","5288.32"
"1610","5283.589"
"1611","5275.957"
"1612","5269.719"
"1613","5269.141"
"1614","5277.664"
"1615","5292.719"
"1616","5309.073"
"1617","5322.167"
"1618","5330.382"
"1619","5332.886"
"1620","5328.101"
"1621","5312.589"
"1622","5282.752"
"1623","5243.086"
"1624","5210.521"
"1625","5202.259"
"1626","5218.34"
"1627","5242.471"
"1628","5259.325"
"1629","5270.199"
"1630","5286.061"
"1631","5314.105"
"1632","5339.916"
"1633","5341.667"
"1634","5309.639"
"1635","5271.796"
"1636","5263.177"
"1637","5294.93"
"1638","5335.316"
"1639","5349.21"
"1640","5330.5"
"1641","5303.958"
"1642","5293.642"
"1643","5298.424"
"1644","5301.321"
"1645","5288.785"
"1646","5268.583"
"1647","5256.118"
"1648","5262.974"
"1649","5288.767"
"1650","5330.692"
"1651","5377.822"
"1652","5405.198"
"1653","5387.949"
"1654","5335.428"
"1655","5290.875"
"1656","5293.799"
"1657","5332.886"
"1658","5368.267"
"1659","5367.349"
"1660","5334.757"
"1661","5286.427"
"1662","5238.214"
"1663","5205.723"
"1664","5204.167"
"1665","5231.609"
"1666","5262.442"
"1667","5270.771"
"1668","5252.736"
"1669","5221.349"
"1670","5189.712"
"1671","5168.554"
"1672","5167.628"
"1673","5190.955"
"1674","5223.417"
"1675","5245.969"
"1676","5246.356"
"1677","5224.015"
"1678","5180.064"
"1679","5126.173"
"1680","5083.751"
"1681","5070.928"
"1682","5075.876"
"1683","5072.143"
"1684","5041.736"
"1685","4999.809"
"1686","4969.443"
"1687","4963.207"
"1688","4973.56"
"1689","4990.676"
"1690","5004.462"
"1691","5004.562"
"1692","4983.255"
"1693","4955.656"
"1694","4948.532"
"1695","4977.792"
"1696","5016.289"
"1697","5026.495"
"1698","4993.045"
"1699","4942.219"
"1700","4904.107"
"1701","4891.417"
"1702","4900.384"
"1703","4926.214"
"1704","4961.207"
"1705","4996.279"
"1706","5023.363"
"1707","5038.02"
"1708","5036.678"
"1709","5021.812"
"1710","5005.819"
"1711","5001.064"
"1712","5004.149"
"1713","4998.93"
"1714","4972.646"
"1715","4936.083"
"1716","4909.106"
"1717","4903.634"
"1718","4909.725"
"1719","4913.931"
"1720","4911.112"
"1721","4906.77"
"1722","4906.215"
"1723","4904.987"
"1724","4892.626"
"1725","4863.295"
"1726","4831.926"
"1727","4819.095"
"1728","4835.344"
"1729","4871.897"
"1730","4917.481"
"1731","4955.434"
"1732","4964.255"
"1733","4928.521"
"1734","4874.633"
"1735","4846.1"
"1736","4867.99"
"1737","4914.363"
"1738","4951.006"
"1739","4960.081"
"1740","4943.822"
"1741","4906.572"
"1742","4861.134"
"1743","4825.036"
"1744","4811.921"
"1745","4820.632"
"1746","4846.494"
"1747","4880.873"
"1748","4908.911"
"1749","4916.607"
"1750","4908.8"
"1751","4903.6"
"1752","4913.784"
"1753","4925.436"
"1754","4916.847"
"1755","4881.514"
"1756","4842.039"
"1757","4823.219"
"1758","4830.751"
"1759","4854.433"
"1760","4882.973"
"1761","4901.819"
"1762","4895.318"
"1763","4860.514"
"1764","4822.182"
"1765","4807.633"
"1766","4820.68"
"1767","4843.435"
"1768","4858.913"
"1769","4861.04"
"1770","4847.923"
"1771","4824.359"
"1772","4810.743"
"1773","4828.296"
"1774","4867.343"
"1775","4888.434"
"1776","4859.646"
"1777","4805.075"
"1778","4770.719"
"1779","4779.058"
"1780","4797.373"
"1781","4787.248"
"1782","4757.284"
"1783","4760.526"
"1784","4837.052"
"1785","4937.148"
"1786","4977.555"
"1787","4921.562"
"1788","4834.807"
"1789","4793.337"
"1790","4812.714"
"1791","4855.721"
"1792","4887.619"
"1793","4896.932"
"1794","4880.028"
"1795","4841.007"
"1796","4798.866"
"1797","4773.364"
"1798","4769.96"
"1799","4783.285"
"1800","4806.514"
"1801","4827.611"
"1802","4833.24"
"1803","4822.512"
"1804","4814.442"
"1805","4827.752"
"1806","4857.813"
"1807","4885.586"
"1808","4895.814"
"1809","4887.223"
"1810","4861.728"
"1811","4827.06"
"1812","4798.222"
"1813","4787.945"
"1814","4787.431"
"1815","4777.765"
"1816","4747.031"
"1817","4701.237"
"1818","4649.896"
"1819","4616.358"
"1820","4636.796"
"1821","4733.436"
"1822","4851.63"
"1823","4911.781"
"1824","4883.78"
"1825","4824.86"
"1826","4796.333"
"1827","4802.149"
"1828","4809.343"
"1829","4796.34"
"1830","4782.824"
"1831","4796.362"
"1832","4833.749"
"1833","4855.677"
"1834","4829.208"
"1835","4778.866"
"1836","4752.873"
"1837","4777.125"
"1838","4830.19"
"1839","4884.881"
"1840","4918.386"
"1841","4911.105"
"1842","4853.532"
"1843","4774.935"
"1844","4713.414"
"1845","4685.099"
"1846","4678.387"
"1847","4680.525"
"1848","4683.41"
"1849","4680.962"
"1850","4672.857"
"1851","4670.975"
"1852","4687.421"
"1853","4715.648"
"1854","4735.64"
"1855","4733.762"
"1856","4720.635"
"1857","4711.952"
"1858","4710.14"
"1859","4702.343"
"1860","4678.818"
"1861","4654.222"
"1862","4652.289"
"1863","4680.548"
"1864","4717.21"
"1865","4739.305"
"1866","4744.309"
"1867","4741.889"
"1868","4739.549"
"1869","4738.179"
"1870","4737.323"
"1871","4732.905"
"1872","4717.607"
"1873","4690.298"
"1874","4677.573"
"1875","4712.684"
"1876","4788.212"
"1877","4843.527"
"1878","4825.491"
"1879","4756.69"
"1880","4690.853"
"1881","4661.361"
"1882","4663.115"
"1883","4686.519"
"1884","4719.34"
"1885","4747.777"
"1886","4760.367"
"1887","4752.027"
"1888","4719.741"
"1889","4677.251"
"1890","4651.945"
"1891","4660.21"
"1892","4675.632"
"1893","4663.03"
"1894","4622.316"
"1895","4591.516"
"1896","4602.04"
"1897","4641.037"
"1898","4681.67"
"1899","4707.722"
"1900","4718.051"
"1901","4714.752"
"1902","4714.399"
"1903","4739.491"
"1904","4789.62"
"1905","4822.928"
"1906","4799.771"
"1907","4741.804"
"1908","4703.571"
"1909","4714.177"
"1910","4744.207"
"1911","4757.985"
"1912","4742.47"
"1913","4699.589"
"1914","4641.026"
"1915","4604.781"
"1916","4630.041"
"1917","4701.822"
"1918","4762.268"
"1919","4769.7"
"1920","4740.917"
"1921","4704.41"
"1922","4677.128"
"1923","4665.394"
"1924","4671.864"
"1925","4686.315"
"1926","4695.745"
"1927","4697.534"
"1928","4699.919"
"1929","4709.287"
"1930","4721.357"
"1931","4728.9"
"1932","4726.124"
"1933","4708.907"
"1934","4677.372"
"1935","4652.255"
"1936","4659.893"
"1937","4695.941"
"1938","4717.602"
"1939","4690.28"
"1940","4637.044"
"1941","4599.647"
"1942","4593.142"
"1943","4597.209"
"1944","4593.389"
"1945","4587.696"
"1946","4594.56"
"1947","4620.886"
"1948","4663.299"
"1949","4716.423"
"1950","4767.699"
"1951","4802.071"
"1952","4809.079"
"1953","4784.596"
"1954","4728.384"
"1955","4659.808"
"1956","4605.062"
"1957","4582.708"
"1958","4600.987"
"1959","4660.429"
"1960","4723.063"
"1961","4738.716"
"1962","4699.374"
"1963","4651.406"
"1964","4635.208"
"1965","4641.005"
"1966","4643.29"
"1967","4632.078"
"1968","4616.127"
"1969","4604.72"
"1970","4604.198"
"1971","4619.628"
"1972","4644.333"
"1973","4658.695"
"1974","4648.938"
"1975","4628.853"
"1976","4618.839"
"1977","4624.176"
"1978","4635.26"
"1979","4643.655"
"1980","4647.551"
"1981","4646.408"
"1982","4635.656"
"1983","4607.268"
"1984","4562.911"
"1985","4534.356"
"1986","4555.61"
"1987","4610.433"
"1988","4645.932"
"1989","4630.46"
"1990","4588.647"
"1991","4551.881"
"1992","4528.924"
"1993","4514.9"
"1994","4509.301"
"1995","4520.969"
"1996","4556.465"
"1997","4594.233"
"1998","4599.362"
"1999","4564.887"
"2000","4529.781"
"2001","4530.689"
"2002","4563.099"
"2003","4606.802"
"2004","4639.951"
"2005","4638.68"
"2006","4587.757"
"2007","4512.335"
"2008","4448.773"
"2009","4423.851"
"2010","4454.94"
"2011","4539.384"
"2012","4609.153"
"2013","4589.432"
"2014","4503.851"
"2015","4448.352"
"2016","4475.758"
"2017","4531.517"
"2018","4551.172"
"2019","4524.823"
"2020","4471.999"
"2021","4435.214"
"2022","4495.418"
"2023","4683.306"
"2024","4703.169"
"2025","4153.771"
"2026","3195.954"
"2027","2663.844"
"2028","3144.421"
"2029","4070.925"
"2030","4625.023"
"2031","4633.414"
"2032","4457.46"
"2033","4374.864"
"2034","4401.2"
"2035","4504.938"
"2036","4606.028"
"2037","4598.327"
"2038","4464.552"
"2039","4339.063"
"2040","4342.584"
"2041","4429.727"
"2042","4497.722"
"2043","4504.643"
"2044","4476.048"
"2045","4437.155"
"2046","4399.538"
"2047","4371.689"
"2048","4359.962"
"2049","4369.164"
"2050","4397.696"
"2051","4430.522"
"2052","4451.543"
"2053","4449.719"
"2054","4416.677"
"2055","4363.231"
"2056","4324.853"
"2057","4326.546"
"2058","4344.383"
"2059","4344.503"
"2060","4330.024"
"2061","4332.762"
"2062","4358.483"
"2063","4352.241"
"2064","4266.692"
"2065","4175.125"
"2066","4202.555"
"2067","4350.062"
"2068","4456.908"
"2069","4405.644"
"2070","4294.158"
"2071","4263.973"
"2072","4316.37"
"2073","4348.293"
"2074","4306.896"
"2075","4250.448"
"2076","4240.046"
"2077","4260.988"
"2078","4268.767"
"2079","4254.367"
"2080","4249.708"
"2081","4274.507"
"2082","4300.295"
"2083","4291.4"
"2084","4244.109"
"2085","4174.672"
"2086","4104.759"
"2087","4064.635"
"2088","4076.141"
"2089","4113.811"
"2090","4138.67"
"2091","4140.201"
"2092","4133.137"
"2093","4128.47"
"2094","4125.961"
"2095","4124.814"
"2096","4132.334"
"2097","4158.983"
"2098","4198.808"
"2099","4226.103"
"2100","4220.594"
"2101","4184.188"
"2102","4125.26"
"2103","4071.397"
"2104","4061.07"
"2105","4092.835"
"2106","4102.933"
"2107","4044.778"
"2108","3971.201"
"2109","3956.814"
"2110","3996.403"
"2111","4025.174"
"2112","4008.119"
"2113","3970.671"
"2114","3941.569"
"2115","3929.487"
"2116","3936.034"
"2117","3957.468"
"2118","3985.248"
"2119","4008.009"
"2120","4008.403"
"2121","3975.129"
"2122","3941.765"
"2123","3957.412"
"2124","4011.912"
"2125","4034.757"
"2126","3987.65"
"2127","3923.115"
"2128","3899.552"
"2129","3910.776"
"2130","3922.845"
"2131","3928.061"
"2132","3947.914"
"2133","3991.03"
"2134","4025.823"
"2135","4018.556"
"2136","3974.122"
"2137","3915.27"
"2138","3855.848"
"2139","3799.345"
"2140","3753.245"
"2141","3737.987"
"2142","3770.413"
"2143","3820.534"
"2144","3837.464"
"2145","3810.027"
"2146","3772.442"
"2147","3748.759"
"2148","3727.619"
"2149","3695.253"
"2150","3665.895"
"2151","3665.219"
"2152","3684.801"
"2153","3679.429"
"2154","3625.182"
"2155","3558.01"
"2156","3521.32"
"2157","3543.428"
"2158","3643.379"
"2159","3772.069"
"2160","3814.133"
"2161","3719.134"
"2162","3591.281"
"2163","3537.453"
"2164","3553.741"
"2165","3597.375"
"2166","3641.506"
"2167","3672.738"
"2168","3678.29"
"2169","3645.839"
"2170","3573.896"
"2171","3511.915"
"2172","3518.13"
"2173","3567.429"
"2174","3577.488"
"2175","3529.284"
"2176","3504.319"
"2177","3561.328"
"2178","3642.657"
"2179","3669.97"
"2180","3624.145"
"2181","3519.585"
"2182","3405.647"
"2183","3373.515"
"2184","3463.096"
"2185","3566.893"
"2186","3569.916"
"2187","3476.281"
"2188","3338.678"
"2189","3207.374"
"2190","3130.177"
"2191","3134.14"
"2192","3205.507"
"2193","3318.193"
"2194","3411.925"
"2195","3422.993"
"2196","3363.865"
"2197","3295.438"
"2198","3247.217"
"2199","3204.539"
"2200","3167.524"
"2201","3190.363"
"2202","3319.229"
"2203","3470.004"
"2204","3507.709"
"2205","3415.605"
"2206","3286.182"
"2207","3182.887"
"2208","3104.62"
"2209","3048.229"
"2210","3033.486"
"2211","3080.699"
"2212","3150.605"
"2213","3170.26"
"2214","3128.139"
"2215","3088.345"
"2216","3087.055"
"2217","3076.811"
"2218","3013.602"
"2219","2949.712"
"2220","2964.992"
"2221","3040.941"
"2222","3086.526"
"2223","3063.332"
"2224","3014.838"
"2225","2979.043"
"2226","2955.026"
"2227","2936.262"
"2228","2930.463"
"2229","2950.123"
"2230","2983.826"
"2231","2999.499"
"2232","2973.793"
"2233","2899.636"
"2234","2786.635"
"2235","2698.176"
"2236","2697.27"
"2237","2747.534"
"2238","2768.618"
"2239","2744.465"
"2240","2719.167"
"2241","2719.943"
"2242","2738.95"
"2243","2760.039"
"2244","2750.142"
"2245","2679.596"
"2246","2578.964"
"2247","2506.852"
"2248","2498.13"
"2249","2564.815"
"2250","2676.607"
"2251","2729.066"
"2252","2648.207"
"2253","2498.16"
"2254","2365.744"
"2255","2273.099"
"2256","2213.088"
"2257","2181.447"
"2258","2176.6"
"2259","2200.663"
"2260","2261.622"
"2261","2352.74"
"2262","2418.828"
"2263","2406.047"
"2264","2333.023"
"2265","2246.578"
"2266","2182.144"
"2267","2165.535"
"2268","2177.346"
"2269","2135.856"
"2270","1999.71"
"2271","1845.186"
"2272","1757.24"
"2273","1766.38"
"2274","1876.162"
"2275","1987.696"
"2276","1945.948"
"2277","1769.349"
"2278","1667.255"
"2279","1738.075"
"2280","1838.548"
"2281","1837.822"
"2282","1762.288"
"2283","1671.196"
"2284","1590.822"
"2285","1532.74"
"2286","1509.573"
"2287","1534.136"
"2288","1583.728"
"2289","1584.744"
"2290","1499.711"
"2291","1395.45"
"2292","1334.148"
"2293","1272.702"
"2294","1149.709"
"2295","1037.484"
"2296","1074.923"
"2297","1223.717"
"2298","1274.054"
"2299","1148.702"
"2300","1006.528"
