,"Scan 00915"
"400","11218.3"
"401","11195.54"
"402","11156.53"
"403","11118.52"
"404","11098.64"
"405","11111.55"
"406","11151.58"
"407","11202.83"
"408","11249.4"
"409","11276.44"
"410","11280.83"
"411","11267.63"
"412","11242.04"
"413","11209.24"
"414","11175.34"
"415","11147.28"
"416","11131.95"
"417","11136.04"
"418","11158.75"
"419","11190.17"
"420","11219.87"
"421","11237.62"
"422","11238.8"
"423","11227.9"
"424","11210.19"
"425","11190.91"
"426","11174.25"
"427","11162.25"
"428","11156.7"
"429","11159.36"
"430","11170.05"
"431","11183.42"
"432","11193.25"
"433","11193.39"
"434","11180.5"
"435","11160.77"
"436","11142.47"
"437","11133.76"
"438","11140.18"
"439","11155.81"
"440","11171.61"
"441","11178.65"
"442","11170.17"
"443","11151.23"
"444","11130.88"
"445","11118.1"
"446","11120.08"
"447","11132.32"
"448","11145.51"
"449","11150.38"
"450","11139.04"
"451","11114.41"
"452","11084.75"
"453","11058.28"
"454","11042.3"
"455","11035.19"
"456","11030.22"
"457","11020.66"
"458","11000.69"
"459","10975.28"
"460","10956.51"
"461","10956.52"
"462","10985.98"
"463","11035.58"
"464","11081.12"
"465","11098.15"
"466","11064.1"
"467","10985.25"
"468","10891.91"
"469","10814.94"
"470","10783.59"
"471","10798.86"
"472","10835.93"
"473","10869.17"
"474","10874.06"
"475","10847.93"
"476","10809.74"
"477","10779.3"
"478","10775.59"
"479","10799.83"
"480","10834.4"
"481","10860.86"
"482","10861.47"
"483","10834.69"
"484","10797.09"
"485","10766.11"
"486","10758.61"
"487","10777.6"
"488","10809.92"
"489","10841.62"
"490","10859.06"
"491","10857.55"
"492","10842.96"
"493","10821.78"
"494","10800.27"
"495","10778.56"
"496","10749.44"
"497","10705.25"
"498","10638.74"
"499","10553.84"
"500","10467.91"
"501","10399.04"
"502","10364.75"
"503","10367.15"
"504","10390.15"
"505","10416.66"
"506","10430.02"
"507","10423.44"
"508","10401.48"
"509","10369.28"
"510","10331.95"
"511","10293.17"
"512","10255.09"
"513","10219.75"
"514","10189.16"
"515","10164.68"
"516","10146.95"
"517","10136.57"
"518","10134.04"
"519","10137.76"
"520","10144.03"
"521","10149.09"
"522","10149.33"
"523","10143.76"
"524","10133.7"
"525","10120.54"
"526","10105.7"
"527","10090.62"
"528","10076.79"
"529","10065.69"
"530","10058.63"
"531","10054.26"
"532","10049.39"
"533","10040.73"
"534","10025.48"
"535","10005.85"
"536","9987.32"
"537","9975.395"
"538","9974.654"
"539","9980.83"
"540","9984.665"
"541","9976.892"
"542","9950.031"
"543","9910.873"
"544","9873.104"
"545","9850.382"
"546","9854.048"
"547","9880.268"
"548","9919.037"
"549","9960.379"
"550","9995.006"
"551","10017.15"
"552","10022.25"
"553","10005.78"
"554","9966.381"
"555","9916.672"
"556","9873.017"
"557","9851.708"
"558","9862.137"
"559","9889.806"
"560","9915.085"
"561","9918.452"
"562","9889.824"
"563","9844.916"
"564","9803.77"
"565","9786.267"
"566","9801.797"
"567","9837.25"
"568","9876.658"
"569","9904.242"
"570","9912.851"
"571","9909.757"
"572","9903.584"
"573","9902.716"
"574","9907.732"
"575","9909.072"
"576","9896.538"
"577","9860.549"
"578","9804.881"
"579","9746.646"
"580","9703.455"
"581","9691.667"
"582","9710.196"
"583","9744.741"
"584","9780.724"
"585","9804.897"
"586","9816.489"
"587","9821.776"
"588","9827.093"
"589","9837.543"
"590","9850.12"
"591","9858.492"
"592","9856.341"
"593","9839.761"
"594","9816.008"
"595","9795.561"
"596","9788.85"
"597","9801.629"
"598","9824.708"
"599","9845.941"
"600","9853.257"
"601","9840.605"
"602","9815.202"
"603","9786.02"
"604","9761.908"
"605","9746.952"
"606","9737.927"
"607","9730.998"
"608","9722.488"
"609","9712.531"
"610","9705.322"
"611","9705.236"
"612","9716.2"
"613","9736.042"
"614","9758.119"
"615","9775.719"
"616","9783.207"
"617","9783.743"
"618","9784.821"
"619","9793.938"
"620","9816.084"
"621","9843.566"
"622","9864.648"
"623","9867.647"
"624","9846.423"
"625","9812.521"
"626","9780.976"
"627","9766.7"
"628","9774.84"
"629","9790.909"
"630","9798.113"
"631","9780.137"
"632","9737.074"
"633","9690.166"
"634","9661.98"
"635","9673.474"
"636","9719.864"
"637","9775.144"
"638","9812.75"
"639","9809.824"
"640","9775.181"
"641","9733.996"
"642","9711.483"
"643","9726.147"
"644","9763.398"
"645","9798.438"
"646","9806.555"
"647","9774.079"
"648","9718.846"
"649","9664.242"
"650","9633.42"
"651","9636.717"
"652","9662.881"
"653","9698.609"
"654","9730.952"
"655","9754.365"
"656","9770.815"
"657","9782.588"
"658","9791.881"
"659","9799.937"
"660","9807.429"
"661","9815.014"
"662","9822.891"
"663","9828.726"
"664","9829.315"
"665","9821.479"
"666","9804.859"
"667","9787.483"
"668","9778.914"
"669","9788.563"
"670","9817.346"
"671","9852.225"
"672","9878.91"
"673","9883.791"
"674","9866.47"
"675","9838.836"
"676","9813.224"
"677","9800.541"
"678","9799.456"
"679","9802.264"
"680","9801.243"
"681","9791.603"
"682","9781.395"
"683","9782.144"
"684","9805.317"
"685","9853.653"
"686","9910.429"
"687","9956.308"
"688","9972.501"
"689","9956.43"
"690","9924.855"
"691","9895.644"
"692","9885.246"
"693","9894.233"
"694","9912.998"
"695","9931.783"
"696","9942.144"
"697","9942.402"
"698","9933.104"
"699","9914.79"
"700","9889.186"
"701","9861.008"
"702","9835.432"
"703","9817.552"
"704","9809.738"
"705","9810.873"
"706","9819.624"
"707","9834.54"
"708","9852.787"
"709","9870.629"
"710","9884.316"
"711","9890.669"
"712","9889.385"
"713","9881.077"
"714","9866.372"
"715","9847.695"
"716","9831.753"
"717","9825.858"
"718","9837.063"
"719","9865.098"
"720","9901.261"
"721","9936.402"
"722","9962.134"
"723","9977.316"
"724","9984.888"
"725","9987.829"
"726","9988.911"
"727","9990.075"
"728","9993.041"
"729","9999.514"
"730","10009.83"
"731","10021.84"
"732","10033.12"
"733","10041.34"
"734","10046.07"
"735","10048.5"
"736","10049.85"
"737","10050.83"
"738","10048.78"
"739","10039.65"
"740","10019.42"
"741","9987.791"
"742","9954.617"
"743","9931.403"
"744","9929.386"
"745","9950.798"
"746","9987.009"
"747","10028.75"
"748","10067.43"
"749","10100.64"
"750","10129.39"
"751","10154.7"
"752","10177.1"
"753","10195.2"
"754","10207.16"
"755","10211.21"
"756","10208.1"
"757","10202.5"
"758","10199.4"
"759","10203.37"
"760","10213.96"
"761","10227.31"
"762","10239.5"
"763","10247.33"
"764","10250.74"
"765","10250.56"
"766","10247.6"
"767","10242.77"
"768","10237.15"
"769","10231.81"
"770","10227.88"
"771","10227.34"
"772","10232.78"
"773","10246.78"
"774","10270.88"
"775","10301.33"
"776","10332.77"
"777","10359.85"
"778","10379.84"
"779","10394.77"
"780","10407.21"
"781","10419.68"
"782","10433.62"
"783","10449.67"
"784","10468.46"
"785","10489.92"
"786","10510.72"
"787","10526.54"
"788","10533.07"
"789","10528.94"
"790","10518"
"791","10504.64"
"792","10493.13"
"793","10486.6"
"794","10487.31"
"795","10497.51"
"796","10517.81"
"797","10541.86"
"798","10561.45"
"799","10568.46"
"800","10561.43"
"801","10549.24"
"802","10541.67"
"803","10547.66"
"804","10566.91"
"805","10593.52"
"806","10621.53"
"807","10645.69"
"808","10663.37"
"809","10672.48"
"810","10671.1"
"811","10662.04"
"812","10654.12"
"813","10656.54"
"814","10676.47"
"815","10705.35"
"816","10727.23"
"817","10726.13"
"818","10695.57"
"819","10653.09"
"820","10619.94"
"821","10616.41"
"822","10643.32"
"823","10683.52"
"824","10719.23"
"825","10735.64"
"826","10733.57"
"827","10718.91"
"828","10697.52"
"829","10674.05"
"830","10651.01"
"831","10630.7"
"832","10615.59"
"833","10609.9"
"834","10619"
"835","10648.21"
"836","10698.82"
"837","10758.87"
"838","10813.79"
"839","10849.38"
"840","10861.45"
"841","10856.79"
"842","10842.73"
"843","10826.19"
"844","10811.77"
"845","10803.16"
"846","10804.07"
"847","10816.15"
"848","10837.28"
"849","10864.96"
"850","10896.53"
"851","10927.88"
"852","10953.94"
"853","10969.64"
"854","10972.27"
"855","10966.67"
"856","10959.13"
"857","10955.76"
"858","10958.41"
"859","10964.54"
"860","10971.42"
"861","10976.81"
"862","10980.9"
"863","10984.77"
"864","10989.43"
"865","10995.71"
"866","11004.13"
"867","11015.13"
"868","11028.92"
"869","11043.52"
"870","11055.74"
"871","11062.44"
"872","11063.5"
"873","11066.11"
"874","11078.55"
"875","11108.29"
"876","11150.93"
"877","11193"
"878","11220.81"
"879","11225.45"
"880","11215.12"
"881","11201.9"
"882","11197.53"
"883","11205.66"
"884","11221.21"
"885","11238.68"
"886","11252.73"
"887","11259.02"
"888","11253.51"
"889","11232.31"
"890","11199.23"
"891","11169.34"
"892","11158.62"
"893","11180.18"
"894","11225.78"
"895","11277.63"
"896","11317.99"
"897","11337.99"
"898","11346.16"
"899","11352.97"
"900","11368.01"
"901","11391.49"
"902","11418.07"
"903","11442.38"
"904","11460.47"
"905","11472"
"906","11477.2"
"907","11476.44"
"908","11472.21"
"909","11468.57"
"910","11469.6"
"911","11477.76"
"912","11490.32"
"913","11503.53"
"914","11513.87"
"915","11521.93"
"916","11531.99"
"917","11548.45"
"918","11572.75"
"919","11594.96"
"920","11602.44"
"921","11583.33"
"922","11545.89"
"923","11519.23"
"924","11533.43"
"925","11607.94"
"926","11714.42"
"927","11811.07"
"928","11857.13"
"929","11843.74"
"930","11799.52"
"931","11755.18"
"932","11735.78"
"933","11737.42"
"934","11747.05"
"935","11751.87"
"936","11747.29"
"937","11739.38"
"938","11734.88"
"939","11739.26"
"940","11750.97"
"941","11766.05"
"942","11780.58"
"943","11792.8"
"944","11803.86"
"945","11815.14"
"946","11826.96"
"947","11833.66"
"948","11827.41"
"949","11800.62"
"950","11756.21"
"951","11711.77"
"952","11685.96"
"953","11693.25"
"954","11723.6"
"955","11758.06"
"956","11777.96"
"957","11777.05"
"958","11766.3"
"959","11757.94"
"960","11762.02"
"961","11776.26"
"962","11793.98"
"963","11808.57"
"964","11815.58"
"965","11813.46"
"966","11800.85"
"967","11778.3"
"968","11756.49"
"969","11749.48"
"970","11770.91"
"971","11819.47"
"972","11875.29"
"973","11917.38"
"974","11929.04"
"975","11914.7"
"976","11885.15"
"977","11851.12"
"978","11820.81"
"979","11799.62"
"980","11792.81"
"981","11803.96"
"982","11829.58"
"983","11864.27"
"984","11902.67"
"985","11939.91"
"986","11971.6"
"987","11993.38"
"988","12002.13"
"989","11999.25"
"990","11987.18"
"991","11968.49"
"992","11948.15"
"993","11933.17"
"994","11930.64"
"995","11944.74"
"996","11971.13"
"997","12003.91"
"998","12037.12"
"999","12064.21"
"1000","12078.21"
"1001","12072.19"
"1002","12045.1"
"1003","12009.87"
"1004","11981.42"
"1005","11974.71"
"1006","12001.45"
"1007","12051.6"
"1008","12106.14"
"1009","12146.25"
"1010","12163.94"
"1011","12166.78"
"1012","12163.56"
"1013","12161.93"
"1014","12163.21"
"1015","12166.59"
"1016","12171.27"
"1017","12175.76"
"1018","12177.83"
"1019","12175.21"
"1020","12166.57"
"1021","12154.68"
"1022","12143.4"
"1023","12136.71"
"1024","12141.19"
"1025","12165.86"
"1026","12219.8"
"1027","12303.35"
"1028","12389.19"
"1029","12444.58"
"1030","12439.83"
"1031","12385.49"
"1032","12320.36"
"1033","12283.75"
"1034","12296.38"
"1035","12336.64"
"1036","12377.08"
"1037","12393.65"
"1038","12391.4"
"1039","12390.12"
"1040","12409.54"
"1041","12455.69"
"1042","12512.81"
"1043","12563.15"
"1044","12591.72"
"1045","12599.05"
"1046","12591.02"
"1047","12573.47"
"1048","12551.4"
"1049","12528.86"
"1050","12509.86"
"1051","12498.56"
"1052","12499.72"
"1053","12518.22"
"1054","12558.03"
"1055","12610.21"
"1056","12656.51"
"1057","12678.52"
"1058","12669.33"
"1059","12647.26"
"1060","12633.98"
"1061","12647.98"
"1062","12683.85"
"1063","12725.3"
"1064","12756.19"
"1065","12769"
"1066","12767.9"
"1067","12757.85"
"1068","12743.72"
"1069","12730.08"
"1070","12721.4"
"1071","12721.92"
"1072","12732.41"
"1073","12750.77"
"1074","12774.84"
"1075","12800.41"
"1076","12818.5"
"1077","12819.46"
"1078","12796.33"
"1079","12762.82"
"1080","12742.15"
"1081","12757.03"
"1082","12807.76"
"1083","12865.54"
"1084","12899.64"
"1085","12889.71"
"1086","12855.45"
"1087","12826.12"
"1088","12828.56"
"1089","12857.16"
"1090","12883.28"
"1091","12878"
"1092","12833.98"
"1093","12785.49"
"1094","12771.57"
"1095","12821.54"
"1096","12908.16"
"1097","12983.83"
"1098","13002.71"
"1099","12959.91"
"1100","12890.81"
"1101","12832.53"
"1102","12809.78"
"1103","12814.19"
"1104","12831.96"
"1105","12850.25"
"1106","12864.21"
"1107","12872.86"
"1108","12875.29"
"1109","12872.21"
"1110","12866.42"
"1111","12860.83"
"1112","12858.91"
"1113","12866.01"
"1114","12887.91"
"1115","12928.73"
"1116","12975.82"
"1117","13006.62"
"1118","12998.83"
"1119","12950.91"
"1120","12892.02"
"1121","12853.79"
"1122","12858.05"
"1123","12887.95"
"1124","12917.09"
"1125","12921.54"
"1126","12906.38"
"1127","12895.72"
"1128","12913.66"
"1129","12964.06"
"1130","13018.49"
"1131","13045.56"
"1132","13024.02"
"1133","12974.56"
"1134","12928.8"
"1135","12916.05"
"1136","12937.33"
"1137","12974.84"
"1138","13010.57"
"1139","13035.72"
"1140","13055.99"
"1141","13078.39"
"1142","13106.58"
"1143","13131.01"
"1144","13138.85"
"1145","13119.06"
"1146","13080.8"
"1147","13045.79"
"1148","13035.59"
"1149","13054.32"
"1150","13081.06"
"1151","13092.95"
"1152","13076.83"
"1153","13053.09"
"1154","13049.39"
"1155","13089.14"
"1156","13157.08"
"1157","13217.34"
"1158","13234.81"
"1159","13206.44"
"1160","13167.6"
"1161","13155.92"
"1162","13191.94"
"1163","13249.28"
"1164","13293.54"
"1165","13296.57"
"1166","13272.65"
"1167","13253.75"
"1168","13270.12"
"1169","13316.82"
"1170","13356.33"
"1171","13350.13"
"1172","13287.71"
"1173","13214.93"
"1174","13184.41"
"1175","13234.03"
"1176","13332.61"
"1177","13428.77"
"1178","13475.01"
"1179","13469.77"
"1180","13441.51"
"1181","13418.83"
"1182","13413.54"
"1183","13414.37"
"1184","13408.37"
"1185","13388.78"
"1186","13367.05"
"1187","13358.04"
"1188","13373.75"
"1189","13406.88"
"1190","13442.08"
"1191","13464.64"
"1192","13472.41"
"1193","13474.09"
"1194","13478.76"
"1195","13492.28"
"1196","13514.93"
"1197","13546.39"
"1198","13583.78"
"1199","13614.51"
"1200","13623.67"
"1201","13599.5"
"1202","13556.35"
"1203","13521.76"
"1204","13522.25"
"1205","13558.98"
"1206","13607.8"
"1207","13643.55"
"1208","13654.03"
"1209","13652.38"
"1210","13654.69"
"1211","13671.77"
"1212","13692.9"
"1213","13701.94"
"1214","13685.53"
"1215","13654.91"
"1216","13634.04"
"1217","13645.82"
"1218","13686.27"
"1219","13724.9"
"1220","13730.26"
"1221","13692.43"
"1222","13641.76"
"1223","13613.03"
"1224","13629.75"
"1225","13673.73"
"1226","13717.14"
"1227","13735.8"
"1228","13733.26"
"1229","13725.68"
"1230","13728.68"
"1231","13746.53"
"1232","13773.89"
"1233","13805.18"
"1234","13837.97"
"1235","13874.68"
"1236","13918.13"
"1237","13964.96"
"1238","13994.04"
"1239","13981.09"
"1240","13910.04"
"1241","13810.01"
"1242","13725.73"
"1243","13698.19"
"1244","13726.8"
"1245","13784.83"
"1246","13845.51"
"1247","13892.7"
"1248","13921.94"
"1249","13929.39"
"1250","13916.16"
"1251","13892.84"
"1252","13871.09"
"1253","13860.27"
"1254","13861.75"
"1255","13875.19"
"1256","13899.05"
"1257","13924.44"
"1258","13939.51"
"1259","13934.04"
"1260","13918"
"1261","13915.15"
"1262","13948.6"
"1263","14013.71"
"1264","14074.32"
"1265","14092.75"
"1266","14057.75"
"1267","14008.31"
"1268","13989.03"
"1269","14026.98"
"1270","14092.01"
"1271","14142.32"
"1272","14144.08"
"1273","14108.88"
"1274","14064.37"
"1275","14036.24"
"1276","14029.36"
"1277","14036.4"
"1278","14049.97"
"1279","14064.8"
"1280","14077.65"
"1281","14085.42"
"1282","14087.78"
"1283","14088.55"
"1284","14091.87"
"1285","14100"
"1286","14110.6"
"1287","14120.66"
"1288","14126.97"
"1289","14125.53"
"1290","14112.17"
"1291","14084.11"
"1292","14047.9"
"1293","14013.76"
"1294","13991.5"
"1295","13985.84"
"1296","13998.32"
"1297","14030.15"
"1298","14076.57"
"1299","14127.12"
"1300","14171.12"
"1301","14198.92"
"1302","14202.29"
"1303","14173.17"
"1304","14115.37"
"1305","14058.33"
"1306","14034.85"
"1307","14065.16"
"1308","14127.76"
"1309","14192.54"
"1310","14233.63"
"1311","14246.82"
"1312","14234.86"
"1313","14202.13"
"1314","14165.9"
"1315","14149.64"
"1316","14174.21"
"1317","14226.05"
"1318","14267.54"
"1319","14262.25"
"1320","14212.28"
"1321","14158.07"
"1322","14141.09"
"1323","14172.26"
"1324","14219.51"
"1325","14247.66"
"1326","14240.44"
"1327","14219.31"
"1328","14210.19"
"1329","14229.21"
"1330","14264.67"
"1331","14299.96"
"1332","14323"
"1333","14340.25"
"1334","14362.89"
"1335","14399.05"
"1336","14438.92"
"1337","14466.16"
"1338","14467.13"
"1339","14450.74"
"1340","14437.24"
"1341","14445.26"
"1342","14471.82"
"1343","14499.29"
"1344","14510.33"
"1345","14499.48"
"1346","14472.03"
"1347","14433.64"
"1348","14389.76"
"1349","14345.55"
"1350","14306.23"
"1351","14279.18"
"1352","14275.18"
"1353","14305.26"
"1354","14368.14"
"1355","14437.42"
"1356","14483.6"
"1357","14488.31"
"1358","14463.06"
"1359","14424.31"
"1360","14385.47"
"1361","14349.21"
"1362","14315.83"
"1363","14287.31"
"1364","14273.39"
"1365","14286.05"
"1366","14332.95"
"1367","14396.04"
"1368","14447.71"
"1369","14463.65"
"1370","14445.16"
"1371","14405.56"
"1372","14358.42"
"1373","14319.01"
"1374","14303.6"
"1375","14326.2"
"1376","14369.89"
"1377","14395.71"
"1378","14366.73"
"1379","14291.37"
"1380","14217.25"
"1381","14191.66"
"1382","14220.21"
"1383","14265.36"
"1384","14288.37"
"1385","14280.71"
"1386","14271.08"
"1387","14289.97"
"1388","14338.94"
"1389","14377.41"
"1390","14361.86"
"1391","14284.77"
"1392","14200.3"
"1393","14168.5"
"1394","14214.59"
"1395","14294.16"
"1396","14354.55"
"1397","14363.94"
"1398","14339.12"
"1399","14303.75"
"1400","14273.26"
"1401","14240.87"
"1402","14196.12"
"1403","14135.24"
"1404","14075.12"
"1405","14036.66"
"1406","14035.14"
"1407","14066.12"
"1408","14120.86"
"1409","14189.05"
"1410","14254.3"
"1411","14298.64"
"1412","14308.62"
"1413","14290.59"
"1414","14256.46"
"1415","14217.91"
"1416","14185.39"
"1417","14168.99"
"1418","14174.82"
"1419","14187.16"
"1420","14182.93"
"1421","14145.45"
"1422","14095.96"
"1423","14069.63"
"1424","14094.86"
"1425","14156.35"
"1426","14221.58"
"1427","14261.5"
"1428","14271.16"
"1429","14255.7"
"1430","14222.01"
"1431","14189.06"
"1432","14181.21"
"1433","14217.78"
"1434","14279.39"
"1435","14328.74"
"1436","14333.36"
"1437","14300.03"
"1438","14254.26"
"1439","14219.98"
"1440","14206.84"
"1441","14217.46"
"1442","14252.4"
"1443","14295.15"
"1444","14320.67"
"1445","14307.6"
"1446","14266.4"
"1447","14223.51"
"1448","14203.1"
"1449","14209.01"
"1450","14234.91"
"1451","14273.16"
"1452","14306.13"
"1453","14311.23"
"1454","14270.83"
"1455","14208.41"
"1456","14167.58"
"1457","14184.62"
"1458","14236.59"
"1459","14272.33"
"1460","14248.42"
"1461","14182.07"
"1462","14118.31"
"1463","14095.63"
"1464","14103.75"
"1465","14110.97"
"1466","14090.52"
"1467","14049.97"
"1468","14011.2"
"1469","13993.01"
"1470","13994.01"
"1471","14004.93"
"1472","14015.8"
"1473","14012.62"
"1474","13979.91"
"1475","13909.71"
"1476","13834.76"
"1477","13801.43"
"1478","13840.73"
"1479","13908.18"
"1480","13936.18"
"1481","13877.08"
"1482","13771.72"
"1483","13685.41"
"1484","13667"
"1485","13700.23"
"1486","13752.73"
"1487","13796.38"
"1488","13817.98"
"1489","13807.62"
"1490","13764.5"
"1491","13715.97"
"1492","13694.79"
"1493","13718.4"
"1494","13763.2"
"1495","13798.76"
"1496","13804.61"
"1497","13783.38"
"1498","13741.04"
"1499","13687.98"
"1500","13643.53"
"1501","13627.94"
"1502","13646.72"
"1503","13680.02"
"1504","13705.66"
"1505","13714.51"
"1506","13716.57"
"1507","13722.99"
"1508","13729.27"
"1509","13711.42"
"1510","13645.77"
"1511","13549.06"
"1512","13480.7"
"1513","13498.61"
"1514","13593.7"
"1515","13697.7"
"1516","13744.5"
"1517","13727.63"
"1518","13684.39"
"1519","13650.33"
"1520","13631.53"
"1521","13616.34"
"1522","13594.65"
"1523","13571"
"1524","13557.11"
"1525","13561.43"
"1526","13571.42"
"1527","13566.34"
"1528","13532.03"
"1529","13486.52"
"1530","13457.73"
"1531","13464.14"
"1532","13488.6"
"1533","13505.54"
"1534","13499.85"
"1535","13486.98"
"1536","13487.81"
"1537","13510.3"
"1538","13533.54"
"1539","13532.93"
"1540","13500.57"
"1541","13457.36"
"1542","13426.64"
"1543","13414.72"
"1544","13405.41"
"1545","13381.75"
"1546","13345.07"
"1547","13315.36"
"1548","13312.11"
"1549","13335.22"
"1550","13369.43"
"1551","13400.11"
"1552","13423.46"
"1553","13441.93"
"1554","13456.71"
"1555","13459.39"
"1556","13437.46"
"1557","13384.25"
"1558","13322.05"
"1559","13282.16"
"1560","13283.97"
"1561","13305.05"
"1562","13313.87"
"1563","13293.42"
"1564","13262.7"
"1565","13246.03"
"1566","13254.17"
"1567","13273.96"
"1568","13290.02"
"1569","13295.54"
"1570","13294.52"
"1571","13291.25"
"1572","13281.42"
"1573","13252.98"
"1574","13196.22"
"1575","13132.14"
"1576","13101.43"
"1577","13136.2"
"1578","13202.97"
"1579","13239.05"
"1580","13198.64"
"1581","13118.2"
"1582","13058.87"
"1583","13061"
"1584","13099.06"
"1585","13134.52"
"1586","13142.59"
"1587","13127.41"
"1588","13096.91"
"1589","13065.07"
"1590","13054.4"
"1591","13086.2"
"1592","13141.6"
"1593","13162.94"
"1594","13098.27"
"1595","12981.22"
"1596","12900.77"
"1597","12930.85"
"1598","13033.39"
"1599","13122.84"
"1600","13134.7"
"1601","13095.75"
"1602","13057.26"
"1603","13051.29"
"1604","13058.48"
"1605","13051.2"
"1606","13019.83"
"1607","12985.4"
"1608","12971.38"
"1609","12985.61"
"1610","13018.76"
"1611","13060.45"
"1612","13097.4"
"1613","13114.36"
"1614","13099.86"
"1615","13070.38"
"1616","13054.78"
"1617","13073.65"
"1618","13112.04"
"1619","13145.51"
"1620","13155.63"
"1621","13139.22"
"1622","13095.58"
"1623","13032.14"
"1624","12968.79"
"1625","12926.29"
"1626","12920.35"
"1627","12961.85"
"1628","13057.42"
"1629","13172"
"1630","13246.24"
"1631","13234"
"1632","13164.12"
"1633","13091.17"
"1634","13054.66"
"1635","13047.13"
"1636","13052.05"
"1637","13056.8"
"1638","13055.77"
"1639","13044.4"
"1640","13026.14"
"1641","13012.98"
"1642","13015.55"
"1643","13024.29"
"1644","13016.91"
"1645","12977.03"
"1646","12923.48"
"1647","12887.78"
"1648","12889.67"
"1649","12912.33"
"1650","12931.94"
"1651","12934.84"
"1652","12924.97"
"1653","12908.12"
"1654","12891.59"
"1655","12884.29"
"1656","12893.61"
"1657","12911.96"
"1658","12923.33"
"1659","12915.95"
"1660","12899.27"
"1661","12889.17"
"1662","12894.35"
"1663","12905.21"
"1664","12909.33"
"1665","12897.01"
"1666","12862.31"
"1667","12800.85"
"1668","12727.61"
"1669","12672.36"
"1670","12659.63"
"1671","12675.72"
"1672","12691.21"
"1673","12685.9"
"1674","12670.62"
"1675","12662.62"
"1676","12672.04"
"1677","12696.82"
"1678","12733.31"
"1679","12770.67"
"1680","12791.4"
"1681","12780.54"
"1682","12746.19"
"1683","12707.7"
"1684","12680.17"
"1685","12662"
"1686","12647.57"
"1687","12632.67"
"1688","12615.83"
"1689","12596.25"
"1690","12581.8"
"1691","12588.99"
"1692","12630.12"
"1693","12678.41"
"1694","12687.14"
"1695","12626.55"
"1696","12534.29"
"1697","12464.34"
"1698","12444.58"
"1699","12453.76"
"1700","12465.79"
"1701","12467.16"
"1702","12456.23"
"1703","12433.83"
"1704","12416.4"
"1705","12427.76"
"1706","12478.16"
"1707","12530.25"
"1708","12536.75"
"1709","12487.56"
"1710","12433.51"
"1711","12427.34"
"1712","12459.68"
"1713","12470.9"
"1714","12413.2"
"1715","12322.03"
"1716","12264.9"
"1717","12279.17"
"1718","12319.28"
"1719","12326.76"
"1720","12292.33"
"1721","12269.66"
"1722","12309.88"
"1723","12391.25"
"1724","12447.23"
"1725","12428.81"
"1726","12367.3"
"1727","12315.97"
"1728","12308.63"
"1729","12341.53"
"1730","12405.48"
"1731","12469.05"
"1732","12480.84"
"1733","12402.58"
"1734","12288.57"
"1735","12230.95"
"1736","12279.23"
"1737","12364.97"
"1738","12401.4"
"1739","12367.56"
"1740","12323.13"
"1741","12325.12"
"1742","12356.58"
"1743","12359.39"
"1744","12297.77"
"1745","12221.23"
"1746","12198.48"
"1747","12246.64"
"1748","12301.47"
"1749","12297.23"
"1750","12243.77"
"1751","12204.2"
"1752","12226.33"
"1753","12279.81"
"1754","12311.27"
"1755","12292.97"
"1756","12246.22"
"1757","12197.34"
"1758","12162.67"
"1759","12150.29"
"1760","12164.56"
"1761","12190.31"
"1762","12205.53"
"1763","12195.79"
"1764","12163.22"
"1765","12112.91"
"1766","12065.39"
"1767","12055.44"
"1768","12108.25"
"1769","12186.04"
"1770","12226.96"
"1771","12201.67"
"1772","12156.91"
"1773","12148.07"
"1774","12180.47"
"1775","12211.19"
"1776","12203.63"
"1777","12174.36"
"1778","12160.75"
"1779","12182.67"
"1780","12218.87"
"1781","12243.32"
"1782","12253.06"
"1783","12267.02"
"1784","12298.71"
"1785","12323.64"
"1786","12303.11"
"1787","12228.02"
"1788","12154.13"
"1789","12142.1"
"1790","12181.9"
"1791","12201.89"
"1792","12148.39"
"1793","12076.32"
"1794","12076.63"
"1795","12177.6"
"1796","12286.52"
"1797","12303.63"
"1798","12231.49"
"1799","12150.16"
"1800","12122.3"
"1801","12123.64"
"1802","12106.04"
"1803","12054.52"
"1804","12007.17"
"1805","12002.61"
"1806","12032.33"
"1807","12058.72"
"1808","12057.6"
"1809","12053.1"
"1810","12078.97"
"1811","12137.17"
"1812","12189.76"
"1813","12200.77"
"1814","12169.57"
"1815","12112.16"
"1816","12045.48"
"1817","11988.6"
"1818","11960.47"
"1819","11970.85"
"1820","12020.99"
"1821","12103.83"
"1822","12170.36"
"1823","12158.11"
"1824","12055.42"
"1825","11940.22"
"1826","11893.22"
"1827","11919.47"
"1828","11975.32"
"1829","12022.2"
"1830","12042.01"
"1831","12021.66"
"1832","11970.39"
"1833","11923.62"
"1834","11912.14"
"1835","11924.57"
"1836","11932.23"
"1837","11919.11"
"1838","11896.28"
"1839","11878.24"
"1840","11879.38"
"1841","11914"
"1842","11984.17"
"1843","12044.69"
"1844","12040.34"
"1845","11971.84"
"1846","11910.44"
"1847","11919.32"
"1848","11971.21"
"1849","11999.94"
"1850","11976.62"
"1851","11951.95"
"1852","11981.58"
"1853","12048.27"
"1854","12082.14"
"1855","12038.58"
"1856","11968.91"
"1857","11944.11"
"1858","11970.92"
"1859","11982.01"
"1860","11922.99"
"1861","11844.8"
"1862","11837.55"
"1863","11926.8"
"1864","12021.25"
"1865","12027.11"
"1866","11955.24"
"1867","11878.98"
"1868","11850.88"
"1869","11862.3"
"1870","11894.21"
"1871","11935.3"
"1872","11981.15"
"1873","12026.14"
"1874","12058.56"
"1875","12065.17"
"1876","12041.55"
"1877","11994.77"
"1878","11934.07"
"1879","11877.69"
"1880","11847.56"
"1881","11855.7"
"1882","11895.38"
"1883","11956.02"
"1884","12008.18"
"1885","12011.31"
"1886","11951.54"
"1887","11886.59"
"1888","11881.82"
"1889","11932.96"
"1890","11979.07"
"1891","11970.36"
"1892","11905.54"
"1893","11795.9"
"1894","11686.74"
"1895","11660.25"
"1896","11772.74"
"1897","11937.11"
"1898","12021.92"
"1899","11979.25"
"1900","11879.63"
"1901","11796.55"
"1902","11760.63"
"1903","11784.16"
"1904","11852.04"
"1905","11899.82"
"1906","11867.18"
"1907","11780.94"
"1908","11714.67"
"1909","11710.96"
"1910","11740.88"
"1911","11767.36"
"1912","11774.65"
"1913","11761.09"
"1914","11729.53"
"1915","11694.54"
"1916","11672.45"
"1917","11673.81"
"1918","11704.63"
"1919","11762.08"
"1920","11814.12"
"1921","11824.1"
"1922","11787.46"
"1923","11729.13"
"1924","11676.57"
"1925","11662.38"
"1926","11718"
"1927","11811.74"
"1928","11845.93"
"1929","11755.01"
"1930","11632.04"
"1931","11610.67"
"1932","11700.82"
"1933","11768.98"
"1934","11710.02"
"1935","11601.24"
"1936","11573.93"
"1937","11658.07"
"1938","11756.62"
"1939","11781.82"
"1940","11740.59"
"1941","11671.54"
"1942","11613.82"
"1943","11607.3"
"1944","11677.62"
"1945","11769.27"
"1946","11799.53"
"1947","11742.66"
"1948","11650.7"
"1949","11576.49"
"1950","11544.32"
"1951","11567.62"
"1952","11627.3"
"1953","11659.74"
"1954","11614.16"
"1955","11532.76"
"1956","11489.53"
"1957","11506.49"
"1958","11535.62"
"1959","11534.35"
"1960","11518.02"
"1961","11520.84"
"1962","11537.46"
"1963","11511.49"
"1964","11404.7"
"1965","11290.92"
"1966","11277.28"
"1967","11371.58"
"1968","11461.7"
"1969","11456.05"
"1970","11395.14"
"1971","11356.7"
"1972","11367.02"
"1973","11395.62"
"1974","11411.91"
"1975","11397.62"
"1976","11339.07"
"1977","11254.8"
"1978","11195.08"
"1979","11195.01"
"1980","11229.23"
"1981","11260.16"
"1982","11278.78"
"1983","11300.59"
"1984","11329.19"
"1985","11329.14"
"1986","11262.83"
"1987","11167.04"
"1988","11132.75"
"1989","11200.74"
"1990","11280.81"
"1991","11272.69"
"1992","11190.08"
"1993","11115.47"
"1994","11098.93"
"1995","11121.73"
"1996","11157.97"
"1997","11192.92"
"1998","11217.21"
"1999","11220.58"
"2000","11191.23"
"2001","11123.43"
"2002","11049.8"
"2003","11016.64"
"2004","11033.35"
"2005","11062.04"
"2006","11069.98"
"2007","11062.85"
"2008","11056.03"
"2009","11037.28"
"2010","10967.26"
"2011","10832.83"
"2012","10712.03"
"2013","10695.58"
"2014","10781.91"
"2015","10901.67"
"2016","10990.59"
"2017","11000.82"
"2018","10898.25"
"2019","10753.04"
"2020","10690.2"
"2021","10750.06"
"2022","10827.92"
"2023","10824.42"
"2024","10759.32"
"2025","10695.8"
"2026","10660.17"
"2027","10634.45"
"2028","10604.7"
"2029","10583.64"
"2030","10589.52"
"2031","10620.16"
"2032","10656.49"
"2033","10680.39"
"2034","10677.64"
"2035","10636.67"
"2036","10565.77"
"2037","10484.47"
"2038","10420.87"
"2039","10417.44"
"2040","10502.59"
"2041","10615.03"
"2042","10663.64"
"2043","10625.38"
"2044","10552.62"
"2045","10490.31"
"2046","10443.32"
"2047","10408.52"
"2048","10392.38"
"2049","10408.02"
"2050","10446.68"
"2051","10453.21"
"2052","10380.4"
"2053","10280.88"
"2054","10248.73"
"2055","10298.06"
"2056","10339.85"
"2057","10304.08"
"2058","10225.3"
"2059","10162.87"
"2060","10152.24"
"2061","10210.1"
"2062","10316.07"
"2063","10367.06"
"2064","10272.15"
"2065","10119.18"
"2066","10073.81"
"2067","10163.83"
"2068","10236.87"
"2069","10180.29"
"2070","10087.31"
"2071","10090.85"
"2072","10160.94"
"2073","10146.69"
"2074","10002.09"
"2075","9907.935"
"2076","10028.74"
"2077","10226.26"
"2078","10246.08"
"2079","10070"
"2080","9951.875"
"2081","10058.88"
"2082","10218.76"
"2083","10211.28"
"2084","10070.49"
"2085","9987.248"
"2086","10032.86"
"2087","10071.51"
"2088","9986.509"
"2089","9861.597"
"2090","9837.019"
"2091","9921.649"
"2092","10007.78"
"2093","10021.99"
"2094","9983.985"
"2095","9927.355"
"2096","9885.812"
"2097","9891.398"
"2098","9916.696"
"2099","9862.828"
"2100","9678.024"
"2101","9481.731"
"2102","9415.24"
"2103","9471.676"
"2104","9556.328"
"2105","9609.578"
"2106","9628.427"
"2107","9617.515"
"2108","9593.568"
"2109","9575.851"
"2110","9571.599"
"2111","9579.019"
"2112","9591.902"
"2113","9595.967"
"2114","9579.823"
"2115","9553.184"
"2116","9532.566"
"2117","9526.91"
"2118","9538.301"
"2119","9553.284"
"2120","9523.519"
"2121","9412.544"
"2122","9293.398"
"2123","9278.325"
"2124","9367.576"
"2125","9447.234"
"2126","9435.947"
"2127","9350.733"
"2128","9228.534"
"2129","9136.305"
"2130","9151.284"
"2131","9260.089"
"2132","9348.937"
"2133","9341.423"
"2134","9280.91"
"2135","9225.383"
"2136","9183.851"
"2137","9142.711"
"2138","9099.253"
"2139","9063.425"
"2140","9034.358"
"2141","8978.31"
"2142","8866.272"
"2143","8753.205"
"2144","8731"
"2145","8805.203"
"2146","8882.745"
"2147","8899.776"
"2148","8889.426"
"2149","8896.064"
"2150","8921.948"
"2151","8949.714"
"2152","8948.376"
"2153","8872.451"
"2154","8712.6"
"2155","8554.727"
"2156","8488.091"
"2157","8519.835"
"2158","8621.738"
"2159","8735.733"
"2160","8774.925"
"2161","8705.353"
"2162","8616.73"
"2163","8594.813"
"2164","8601.484"
"2165","8558.175"
"2166","8457.446"
"2167","8351.987"
"2168","8291.224"
"2169","8314.423"
"2170","8431.31"
"2171","8517.354"
"2172","8425.9"
"2173","8242.718"
"2174","8212.925"
"2175","8392.47"
"2176","8537.222"
"2177","8467.707"
"2178","8339.82"
"2179","8359.861"
"2180","8478.205"
"2181","8508.588"
"2182","8400.041"
"2183","8267.418"
"2184","8192.322"
"2185","8137.628"
"2186","8054.895"
"2187","7955.035"
"2188","7872.447"
"2189","7825.994"
"2190","7820.319"
"2191","7847.719"
"2192","7877.268"
"2193","7881.322"
"2194","7860.138"
"2195","7823.285"
"2196","7795.909"
"2197","7812.277"
"2198","7863.26"
"2199","7880.106"
"2200","7821.557"
"2201","7742.683"
"2202","7707.071"
"2203","7708.802"
"2204","7712.523"
"2205","7697.066"
"2206","7654.57"
"2207","7588.337"
"2208","7522.347"
"2209","7480.172"
"2210","7472.976"
"2211","7504.434"
"2212","7534.937"
"2213","7500.776"
"2214","7396.508"
"2215","7288.327"
"2216","7230.104"
"2217","7232.454"
"2218","7290.427"
"2219","7348.878"
"2220","7339.195"
"2221","7258.857"
"2222","7154.482"
"2223","7061.951"
"2224","6999.102"
"2225","6976.929"
"2226","6989.32"
"2227","7022.243"
"2228","7030.203"
"2229","6959.215"
"2230","6847.336"
"2231","6811.582"
"2232","6894.707"
"2233","7007.11"
"2234","7062.406"
"2235","7033.519"
"2236","6914.67"
"2237","6764.021"
"2238","6666.515"
"2239","6632.694"
"2240","6603.796"
"2241","6554.593"
"2242","6525.995"
"2243","6543.863"
"2244","6551.338"
"2245","6485.179"
"2246","6388.045"
"2247","6348.765"
"2248","6351.857"
"2249","6284.761"
"2250","6114.573"
"2251","5957.977"
"2252","5906.917"
"2253","5907.466"
"2254","5881.417"
"2255","5815.97"
"2256","5727.916"
"2257","5629.958"
"2258","5531.578"
"2259","5472.255"
"2260","5540.492"
"2261","5754.531"
"2262","5894.559"
"2263","5748.336"
"2264","5463.958"
"2265","5315.768"
"2266","5317.275"
"2267","5287.246"
"2268","5158.38"
"2269","5028.207"
"2270","4960.763"
"2271","4900.638"
"2272","4793.561"
"2273","4690.792"
"2274","4667.16"
"2275","4685.44"
"2276","4644.003"
"2277","4544.595"
"2278","4503.147"
"2279","4561.729"
"2280","4602.983"
"2281","4520.239"
"2282","4320.415"
"2283","4046.872"
"2284","3813.507"
"2285","3754.833"
"2286","3817.561"
"2287","3798.361"
"2288","3635.648"
"2289","3477.884"
"2290","3426.018"
"2291","3414.823"
"2292","3372.727"
"2293","3328.083"
"2294","3328.198"
"2295","3309.218"
"2296","3151.767"
"2297","2880.356"
"2298","2659.263"
"2299","2581.579"
"2300","2610.024"
