,"Scan 00900"
"400","5150.396"
"401","5154.323"
"402","5140.211"
"403","5124.739"
"404","5124.467"
"405","5153.39"
"406","5204.333"
"407","5259.449"
"408","5300.93"
"409","5312.642"
"410","5298.607"
"411","5276.838"
"412","5265.5"
"413","5281.596"
"414","5320.758"
"415","5358.725"
"416","5370.642"
"417","5332.552"
"418","5245.897"
"419","5143.354"
"420","5059.302"
"421","5027.549"
"422","5059.69"
"423","5131.701"
"424","5216.491"
"425","5287.23"
"426","5328.249"
"427","5346.992"
"428","5353.748"
"429","5358.732"
"430","5367.94"
"431","5376.133"
"432","5376.227"
"433","5361.193"
"434","5328.133"
"435","5288.336"
"436","5256.066"
"437","5245.496"
"438","5266.115"
"439","5307.243"
"440","5352.752"
"441","5386.633"
"442","5396.393"
"443","5388.332"
"444","5375.085"
"445","5369.207"
"446","5380.908"
"447","5405.046"
"448","5430.171"
"449","5444.89"
"450","5439.607"
"451","5419.004"
"452","5394.761"
"453","5378.528"
"454","5380.558"
"455","5397.76"
"456","5419.389"
"457","5434.679"
"458","5433.71"
"459","5415.992"
"460","5387.263"
"461","5353.337"
"462","5319.896"
"463","5291.223"
"464","5270.561"
"465","5261.101"
"466","5265.781"
"467","5283.567"
"468","5310.106"
"469","5340.978"
"470","5371.843"
"471","5399.572"
"472","5422.142"
"473","5437.582"
"474","5444.125"
"475","5444.431"
"476","5445.54"
"477","5454.641"
"478","5478.448"
"479","5512.563"
"480","5540.809"
"481","5546.534"
"482","5513.912"
"483","5447.76"
"484","5375.957"
"485","5327.438"
"486","5330.057"
"487","5383.333"
"488","5453.897"
"489","5506.713"
"490","5507.858"
"491","5452.983"
"492","5372.973"
"493","5300.608"
"494","5267.721"
"495","5281.024"
"496","5316.939"
"497","5350.201"
"498","5356.234"
"499","5328.424"
"500","5281.777"
"501","5232.503"
"502","5196.426"
"503","5179.739"
"504","5177.222"
"505","5183.016"
"506","5191.263"
"507","5195.029"
"508","5186.135"
"509","5156.379"
"510","5098.099"
"511","5017.684"
"512","4937.056"
"513","4878.824"
"514","4864.577"
"515","4893.137"
"516","4939.511"
"517","4977.714"
"518","4982.861"
"519","4951.512"
"520","4901.187"
"521","4850.186"
"522","4816.052"
"523","4803.479"
"524","4805.583"
"525","4815.101"
"526","4825.085"
"527","4833.207"
"528","4840.923"
"529","4849.793"
"530","4861.081"
"531","4871.98"
"532","4876.702"
"533","4869.414"
"534","4845.121"
"535","4808.343"
"536","4769.774"
"537","4740.16"
"538","4729.241"
"539","4737.403"
"540","4759.734"
"541","4791.29"
"542","4827.089"
"543","4861.699"
"544","4889.482"
"545","4904.825"
"546","4903.292"
"547","4888.136"
"548","4865.734"
"549","4842.445"
"550","4824.335"
"551","4816.027"
"552","4821.639"
"553","4845.273"
"554","4887.983"
"555","4937.521"
"556","4978.059"
"557","4993.841"
"558","4975.889"
"559","4938.691"
"560","4901.786"
"561","4884.601"
"562","4897.587"
"563","4926.69"
"564","4953.741"
"565","4960.715"
"566","4940.602"
"567","4909.981"
"568","4888.425"
"569","4895.223"
"570","4934.855"
"571","4987.021"
"572","5029.139"
"573","5039.164"
"574","5012.187"
"575","4965.541"
"576","4917.974"
"577","4887.627"
"578","4880.427"
"579","4890.102"
"580","4909.878"
"581","4933.069"
"582","4953.835"
"583","4966.99"
"584","4967.384"
"585","4951.162"
"586","4926.962"
"587","4910.471"
"588","4917.39"
"589","4959.713"
"590","5024.836"
"591","5090.076"
"592","5132.809"
"593","5136.456"
"594","5112.268"
"595","5079.551"
"596","5057.523"
"597","5059.443"
"598","5079.58"
"599","5108.422"
"600","5136.508"
"601","5156.797"
"602","5167.545"
"603","5167.731"
"604","5156.392"
"605","5135.838"
"606","5113.413"
"607","5096.857"
"608","5093.6"
"609","5103.598"
"610","5118.847"
"611","5130.981"
"612","5132.348"
"613","5124.873"
"614","5117.494"
"615","5119.279"
"616","5137.741"
"617","5167.747"
"618","5197.952"
"619","5217.006"
"620","5216.435"
"621","5202.342"
"622","5185.457"
"623","5176.48"
"624","5181.681"
"625","5193.251"
"626","5200.601"
"627","5193.225"
"628","5167.971"
"629","5136.468"
"630","5112.081"
"631","5107.884"
"632","5127.508"
"633","5162.4"
"634","5203.24"
"635","5241.027"
"636","5271.689"
"637","5295.217"
"638","5311.725"
"639","5321.232"
"640","5322.952"
"641","5315.683"
"642","5298.218"
"643","5271.093"
"644","5243.458"
"645","5227.108"
"646","5233.795"
"647","5268.62"
"648","5317.674"
"649","5363.708"
"650","5389.654"
"651","5388.557"
"652","5370.509"
"653","5347.216"
"654","5330.072"
"655","5323.954"
"656","5327.136"
"657","5337.599"
"658","5353.287"
"659","5371.658"
"660","5389.886"
"661","5405.145"
"662","5414.77"
"663","5416.942"
"664","5410.133"
"665","5392.825"
"666","5367.017"
"667","5345.147"
"668","5341.547"
"669","5370.3"
"670","5430.714"
"671","5497.84"
"672","5544.545"
"673","5545.084"
"674","5500.679"
"675","5437.639"
"676","5383.171"
"677","5361.516"
"678","5371.408"
"679","5398.34"
"680","5427.728"
"681","5447.52"
"682","5456.606"
"683","5456.861"
"684","5450.162"
"685","5439.563"
"686","5430.768"
"687","5429.823"
"688","5442.507"
"689","5466.063"
"690","5487.554"
"691","5493.476"
"692","5472.17"
"693","5432.976"
"694","5398.687"
"695","5392.262"
"696","5431.028"
"697","5502.908"
"698","5586.238"
"699","5659.418"
"700","5706.969"
"701","5728.838"
"702","5727.375"
"703","5705.03"
"704","5668.244"
"705","5628.568"
"706","5597.869"
"707","5587.12"
"708","5596.944"
"709","5621.164"
"710","5653.486"
"711","5687.897"
"712","5719.734"
"713","5744.778"
"714","5758.825"
"715","5760.305"
"716","5753.861"
"717","5745.027"
"718","5739.257"
"719","5739.955"
"720","5748.17"
"721","5764.822"
"722","5789.863"
"723","5813.859"
"724","5822.095"
"725","5799.822"
"726","5739.829"
"727","5665.747"
"728","5609.075"
"729","5601.054"
"730","5652.825"
"731","5738.668"
"732","5828.963"
"733","5895.129"
"734","5926.651"
"735","5928.692"
"736","5906.939"
"737","5867.495"
"738","5819.287"
"739","5772.356"
"740","5736.727"
"741","5719.889"
"742","5722.502"
"743","5744.078"
"744","5783.974"
"745","5836.353"
"746","5889.09"
"747","5929.706"
"748","5947.216"
"749","5944.627"
"750","5932.614"
"751","5921.914"
"752","5920.313"
"753","5924.818"
"754","5929.983"
"755","5930.442"
"756","5925.299"
"757","5920.51"
"758","5922.602"
"759","5937.434"
"760","5962.608"
"761","5990.132"
"762","6011.92"
"763","6022.066"
"764","6024.34"
"765","6025.211"
"766","6031.096"
"767","6044.726"
"768","6062.284"
"769","6079.289"
"770","6091.473"
"771","6097.67"
"772","6099.065"
"773","6096.896"
"774","6092.793"
"775","6090.298"
"776","6093.53"
"777","6106.586"
"778","6131.49"
"779","6166.383"
"780","6208.988"
"781","6256.796"
"782","6303.828"
"783","6341.421"
"784","6360.856"
"785","6356.189"
"786","6334.874"
"787","6308.402"
"788","6288.191"
"789","6279.476"
"790","6276.429"
"791","6272.077"
"792","6260.102"
"793","6242.92"
"794","6229.239"
"795","6227.89"
"796","6245.42"
"797","6278.538"
"798","6321.316"
"799","6367.828"
"800","6411.878"
"801","6446.863"
"802","6466.139"
"803","6463.964"
"804","6444.208"
"805","6416.615"
"806","6391"
"807","6375.281"
"808","6370.821"
"809","6377.569"
"810","6395.381"
"811","6420.814"
"812","6446.297"
"813","6464.002"
"814","6467.488"
"815","6461.142"
"816","6454.441"
"817","6456.877"
"818","6473.13"
"819","6495.698"
"820","6515.18"
"821","6522.596"
"822","6517.194"
"823","6505.807"
"824","6495.546"
"825","6491.94"
"826","6492.263"
"827","6491.091"
"828","6483.067"
"829","6467.365"
"830","6450.966"
"831","6441.621"
"832","6446.155"
"833","6461.26"
"834","6477.347"
"835","6484.738"
"836","6478.845"
"837","6471.465"
"838","6477.687"
"839","6511.908"
"840","6569.888"
"841","6627.06"
"842","6657.835"
"843","6642.296"
"844","6594.661"
"845","6541.883"
"846","6510.793"
"847","6514.849"
"848","6542.621"
"849","6579.98"
"850","6613.314"
"851","6634.872"
"852","6640.647"
"853","6626.692"
"854","6593.18"
"855","6553.266"
"856","6522.667"
"857","6516.545"
"858","6537.077"
"859","6573.139"
"860","6613.017"
"861","6646.484"
"862","6671.195"
"863","6687.41"
"864","6695.388"
"865","6695.44"
"866","6687.966"
"867","6673.371"
"868","6652.69"
"869","6632.493"
"870","6622.209"
"871","6631.275"
"872","6663.761"
"873","6710.867"
"874","6761.899"
"875","6806.434"
"876","6838.035"
"877","6853.307"
"878","6848.935"
"879","6824.605"
"880","6790.808"
"881","6760.456"
"882","6746.127"
"883","6751.577"
"884","6771.069"
"885","6798.397"
"886","6827.678"
"887","6854.708"
"888","6875.836"
"889","6887.508"
"890","6891.65"
"891","6898.213"
"892","6917.79"
"893","6958.701"
"894","7012.508"
"895","7063.254"
"896","7095.02"
"897","7100.52"
"898","7089.286"
"899","7072.788"
"900","7061.689"
"901","7058.447"
"902","7060.692"
"903","7065.995"
"904","7072.179"
"905","7077.696"
"906","7081.094"
"907","7081.098"
"908","7078.963"
"909","7077.809"
"910","7080.788"
"911","7089.671"
"912","7101.84"
"913","7113.81"
"914","7122.312"
"915","7128.099"
"916","7135.503"
"917","7148.981"
"918","7169.583"
"919","7185.269"
"920","7180.865"
"921","7142.056"
"922","7075.872"
"923","7011.482"
"924","6979.092"
"925","7000.639"
"926","7060.852"
"927","7134.004"
"928","7194.787"
"929","7231.301"
"930","7247.346"
"931","7247.617"
"932","7236.802"
"933","7219.532"
"934","7200.417"
"935","7184.035"
"936","7173.477"
"937","7169.931"
"938","7174.461"
"939","7187.424"
"940","7205.248"
"941","7223.008"
"942","7235.83"
"943","7240.874"
"944","7238.063"
"945","7227.521"
"946","7210.063"
"947","7190.51"
"948","7175.132"
"949","7170.083"
"950","7176.105"
"951","7186.423"
"952","7193.703"
"953","7192.271"
"954","7186.194"
"955","7183.069"
"956","7190.356"
"957","7209.094"
"958","7231.444"
"959","7248.919"
"960","7254.479"
"961","7249.352"
"962","7237.688"
"963","7223.633"
"964","7210.89"
"965","7202.575"
"966","7201.764"
"967","7209.938"
"968","7220.036"
"969","7222.147"
"970","7206.654"
"971","7174.305"
"972","7138.676"
"973","7114.155"
"974","7112.187"
"975","7129.949"
"976","7160.292"
"977","7196.028"
"978","7228.968"
"979","7249.804"
"980","7249.163"
"981","7222.508"
"982","7185.87"
"983","7160.741"
"984","7167.675"
"985","7205.83"
"986","7253.315"
"987","7287.335"
"988","7292.546"
"989","7280.442"
"990","7268.551"
"991","7273.416"
"992","7294.512"
"993","7316.994"
"994","7325.567"
"995","7311.573"
"996","7285.948"
"997","7263.24"
"998","7256.904"
"999","7266.342"
"1000","7281.198"
"1001","7290.936"
"1002","7289.702"
"1003","7282.705"
"1004","7276.751"
"1005","7278.649"
"1006","7293.711"
"1007","7317.119"
"1008","7339.89"
"1009","7353.12"
"1010","7352.856"
"1011","7342.239"
"1012","7324.964"
"1013","7305.138"
"1014","7289.087"
"1015","7283.892"
"1016","7296.323"
"1017","7323.27"
"1018","7350"
"1019","7361.112"
"1020","7347.095"
"1021","7323.34"
"1022","7311.813"
"1023","7333.208"
"1024","7382.274"
"1025","7429.729"
"1026","7445.365"
"1027","7413.903"
"1028","7367.106"
"1029","7345.978"
"1030","7387.598"
"1031","7477.388"
"1032","7564.515"
"1033","7597.487"
"1034","7554.131"
"1035","7478.867"
"1036","7425.338"
"1037","7440.363"
"1038","7512.214"
"1039","7599.491"
"1040","7660.88"
"1041","7677.333"
"1042","7665.422"
"1043","7644.923"
"1044","7632.408"
"1045","7626.635"
"1046","7620.216"
"1047","7606.093"
"1048","7586.616"
"1049","7574.453"
"1050","7582.801"
"1051","7617.776"
"1052","7660.483"
"1053","7686.502"
"1054","7673.644"
"1055","7630.498"
"1056","7587.99"
"1057","7577.476"
"1058","7612.485"
"1059","7667.517"
"1060","7711.885"
"1061","7719.496"
"1062","7698.791"
"1063","7673.925"
"1064","7668.728"
"1065","7689.368"
"1066","7718.259"
"1067","7736.127"
"1068","7729.338"
"1069","7708.098"
"1070","7688.9"
"1071","7687.195"
"1072","7701.395"
"1073","7716.14"
"1074","7715.704"
"1075","7693.147"
"1076","7662.069"
"1077","7638.998"
"1078","7638.176"
"1079","7656.313"
"1080","7682.047"
"1081","7704.13"
"1082","7717.589"
"1083","7725.594"
"1084","7731.857"
"1085","7739.373"
"1086","7748.347"
"1087","7758.321"
"1088","7768.789"
"1089","7778.584"
"1090","7786.089"
"1091","7789.664"
"1092","7787.629"
"1093","7778.222"
"1094","7759.67"
"1095","7731.141"
"1096","7697.293"
"1097","7664.756"
"1098","7639.944"
"1099","7624.311"
"1100","7614.417"
"1101","7606.617"
"1102","7599.479"
"1103","7597.47"
"1104","7606.037"
"1105","7628.902"
"1106","7655.937"
"1107","7670.302"
"1108","7655.66"
"1109","7615.595"
"1110","7578.753"
"1111","7575.404"
"1112","7622.216"
"1113","7689.694"
"1114","7738.54"
"1115","7733.593"
"1116","7682.523"
"1117","7618.169"
"1118","7573.392"
"1119","7563.722"
"1120","7579.077"
"1121","7607.301"
"1122","7637.447"
"1123","7663.324"
"1124","7679.908"
"1125","7682.807"
"1126","7675.033"
"1127","7664.448"
"1128","7658.887"
"1129","7658.807"
"1130","7652.901"
"1131","7628.802"
"1132","7580.028"
"1133","7524.589"
"1134","7486.864"
"1135","7488.95"
"1136","7525.038"
"1137","7570.75"
"1138","7601.612"
"1139","7608.901"
"1140","7608.772"
"1141","7619.587"
"1142","7652.732"
"1143","7691.834"
"1144","7713.602"
"1145","7697.649"
"1146","7655.864"
"1147","7620.212"
"1148","7622.464"
"1149","7668.917"
"1150","7729.341"
"1151","7770.661"
"1152","7771.111"
"1153","7748.107"
"1154","7727.54"
"1155","7732.211"
"1156","7756.792"
"1157","7780.963"
"1158","7784.794"
"1159","7765.935"
"1160","7743.124"
"1161","7736.339"
"1162","7755.832"
"1163","7785.107"
"1164","7803.11"
"1165","7792.657"
"1166","7762.931"
"1167","7734.072"
"1168","7725.325"
"1169","7737.107"
"1170","7752.442"
"1171","7753.767"
"1172","7734.514"
"1173","7710.212"
"1174","7699.049"
"1175","7713.231"
"1176","7736.979"
"1177","7746.336"
"1178","7720.135"
"1179","7670.331"
"1180","7630.514"
"1181","7634.014"
"1182","7685.305"
"1183","7749.334"
"1184","7788.166"
"1185","7778.488"
"1186","7740.321"
"1187","7701.688"
"1188","7687.063"
"1189","7696.63"
"1190","7720.449"
"1191","7748.845"
"1192","7777.671"
"1193","7807.591"
"1194","7839.41"
"1195","7873.11"
"1196","7907.206"
"1197","7940.056"
"1198","7968.281"
"1199","7981.948"
"1200","7969.577"
"1201","7922.447"
"1202","7855.175"
"1203","7794.1"
"1204","7764.565"
"1205","7766.612"
"1206","7775.066"
"1207","7763.806"
"1208","7727.173"
"1209","7699.606"
"1210","7720.219"
"1211","7811.814"
"1212","7931.083"
"1213","8017.96"
"1214","8020.345"
"1215","7956.16"
"1216","7879.532"
"1217","7842.963"
"1218","7854.515"
"1219","7878.333"
"1220","7876.862"
"1221","7834.559"
"1222","7777.005"
"1223","7734.317"
"1224","7729.038"
"1225","7755.719"
"1226","7802.455"
"1227","7856.958"
"1228","7904.145"
"1229","7927.63"
"1230","7912.308"
"1231","7865.423"
"1232","7813.182"
"1233","7782.196"
"1234","7786.559"
"1235","7821.128"
"1236","7879.11"
"1237","7950.494"
"1238","8016.065"
"1239","8054.967"
"1240","8051.744"
"1241","8020.834"
"1242","7986.936"
"1243","7972.597"
"1244","7976.083"
"1245","7980.408"
"1246","7968.9"
"1247","7940.271"
"1248","7910.136"
"1249","7894.906"
"1250","7902.064"
"1251","7921.962"
"1252","7943.009"
"1253","7955.915"
"1254","7959.409"
"1255","7953.946"
"1256","7940.982"
"1257","7928.354"
"1258","7926.417"
"1259","7944.696"
"1260","7982.17"
"1261","8030.645"
"1262","8081.613"
"1263","8121.971"
"1264","8133.375"
"1265","8097.354"
"1266","8014.721"
"1267","7922.93"
"1268","7863.55"
"1269","7862.834"
"1270","7897.091"
"1271","7932.467"
"1272","7940.95"
"1273","7927.88"
"1274","7910.391"
"1275","7904.398"
"1276","7913.021"
"1277","7931.855"
"1278","7956.179"
"1279","7976.645"
"1280","7979.55"
"1281","7951.258"
"1282","7891.662"
"1283","7820.894"
"1284","7760.736"
"1285","7725.565"
"1286","7711.947"
"1287","7713.84"
"1288","7726.724"
"1289","7752.081"
"1290","7792.877"
"1291","7850.375"
"1292","7914.79"
"1293","7971.903"
"1294","8008.646"
"1295","8024.955"
"1296","8028.918"
"1297","8028.437"
"1298","8024.743"
"1299","8012.731"
"1300","7987.191"
"1301","7950.395"
"1302","7915.286"
"1303","7895.617"
"1304","7898.937"
"1305","7919.411"
"1306","7949.469"
"1307","7982.361"
"1308","8014.118"
"1309","8041.332"
"1310","8060.663"
"1311","8069.087"
"1312","8063.679"
"1313","8043.174"
"1314","8019.547"
"1315","8011.126"
"1316","8033.913"
"1317","8072.994"
"1318","8091.879"
"1319","8055.498"
"1320","7971.819"
"1321","7891.646"
"1322","7866.813"
"1323","7909.119"
"1324","7974.023"
"1325","8012.918"
"1326","8002.285"
"1327","7968.58"
"1328","7944.189"
"1329","7949.501"
"1330","7970.844"
"1331","7988.533"
"1332","7988.362"
"1333","7978.503"
"1334","7972.84"
"1335","7982.244"
"1336","7999.964"
"1337","8012.857"
"1338","8009.932"
"1339","7998.469"
"1340","7994.926"
"1341","8013.863"
"1342","8045.173"
"1343","8061.967"
"1344","8038.581"
"1345","7979.558"
"1346","7916.789"
"1347","7882.421"
"1348","7884.379"
"1349","7901.665"
"1350","7911.805"
"1351","7906.255"
"1352","7898.26"
"1353","7902.908"
"1354","7925.499"
"1355","7951.313"
"1356","7963.184"
"1357","7949.779"
"1358","7915.459"
"1359","7867.188"
"1360","7814.759"
"1361","7777.879"
"1362","7778.456"
"1363","7829.175"
"1364","7900.311"
"1365","7949.91"
"1366","7944.345"
"1367","7899.843"
"1368","7851.09"
"1369","7828.643"
"1370","7830.591"
"1371","7839.829"
"1372","7840.881"
"1373","7835.8"
"1374","7836.84"
"1375","7854.871"
"1376","7880.421"
"1377","7889.498"
"1378","7859.569"
"1379","7800.189"
"1380","7748.648"
"1381","7741.712"
"1382","7780.001"
"1383","7826.635"
"1384","7843.822"
"1385","7823.575"
"1386","7794.717"
"1387","7787.94"
"1388","7811.907"
"1389","7843.151"
"1390","7855.822"
"1391","7838.623"
"1392","7805.226"
"1393","7771.727"
"1394","7749.613"
"1395","7741.127"
"1396","7747.393"
"1397","7765.745"
"1398","7784.687"
"1399","7791.478"
"1400","7779.437"
"1401","7758.172"
"1402","7740.012"
"1403","7734.605"
"1404","7743.322"
"1405","7765.944"
"1406","7798.4"
"1407","7823.084"
"1408","7819.411"
"1409","7775.553"
"1410","7714.523"
"1411","7667.987"
"1412","7660.548"
"1413","7685.27"
"1414","7726.448"
"1415","7770.062"
"1416","7810.456"
"1417","7844.55"
"1418","7868.333"
"1419","7872.757"
"1420","7847.07"
"1421","7786.118"
"1422","7717.91"
"1423","7682.639"
"1424","7711.677"
"1425","7779.667"
"1426","7838.897"
"1427","7848.591"
"1428","7816.119"
"1429","7769.029"
"1430","7733.021"
"1431","7719.626"
"1432","7734.127"
"1433","7779.196"
"1434","7837.775"
"1435","7883.688"
"1436","7894.531"
"1437","7878.452"
"1438","7858.194"
"1439","7853.528"
"1440","7858.906"
"1441","7856.375"
"1442","7831.168"
"1443","7796.099"
"1444","7777.723"
"1445","7798.755"
"1446","7848.459"
"1447","7899.295"
"1448","7926.648"
"1449","7931.928"
"1450","7929.604"
"1451","7932.158"
"1452","7934.513"
"1453","7922.847"
"1454","7885.51"
"1455","7829.172"
"1456","7769.477"
"1457","7721.131"
"1458","7690.93"
"1459","7681.896"
"1460","7695.778"
"1461","7724.842"
"1462","7756.986"
"1463","7780.098"
"1464","7782.22"
"1465","7751.46"
"1466","7680.364"
"1467","7591.748"
"1468","7521.056"
"1469","7497.647"
"1470","7511.776"
"1471","7538.377"
"1472","7555.259"
"1473","7557.413"
"1474","7546.078"
"1475","7523.385"
"1476","7496.191"
"1477","7472.942"
"1478","7459.598"
"1479","7449.917"
"1480","7433.918"
"1481","7405.218"
"1482","7373.354"
"1483","7352.274"
"1484","7353.133"
"1485","7376.047"
"1486","7418.406"
"1487","7473.882"
"1488","7523.154"
"1489","7544.051"
"1490","7523.275"
"1491","7474.847"
"1492","7418.025"
"1493","7369.345"
"1494","7337.993"
"1495","7331.911"
"1496","7350.52"
"1497","7373.388"
"1498","7377.358"
"1499","7354.631"
"1500","7328.292"
"1501","7324.894"
"1502","7351.128"
"1503","7379.394"
"1504","7379.162"
"1505","7345.859"
"1506","7313.173"
"1507","7316.938"
"1508","7358.947"
"1509","7398.405"
"1510","7393.394"
"1511","7342.986"
"1512","7289.536"
"1513","7275.274"
"1514","7300.973"
"1515","7330.746"
"1516","7329.88"
"1517","7298.032"
"1518","7260.078"
"1519","7239.705"
"1520","7241.63"
"1521","7259.143"
"1522","7284.714"
"1523","7305.42"
"1524","7305.708"
"1525","7273.975"
"1526","7223.771"
"1527","7178.456"
"1528","7157.355"
"1529","7159.803"
"1530","7179.028"
"1531","7206.503"
"1532","7227.113"
"1533","7224.177"
"1534","7191.836"
"1535","7155.666"
"1536","7146.847"
"1537","7178.175"
"1538","7221.393"
"1539","7242.909"
"1540","7228.693"
"1541","7198.328"
"1542","7174.434"
"1543","7167.621"
"1544","7172.612"
"1545","7183.122"
"1546","7194.857"
"1547","7205.55"
"1548","7212.894"
"1549","7212.656"
"1550","7199.12"
"1551","7167.958"
"1552","7129.398"
"1553","7102.119"
"1554","7102.357"
"1555","7128.274"
"1556","7170.275"
"1557","7216.885"
"1558","7247.535"
"1559","7238.814"
"1560","7180.667"
"1561","7109.825"
"1562","7073.227"
"1563","7093.516"
"1564","7133.216"
"1565","7145.974"
"1566","7111.753"
"1567","7056.949"
"1568","7012.249"
"1569","6991.267"
"1570","6986.019"
"1571","6987.298"
"1572","6989.394"
"1573","6989.764"
"1574","6986.418"
"1575","6982.572"
"1576","6984.775"
"1577","6998.672"
"1578","7022.799"
"1579","7052.529"
"1580","7081.75"
"1581","7097.336"
"1582","7084.048"
"1583","7036.098"
"1584","6977.638"
"1585","6938.683"
"1586","6935.916"
"1587","6957.922"
"1588","6989.84"
"1589","7022.579"
"1590","7055.238"
"1591","7087.069"
"1592","7107.19"
"1593","7094.947"
"1594","7032.884"
"1595","6945.683"
"1596","6885.318"
"1597","6895.192"
"1598","6955.685"
"1599","7020.43"
"1600","7051.158"
"1601","7044.958"
"1602","7008.413"
"1603","6954.04"
"1604","6910.206"
"1605","6907.562"
"1606","6947.336"
"1607","6980.803"
"1608","6956.507"
"1609","6882.843"
"1610","6833.786"
"1611","6879.475"
"1612","6994.443"
"1613","7085.803"
"1614","7074.815"
"1615","6996.662"
"1616","6936.937"
"1617","6959.291"
"1618","7032.622"
"1619","7100.614"
"1620","7124.32"
"1621","7108.761"
"1622","7065.831"
"1623","7009.614"
"1624","6957.53"
"1625","6926.711"
"1626","6921.64"
"1627","6934.754"
"1628","6958.15"
"1629","6985.447"
"1630","7011.138"
"1631","7030.22"
"1632","7040.455"
"1633","7040.55"
"1634","7031.177"
"1635","7019.112"
"1636","7012.258"
"1637","7013.146"
"1638","7014.668"
"1639","7009.034"
"1640","6996.992"
"1641","6988.393"
"1642","6992.36"
"1643","7004.822"
"1644","7013.394"
"1645","7008.573"
"1646","6998.302"
"1647","6996.777"
"1648","7011.504"
"1649","7029.12"
"1650","7032.343"
"1651","7015.861"
"1652","6995.055"
"1653","6986.57"
"1654","6988.672"
"1655","6981.435"
"1656","6947.597"
"1657","6903.546"
"1658","6884.598"
"1659","6914.773"
"1660","6961.961"
"1661","6977.025"
"1662","6937.025"
"1663","6885.603"
"1664","6876.031"
"1665","6923.698"
"1666","6991.667"
"1667","7040.756"
"1668","7056.167"
"1669","7041.764"
"1670","7003.54"
"1671","6958.572"
"1672","6928.509"
"1673","6925.789"
"1674","6931.996"
"1675","6922.473"
"1676","6889.591"
"1677","6855.04"
"1678","6842.024"
"1679","6845.495"
"1680","6834.328"
"1681","6782.488"
"1682","6713.746"
"1683","6676.186"
"1684","6700.713"
"1685","6751.064"
"1686","6774.984"
"1687","6751.583"
"1688","6719.903"
"1689","6723.68"
"1690","6758.881"
"1691","6774.16"
"1692","6725.149"
"1693","6645.419"
"1694","6608.302"
"1695","6660.241"
"1696","6740.786"
"1697","6763.695"
"1698","6697.303"
"1699","6612.483"
"1700","6588.021"
"1701","6629.25"
"1702","6671.883"
"1703","6658.501"
"1704","6607.832"
"1705","6574.542"
"1706","6595.596"
"1707","6645.233"
"1708","6684.262"
"1709","6693.503"
"1710","6686.647"
"1711","6679.368"
"1712","6669.886"
"1713","6642.302"
"1714","6586.748"
"1715","6533.65"
"1716","6528.967"
"1717","6589.452"
"1718","6651.714"
"1719","6640.527"
"1720","6551.253"
"1721","6469.689"
"1722","6478.682"
"1723","6563.071"
"1724","6647.545"
"1725","6671.319"
"1726","6641.824"
"1727","6585.269"
"1728","6528.589"
"1729","6500.045"
"1730","6525.706"
"1731","6585.801"
"1732","6619.473"
"1733","6578.266"
"1734","6506.651"
"1735","6487.084"
"1736","6560.732"
"1737","6654.62"
"1738","6678.259"
"1739","6612.841"
"1740","6527.374"
"1741","6489.904"
"1742","6506.575"
"1743","6549.073"
"1744","6591.708"
"1745","6620.154"
"1746","6622.897"
"1747","6600.151"
"1748","6570.616"
"1749","6553.136"
"1750","6546.615"
"1751","6535.915"
"1752","6511.441"
"1753","6491.372"
"1754","6501.926"
"1755","6545.396"
"1756","6578.309"
"1757","6555.15"
"1758","6484.76"
"1759","6421.196"
"1760","6408.666"
"1761","6427.79"
"1762","6437.116"
"1763","6421.023"
"1764","6420.382"
"1765","6480.521"
"1766","6585.034"
"1767","6660.512"
"1768","6646.75"
"1769","6579.416"
"1770","6530.788"
"1771","6538.042"
"1772","6556.085"
"1773","6530.85"
"1774","6469.625"
"1775","6438.817"
"1776","6490.977"
"1777","6574.551"
"1778","6597.319"
"1779","6521.066"
"1780","6434.286"
"1781","6438.692"
"1782","6530.588"
"1783","6606.602"
"1784","6579.625"
"1785","6486.084"
"1786","6408.636"
"1787","6396.823"
"1788","6427.189"
"1789","6467.287"
"1790","6498.234"
"1791","6512.978"
"1792","6506.38"
"1793","6481.523"
"1794","6444.312"
"1795","6407.009"
"1796","6394.096"
"1797","6429.078"
"1798","6499.993"
"1799","6568.003"
"1800","6597.29"
"1801","6568.93"
"1802","6469.292"
"1803","6324.738"
"1804","6225.543"
"1805","6256.912"
"1806","6383.345"
"1807","6494.791"
"1808","6513.62"
"1809","6479.123"
"1810","6455.041"
"1811","6469.536"
"1812","6506.212"
"1813","6545.04"
"1814","6560.002"
"1815","6522.267"
"1816","6428.147"
"1817","6337.705"
"1818","6318.174"
"1819","6378.008"
"1820","6471.216"
"1821","6553.645"
"1822","6602.391"
"1823","6601.759"
"1824","6557.638"
"1825","6513.929"
"1826","6513.179"
"1827","6536.173"
"1828","6523.917"
"1829","6444.213"
"1830","6359.101"
"1831","6348.403"
"1832","6413.172"
"1833","6462.036"
"1834","6417.675"
"1835","6334.604"
"1836","6321.565"
"1837","6415.963"
"1838","6504.284"
"1839","6464.567"
"1840","6329.677"
"1841","6247.182"
"1842","6317.932"
"1843","6451.051"
"1844","6511.847"
"1845","6463.299"
"1846","6391.692"
"1847","6378.192"
"1848","6410.491"
"1849","6436.029"
"1850","6428.633"
"1851","6418.664"
"1852","6440.701"
"1853","6487.504"
"1854","6521.624"
"1855","6517.383"
"1856","6494.267"
"1857","6481.359"
"1858","6487.832"
"1859","6499.897"
"1860","6504.26"
"1861","6498.618"
"1862","6484.889"
"1863","6471.931"
"1864","6481.063"
"1865","6530.046"
"1866","6585.155"
"1867","6581.931"
"1868","6490.524"
"1869","6380.115"
"1870","6333.673"
"1871","6362.784"
"1872","6415.031"
"1873","6446.251"
"1874","6459.105"
"1875","6468.751"
"1876","6476.108"
"1877","6463.458"
"1878","6417.984"
"1879","6368.57"
"1880","6361.1"
"1881","6409.606"
"1882","6468.214"
"1883","6489.066"
"1884","6473.326"
"1885","6451.149"
"1886","6443.097"
"1887","6443.043"
"1888","6440.76"
"1889","6431.081"
"1890","6412.94"
"1891","6384.515"
"1892","6340.721"
"1893","6276.678"
"1894","6213.654"
"1895","6201.307"
"1896","6276.338"
"1897","6401.02"
"1898","6514.104"
"1899","6574.704"
"1900","6570.837"
"1901","6499.187"
"1902","6401.352"
"1903","6337.718"
"1904","6340.081"
"1905","6388.292"
"1906","6455.451"
"1907","6503.492"
"1908","6488.413"
"1909","6401.558"
"1910","6314.496"
"1911","6304.156"
"1912","6376.334"
"1913","6489.76"
"1914","6597.976"
"1915","6642.811"
"1916","6570.18"
"1917","6423.964"
"1918","6325.599"
"1919","6352.506"
"1920","6426.927"
"1921","6442.837"
"1922","6381.779"
"1923","6305.942"
"1924","6267.61"
"1925","6267.791"
"1926","6294.784"
"1927","6333.751"
"1928","6366.575"
"1929","6378.062"
"1930","6367.05"
"1931","6336.662"
"1932","6300.825"
"1933","6285.989"
"1934","6311.164"
"1935","6354.62"
"1936","6382.487"
"1937","6381.401"
"1938","6363.7"
"1939","6340.919"
"1940","6311.364"
"1941","6269.38"
"1942","6227.637"
"1943","6223.045"
"1944","6284.509"
"1945","6385.846"
"1946","6481.639"
"1947","6532.595"
"1948","6507.855"
"1949","6391.104"
"1950","6246.571"
"1951","6166.042"
"1952","6179.414"
"1953","6231.625"
"1954","6267.795"
"1955","6270.171"
"1956","6234.629"
"1957","6179.12"
"1958","6151.243"
"1959","6189.114"
"1960","6266.33"
"1961","6334.795"
"1962","6365.263"
"1963","6352.858"
"1964","6301.261"
"1965","6250.052"
"1966","6249.236"
"1967","6306.656"
"1968","6379.269"
"1969","6425.067"
"1970","6421.927"
"1971","6354.952"
"1972","6248.668"
"1973","6171.056"
"1974","6172.194"
"1975","6216.792"
"1976","6248.906"
"1977","6254.417"
"1978","6260.391"
"1979","6286.746"
"1980","6320.892"
"1981","6343.168"
"1982","6340.563"
"1983","6305.757"
"1984","6241.795"
"1985","6182.97"
"1986","6167.09"
"1987","6196.267"
"1988","6246.557"
"1989","6295.539"
"1990","6326.327"
"1991","6324.448"
"1992","6292.589"
"1993","6243.831"
"1994","6191.535"
"1995","6149.272"
"1996","6129.588"
"1997","6136.082"
"1998","6167.812"
"1999","6211.094"
"2000","6231.482"
"2001","6202.331"
"2002","6157.355"
"2003","6152.057"
"2004","6195.042"
"2005","6234.831"
"2006","6228.167"
"2007","6188.061"
"2008","6143.254"
"2009","6114.029"
"2010","6112.361"
"2011","6139.095"
"2012","6159.153"
"2013","6134.283"
"2014","6087.779"
"2015","6088.121"
"2016","6164.461"
"2017","6249.283"
"2018","6268.721"
"2019","6221.875"
"2020","6146.854"
"2021","6082.286"
"2022","6066.88"
"2023","6125.736"
"2024","6201.055"
"2025","6206.155"
"2026","6128.036"
"2027","6042.039"
"2028","6015.589"
"2029","6062.779"
"2030","6181.451"
"2031","6319.587"
"2032","6383.849"
"2033","6326.566"
"2034","6222.692"
"2035","6158.599"
"2036","6138.53"
"2037","6121.259"
"2038","6086.451"
"2039","6050.2"
"2040","6030.953"
"2041","6039.94"
"2042","6084.845"
"2043","6145.861"
"2044","6172.742"
"2045","6136.378"
"2046","6087.302"
"2047","6088.031"
"2048","6127.735"
"2049","6143.872"
"2050","6114.287"
"2051","6104.404"
"2052","6174.12"
"2053","6263.439"
"2054","6262.41"
"2055","6148.884"
"2056","6014.028"
"2057","5939.229"
"2058","5935.433"
"2059","5993.855"
"2060","6073.949"
"2061","6110.521"
"2062","6074.526"
"2063","6020.473"
"2064","6007.08"
"2065","6037.068"
"2066","6087.68"
"2067","6132.43"
"2068","6140.194"
"2069","6093.007"
"2070","6026.378"
"2071","5986.212"
"2072","5976.626"
"2073","5970.664"
"2074","5956.843"
"2075","5957.853"
"2076","5996.101"
"2077","6062.944"
"2078","6137.051"
"2079","6197.741"
"2080","6225.151"
"2081","6209.831"
"2082","6176.868"
"2083","6156.054"
"2084","6148.835"
"2085","6139.141"
"2086","6119.879"
"2087","6099.666"
"2088","6086.207"
"2089","6074.771"
"2090","6057.103"
"2091","6032.686"
"2092","6007.877"
"2093","5986.97"
"2094","5968.681"
"2095","5954.12"
"2096","5968.123"
"2097","6044.191"
"2098","6148.658"
"2099","6167.104"
"2100","6038.38"
"2101","5895"
"2102","5892.74"
"2103","6004.873"
"2104","6096.952"
"2105","6108.432"
"2106","6096.232"
"2107","6110.946"
"2108","6130.511"
"2109","6115.032"
"2110","6054.82"
"2111","5962.976"
"2112","5872.671"
"2113","5854.565"
"2114","5956.428"
"2115","6076.6"
"2116","6070.817"
"2117","5956.701"
"2118","5896.505"
"2119","5977.637"
"2120","6103.889"
"2121","6166.61"
"2122","6144.712"
"2123","6053.283"
"2124","5938.735"
"2125","5879.198"
"2126","5906.238"
"2127","5926.799"
"2128","5849.784"
"2129","5746.348"
"2130","5754.896"
"2131","5874.011"
"2132","5947.151"
"2133","5888.604"
"2134","5833.825"
"2135","5927.705"
"2136","6086.256"
"2137","6122.827"
"2138","6003.493"
"2139","5870.587"
"2140","5826.796"
"2141","5832.66"
"2142","5829.052"
"2143","5801.848"
"2144","5758.84"
"2145","5727.68"
"2146","5758.428"
"2147","5868.882"
"2148","5983.369"
"2149","6021.076"
"2150","5985.942"
"2151","5920.321"
"2152","5865.719"
"2153","5862.443"
"2154","5917.766"
"2155","5953.778"
"2156","5897.779"
"2157","5805.668"
"2158","5782.7"
"2159","5844.383"
"2160","5918.492"
"2161","5949.733"
"2162","5930.111"
"2163","5865.863"
"2164","5807.706"
"2165","5818.514"
"2166","5892.213"
"2167","5964.64"
"2168","5992.847"
"2169","5978.481"
"2170","5932.857"
"2171","5888.99"
"2172","5883.321"
"2173","5912.018"
"2174","5943.08"
"2175","5942.983"
"2176","5876.838"
"2177","5735.203"
"2178","5602.735"
"2179","5574.628"
"2180","5638.635"
"2181","5724.131"
"2182","5783.283"
"2183","5796.715"
"2184","5759.49"
"2185","5701.594"
"2186","5653.354"
"2187","5607.248"
"2188","5543.369"
"2189","5501.197"
"2190","5573.346"
"2191","5764.76"
"2192","5904.43"
"2193","5856.123"
"2194","5738.401"
"2195","5726.598"
"2196","5805.936"
"2197","5841.279"
"2198","5795.055"
"2199","5766.181"
"2200","5815.155"
"2201","5856.412"
"2202","5797.38"
"2203","5692.684"
"2204","5655.85"
"2205","5698.518"
"2206","5738.235"
"2207","5726.907"
"2208","5690.099"
"2209","5661.178"
"2210","5670.298"
"2211","5738.123"
"2212","5794.707"
"2213","5720.581"
"2214","5547.668"
"2215","5493.57"
"2216","5660.279"
"2217","5823.741"
"2218","5767.329"
"2219","5616.752"
"2220","5602.784"
"2221","5710.285"
"2222","5742.701"
"2223","5630.536"
"2224","5502.146"
"2225","5454.968"
"2226","5436.542"
"2227","5379.3"
"2228","5317.327"
"2229","5323.898"
"2230","5392.744"
"2231","5448.841"
"2232","5444.52"
"2233","5383.267"
"2234","5291.474"
"2235","5259.089"
"2236","5368.288"
"2237","5525.934"
"2238","5563.058"
"2239","5460.948"
"2240","5341.187"
"2241","5273.172"
"2242","5221.056"
"2243","5154.21"
"2244","5103.525"
"2245","5110.163"
"2246","5181.265"
"2247","5304.167"
"2248","5397.668"
"2249","5317.934"
"2250","5054.152"
"2251","4838.302"
"2252","4847.221"
"2253","4966.717"
"2254","5036.12"
"2255","5040.185"
"2256","5028.224"
"2257","5017.525"
"2258","4997.115"
"2259","4951.074"
"2260","4857.026"
"2261","4718.6"
"2262","4624.013"
"2263","4653.308"
"2264","4722.776"
"2265","4692.569"
"2266","4559.955"
"2267","4425.071"
"2268","4349.92"
"2269","4339.885"
"2270","4379.092"
"2271","4407.156"
"2272","4369.642"
"2273","4280.849"
"2274","4172.706"
"2275","4029.431"
"2276","3809.909"
"2277","3573.448"
"2278","3489.214"
"2279","3594.544"
"2280","3652.058"
"2281","3480.488"
"2282","3236.937"
"2283","3128.06"
"2284","3129.2"
"2285","3117.43"
"2286","3069.03"
"2287","3040.301"
"2288","3036.862"
"2289","2988.245"
"2290","2857.682"
"2291","2711.383"
"2292","2611.932"
"2293","2522.585"
"2294","2385.24"
"2295","2228.763"
"2296","2128.842"
"2297","2123.05"
"2298","2210.447"
"2299","2321.319"
"2300","2272.898"
