,"Scan 00901"
"400","3515.641"
"401","3517.649"
"402","3521.643"
"403","3523.565"
"404","3519.385"
"405","3505.958"
"406","3487.508"
"407","3471.975"
"408","3467.27"
"409","3480.268"
"410","3505.08"
"411","3526.969"
"412","3531.126"
"413","3503.875"
"414","3452.848"
"415","3405.515"
"416","3389.915"
"417","3432.999"
"418","3530.571"
"419","3640.128"
"420","3717.093"
"421","3717.714"
"422","3632.848"
"423","3508.882"
"424","3396.926"
"425","3347.557"
"426","3384.095"
"427","3473.266"
"428","3574.92"
"429","3649.219"
"430","3671.449"
"431","3657.22"
"432","3628.76"
"433","3608.135"
"434","3610.523"
"435","3627.645"
"436","3646.222"
"437","3653.073"
"438","3638.842"
"439","3610.64"
"440","3580.027"
"441","3558.487"
"442","3554.742"
"443","3562.763"
"444","3571.551"
"445","3570.18"
"446","3550.039"
"447","3517.741"
"448","3486.144"
"449","3468.043"
"450","3474.272"
"451","3500.088"
"452","3533.122"
"453","3561.028"
"454","3572.479"
"455","3565.604"
"456","3543.969"
"457","3511.183"
"458","3470.988"
"459","3429.026"
"460","3392.182"
"461","3367.319"
"462","3360.739"
"463","3371.279"
"464","3392.203"
"465","3416.681"
"466","3438.056"
"467","3451.91"
"468","3455.688"
"469","3446.907"
"470","3423.356"
"471","3387.922"
"472","3348.149"
"473","3311.712"
"474","3286.095"
"475","3275.617"
"476","3281.454"
"477","3304.64"
"478","3345.917"
"479","3398.601"
"480","3448.143"
"481","3479.699"
"482","3479.062"
"483","3447.727"
"484","3404.729"
"485","3369.917"
"486","3362.463"
"487","3384.249"
"488","3417.073"
"489","3441.708"
"490","3439.411"
"491","3403.589"
"492","3342.12"
"493","3263.685"
"494","3176.936"
"495","3091.248"
"496","3016.889"
"497","2964.116"
"498","2942.789"
"499","2951.279"
"500","2974.128"
"501","2995.139"
"502","2998.507"
"503","2978.182"
"504","2939.675"
"505","2889.137"
"506","2832.649"
"507","2775.021"
"508","2719.612"
"509","2669.678"
"510","2628.385"
"511","2596.72"
"512","2573.273"
"513","2556.514"
"514","2544.901"
"515","2536.344"
"516","2528.177"
"517","2517.724"
"518","2502.457"
"519","2482.844"
"520","2462.291"
"521","2444.3"
"522","2432.171"
"523","2425.531"
"524","2420.699"
"525","2413.896"
"526","2401.538"
"527","2382.998"
"528","2360.068"
"529","2334.599"
"530","2308.461"
"531","2283.84"
"532","2263.157"
"533","2248.823"
"534","2242.895"
"535","2243.338"
"536","2245.463"
"537","2244.562"
"538","2236.51"
"539","2222.69"
"540","2207.598"
"541","2195.747"
"542","2191.223"
"543","2194.831"
"544","2205.785"
"545","2223.292"
"546","2246.288"
"547","2271.874"
"548","2296.414"
"549","2316.284"
"550","2328.363"
"551","2332.17"
"552","2328.116"
"553","2316.61"
"554","2298.873"
"555","2279.684"
"556","2264.785"
"557","2259.885"
"558","2268.148"
"559","2283.925"
"560","2299.667"
"561","2307.87"
"562","2303.745"
"563","2289.917"
"564","2270.259"
"565","2248.622"
"566","2228.207"
"567","2210.828"
"568","2198.116"
"569","2191.677"
"570","2192.007"
"571","2197.739"
"572","2207.334"
"573","2219.239"
"574","2231.097"
"575","2239.498"
"576","2240.981"
"577","2232.292"
"578","2214.771"
"579","2194.335"
"580","2177.078"
"581","2168.783"
"582","2171.056"
"583","2182.333"
"584","2200.981"
"585","2225.171"
"586","2251.115"
"587","2273.922"
"588","2288.712"
"589","2291.71"
"590","2286.473"
"591","2279.562"
"592","2277.522"
"593","2285.135"
"594","2299.06"
"595","2313.608"
"596","2323.115"
"597","2324.113"
"598","2320.139"
"599","2316.119"
"600","2316.949"
"601","2325.153"
"602","2338.023"
"603","2352.161"
"604","2364.19"
"605","2371.201"
"606","2371.003"
"607","2361.468"
"608","2340.681"
"609","2311.97"
"610","2284.26"
"611","2266.712"
"612","2267.681"
"613","2284.66"
"614","2307.183"
"615","2324.639"
"616","2327.605"
"617","2316.23"
"618","2295.369"
"619","2269.895"
"620","2244.615"
"621","2224.074"
"622","2212.722"
"623","2214.992"
"624","2232.639"
"625","2258.873"
"626","2285.223"
"627","2303.277"
"628","2308.472"
"629","2303.995"
"630","2293.951"
"631","2282.425"
"632","2273.353"
"633","2270.481"
"634","2277.531"
"635","2297.819"
"636","2328.105"
"637","2359.741"
"638","2383.946"
"639","2392.962"
"640","2387.789"
"641","2373.941"
"642","2356.953"
"643","2341.773"
"644","2330.482"
"645","2324.276"
"646","2324.342"
"647","2330.72"
"648","2340.164"
"649","2348.85"
"650","2352.997"
"651","2351.064"
"652","2345.295"
"653","2338.289"
"654","2332.534"
"655","2328.047"
"656","2322.344"
"657","2312.833"
"658","2297.602"
"659","2281.872"
"660","2275.155"
"661","2286.991"
"662","2323.788"
"663","2374.791"
"664","2423.4"
"665","2453.063"
"666","2453.957"
"667","2436.124"
"668","2413.25"
"669","2398.871"
"670","2398.997"
"671","2407.284"
"672","2416.259"
"673","2418.778"
"674","2413.998"
"675","2406.94"
"676","2402.837"
"677","2406.336"
"678","2417.037"
"679","2431.919"
"680","2447.948"
"681","2462.124"
"682","2471.574"
"683","2473.466"
"684","2464.99"
"685","2446.58"
"686","2425.922"
"687","2411.668"
"688","2412.216"
"689","2428.22"
"690","2451.1"
"691","2471.751"
"692","2481.663"
"693","2478.962"
"694","2466.035"
"695","2445.329"
"696","2420.278"
"697","2399.524"
"698","2393.396"
"699","2412.183"
"700","2459.317"
"701","2520.895"
"702","2580.343"
"703","2621.375"
"704","2637.336"
"705","2633.891"
"706","2617.5"
"707","2594.546"
"708","2570.639"
"709","2550.873"
"710","2540.323"
"711","2542.796"
"712","2555.616"
"713","2574.04"
"714","2593.338"
"715","2610.347"
"716","2625.583"
"717","2640.095"
"718","2654.89"
"719","2669.725"
"720","2682.928"
"721","2692.751"
"722","2697.561"
"723","2696.847"
"724","2690.731"
"725","2679.34"
"726","2663.313"
"727","2645.396"
"728","2628.871"
"729","2617.013"
"730","2612.973"
"731","2619.681"
"732","2640.039"
"733","2676.469"
"734","2722.801"
"735","2765.393"
"736","2790.384"
"737","2786.74"
"738","2761.714"
"739","2729.847"
"740","2705.67"
"741","2700.053"
"742","2713.994"
"743","2746.833"
"744","2797.688"
"745","2858.061"
"746","2910.251"
"747","2936.035"
"748","2920.169"
"749","2875.31"
"750","2829.414"
"751","2810.552"
"752","2836.439"
"753","2886.985"
"754","2933.482"
"755","2947.607"
"756","2921.174"
"757","2876.875"
"758","2839.993"
"759","2833.663"
"760","2854.705"
"761","2882.118"
"762","2894.593"
"763","2877.515"
"764","2846.057"
"765","2823.682"
"766","2833.635"
"767","2882.376"
"768","2946.571"
"769","2999.846"
"770","3017.663"
"771","3001.833"
"772","2974.14"
"773","2956.84"
"774","2967.424"
"775","3000.154"
"776","3042.202"
"777","3080.796"
"778","3108.112"
"779","3125.564"
"780","3135.579"
"781","3140.561"
"782","3142.61"
"783","3143.598"
"784","3145.384"
"785","3149.138"
"786","3152.698"
"787","3152.901"
"788","3146.629"
"789","3134.973"
"790","3126.565"
"791","3130.809"
"792","3156.077"
"793","3196.792"
"794","3237.352"
"795","3261.948"
"796","3260.081"
"797","3244.03"
"798","3232.193"
"799","3242.733"
"800","3280.249"
"801","3328.112"
"802","3367.859"
"803","3382.755"
"804","3374.569"
"805","3356.373"
"806","3341.386"
"807","3339.139"
"808","3346.437"
"809","3357.333"
"810","3365.949"
"811","3368.711"
"812","3364.923"
"813","3354.074"
"814","3336.454"
"815","3318.64"
"816","3310.157"
"817","3320.527"
"818","3352.522"
"819","3391.812"
"820","3421.404"
"821","3425.184"
"822","3404.324"
"823","3375.926"
"824","3357.68"
"825","3363.48"
"826","3387.42"
"827","3417.14"
"828","3440.353"
"829","3449.838"
"830","3447.107"
"831","3434.527"
"832","3414.868"
"833","3395.3"
"834","3385.717"
"835","3396.049"
"836","3431.069"
"837","3478.936"
"838","3524.469"
"839","3552.882"
"840","3559.712"
"841","3551.769"
"842","3536.428"
"843","3520.406"
"844","3506.446"
"845","3495.812"
"846","3489.751"
"847","3488.328"
"848","3489.409"
"849","3490.622"
"850","3489.751"
"851","3486.39"
"852","3481.279"
"853","3475.182"
"854","3469.206"
"855","3465.547"
"856","3466.618"
"857","3474.689"
"858","3488.686"
"859","3504.112"
"860","3516.316"
"861","3522.805"
"862","3532.497"
"863","3558.077"
"864","3611.972"
"865","3690.48"
"866","3764.387"
"867","3802.229"
"868","3777.339"
"869","3705.023"
"870","3622.307"
"871","3566.344"
"872","3559.387"
"873","3587.928"
"874","3633.202"
"875","3677.175"
"876","3712.593"
"877","3740.429"
"878","3761.863"
"879","3777.747"
"880","3787.74"
"881","3791.241"
"882","3787.759"
"883","3779.785"
"884","3773.018"
"885","3773.316"
"886","3785.393"
"887","3807.987"
"888","3837.888"
"889","3871.882"
"890","3906.498"
"891","3937.89"
"892","3962.181"
"893","3976.01"
"894","3979.826"
"895","3975.787"
"896","3966.07"
"897","3954.508"
"898","3948.148"
"899","3954.412"
"900","3979.247"
"901","4013.486"
"902","4039.097"
"903","4037.958"
"904","4003.764"
"905","3959.908"
"906","3934.378"
"907","3952.812"
"908","4007.918"
"909","4068.162"
"910","4101.448"
"911","4088.086"
"912","4047.567"
"913","4007.095"
"914","3992.656"
"915","4007.269"
"916","4033.525"
"917","4053.304"
"918","4053.292"
"919","4038.638"
"920","4018.916"
"921","4003.53"
"922","3997.616"
"923","4001.885"
"924","4016.838"
"925","4041.859"
"926","4071.309"
"927","4098.13"
"928","4115.368"
"929","4119.311"
"930","4110.038"
"931","4087.845"
"932","4055.223"
"933","4025.802"
"934","4016.741"
"935","4044.663"
"936","4105.646"
"937","4169.446"
"938","4204.094"
"939","4185.028"
"940","4128.679"
"941","4065.568"
"942","4025.806"
"943","4021.036"
"944","4037.855"
"945","4061.068"
"946","4077.842"
"947","4089.04"
"948","4100.444"
"949","4117.686"
"950","4138.765"
"951","4151.089"
"952","4141.279"
"953","4100.661"
"954","4048.161"
"955","4012.722"
"956","4022.698"
"957","4079.038"
"958","4144.865"
"959","4180.521"
"960","4155.958"
"961","4095.961"
"962","4044.716"
"963","4045.581"
"964","4106.304"
"965","4187.361"
"966","4245.944"
"967","4248.337"
"968","4209.523"
"969","4160.715"
"970","4132.56"
"971","4135.149"
"972","4153.109"
"973","4169.475"
"974","4170.878"
"975","4161.426"
"976","4150.52"
"977","4147.288"
"978","4152.998"
"979","4160.108"
"980","4160.606"
"981","4149.053"
"982","4130.943"
"983","4114.682"
"984","4108.41"
"985","4114.298"
"986","4128.643"
"987","4147.491"
"988","4166.491"
"989","4179.87"
"990","4181.534"
"991","4166.139"
"992","4141.278"
"993","4125.395"
"994","4137.271"
"995","4184.739"
"996","4243.279"
"997","4282.415"
"998","4274.087"
"999","4221.503"
"1000","4149.544"
"1001","4083.523"
"1002","4042.234"
"1003","4029.08"
"1004","4045.244"
"1005","4091.912"
"1006","4167.543"
"1007","4252.296"
"1008","4318.78"
"1009","4340.046"
"1010","4312.826"
"1011","4267.84"
"1012","4238.45"
"1013","4250.683"
"1014","4290.619"
"1015","4330.824"
"1016","4344.51"
"1017","4325.874"
"1018","4293.77"
"1019","4268.477"
"1020","4265.824"
"1021","4282.834"
"1022","4311.563"
"1023","4344.147"
"1024","4374.454"
"1025","4397.955"
"1026","4410.179"
"1027","4407.925"
"1028","4392.001"
"1029","4364"
"1030","4326.202"
"1031","4289.825"
"1032","4272.365"
"1033","4291.399"
"1034","4350.756"
"1035","4423.036"
"1036","4476.511"
"1037","4483.999"
"1038","4457.277"
"1039","4427.868"
"1040","4427.146"
"1041","4465.191"
"1042","4518.039"
"1043","4558.658"
"1044","4565.146"
"1045","4544.142"
"1046","4512.143"
"1047","4485.395"
"1048","4472.731"
"1049","4474.863"
"1050","4492.088"
"1051","4523.096"
"1052","4560.907"
"1053","4597.287"
"1054","4624.323"
"1055","4638.566"
"1056","4639.806"
"1057","4627.934"
"1058","4607.735"
"1059","4594.721"
"1060","4605.829"
"1061","4653.895"
"1062","4720.898"
"1063","4774.78"
"1064","4784.05"
"1065","4744.852"
"1066","4690.518"
"1067","4657.021"
"1068","4669.34"
"1069","4706.005"
"1070","4733.284"
"1071","4719.64"
"1072","4669.309"
"1073","4615.454"
"1074","4592.028"
"1075","4616.645"
"1076","4668.779"
"1077","4722.464"
"1078","4754.258"
"1079","4760.094"
"1080","4744.829"
"1081","4713.469"
"1082","4675.127"
"1083","4644.232"
"1084","4635.578"
"1085","4658.525"
"1086","4701.613"
"1087","4748.377"
"1088","4782.938"
"1089","4797.209"
"1090","4788.637"
"1091","4754.836"
"1092","4701.364"
"1093","4649.048"
"1094","4620.474"
"1095","4632.92"
"1096","4672.832"
"1097","4715.557"
"1098","4737.239"
"1099","4732.521"
"1100","4714.276"
"1101","4696.159"
"1102","4687.674"
"1103","4687.294"
"1104","4691.669"
"1105","4697.465"
"1106","4701.499"
"1107","4700.656"
"1108","4691.945"
"1109","4676.787"
"1110","4662.149"
"1111","4655.366"
"1112","4661.083"
"1113","4674.824"
"1114","4690.184"
"1115","4700.874"
"1116","4701.9"
"1117","4689.022"
"1118","4658.191"
"1119","4615.088"
"1120","4579.76"
"1121","4573.43"
"1122","4609.046"
"1123","4666.912"
"1124","4719.277"
"1125","4740.359"
"1126","4727.91"
"1127","4695.043"
"1128","4655.115"
"1129","4619.022"
"1130","4593.743"
"1131","4585.909"
"1132","4599.278"
"1133","4625.653"
"1134","4653.722"
"1135","4672.896"
"1136","4681.46"
"1137","4683.598"
"1138","4683.612"
"1139","4686.061"
"1140","4695.916"
"1141","4718.187"
"1142","4753.693"
"1143","4786.585"
"1144","4796.856"
"1145","4766.654"
"1146","4702.15"
"1147","4624.455"
"1148","4554.78"
"1149","4507.62"
"1150","4487.829"
"1151","4499.517"
"1152","4542.873"
"1153","4604.515"
"1154","4668.115"
"1155","4718.259"
"1156","4747.906"
"1157","4754.469"
"1158","4735.722"
"1159","4699.686"
"1160","4666.687"
"1161","4657.774"
"1162","4683.938"
"1163","4728.529"
"1164","4770.182"
"1165","4790.36"
"1166","4789.797"
"1167","4777.229"
"1168","4761.101"
"1169","4743.357"
"1170","4719.93"
"1171","4686.573"
"1172","4645.51"
"1173","4611.947"
"1174","4602.664"
"1175","4629.158"
"1176","4678.205"
"1177","4729.363"
"1178","4763.517"
"1179","4777.42"
"1180","4778.188"
"1181","4773.027"
"1182","4765.016"
"1183","4751.583"
"1184","4729.744"
"1185","4701.679"
"1186","4684.848"
"1187","4699.532"
"1188","4759.81"
"1189","4837.385"
"1190","4886.283"
"1191","4863.271"
"1192","4776.355"
"1193","4678.07"
"1194","4622.161"
"1195","4634.787"
"1196","4693.447"
"1197","4770.666"
"1198","4841.317"
"1199","4889.176"
"1200","4900.092"
"1201","4863.789"
"1202","4802.688"
"1203","4755.638"
"1204","4759.929"
"1205","4813.588"
"1206","4875.516"
"1207","4903.085"
"1208","4877.962"
"1209","4829.427"
"1210","4792.303"
"1211","4792.383"
"1212","4818.821"
"1213","4851.494"
"1214","4871.675"
"1215","4873"
"1216","4855.489"
"1217","4819.724"
"1218","4777.574"
"1219","4752.081"
"1220","4766.598"
"1221","4825.797"
"1222","4899.427"
"1223","4953.384"
"1224","4962.532"
"1225","4934.863"
"1226","4886.016"
"1227","4831.31"
"1228","4783.547"
"1229","4754.388"
"1230","4754.583"
"1231","4779.03"
"1232","4809.185"
"1233","4826.29"
"1234","4824.695"
"1235","4818.912"
"1236","4825.168"
"1237","4852.171"
"1238","4887.116"
"1239","4913.371"
"1240","4917.441"
"1241","4903.197"
"1242","4880.469"
"1243","4858.547"
"1244","4840.526"
"1245","4825.619"
"1246","4813.043"
"1247","4803.888"
"1248","4801.299"
"1249","4808.507"
"1250","4826.249"
"1251","4850.465"
"1252","4876.56"
"1253","4898.85"
"1254","4907.921"
"1255","4893.55"
"1256","4850.044"
"1257","4800.736"
"1258","4780.398"
"1259","4820.027"
"1260","4902.641"
"1261","4978.589"
"1262","4998.897"
"1263","4953.896"
"1264","4878.656"
"1265","4810.601"
"1266","4775.593"
"1267","4777.521"
"1268","4817.815"
"1269","4891.185"
"1270","4970.471"
"1271","5024.051"
"1272","5027.232"
"1273","4994.875"
"1274","4955.821"
"1275","4936.471"
"1276","4937.699"
"1277","4945.362"
"1278","4945.679"
"1279","4936.516"
"1280","4926.744"
"1281","4925.526"
"1282","4934.194"
"1283","4942.361"
"1284","4938.687"
"1285","4916.9"
"1286","4882.902"
"1287","4844.384"
"1288","4810.072"
"1289","4792.747"
"1290","4806.189"
"1291","4859.521"
"1292","4931.454"
"1293","4988.521"
"1294","5000.637"
"1295","4976.104"
"1296","4947.25"
"1297","4945.44"
"1298","4973.392"
"1299","5006.585"
"1300","5019.809"
"1301","5007.969"
"1302","4994.722"
"1303","5005.843"
"1304","5047.876"
"1305","5085.846"
"1306","5079.351"
"1307","5008.078"
"1308","4918.279"
"1309","4870"
"1310","4907.204"
"1311","4991.306"
"1312","5057.335"
"1313","5049.693"
"1314","4988.11"
"1315","4928.443"
"1316","4922.447"
"1317","4965.196"
"1318","5012.214"
"1319","5019.865"
"1320","4982.91"
"1321","4934.326"
"1322","4908.269"
"1323","4915.573"
"1324","4934.267"
"1325","4939.986"
"1326","4920.371"
"1327","4886.958"
"1328","4854.124"
"1329","4832.719"
"1330","4823.589"
"1331","4825.815"
"1332","4838.015"
"1333","4856.897"
"1334","4878.69"
"1335","4899.611"
"1336","4915.867"
"1337","4923.656"
"1338","4919.795"
"1339","4906.33"
"1340","4887.93"
"1341","4869.604"
"1342","4860.252"
"1343","4871.434"
"1344","4913.521"
"1345","4972.943"
"1346","5014.452"
"1347","5003.131"
"1348","4941.133"
"1349","4874.825"
"1350","4852.625"
"1351","4887.715"
"1352","4938.177"
"1353","4957.44"
"1354","4924.091"
"1355","4868.222"
"1356","4826.228"
"1357","4820.694"
"1358","4837.147"
"1359","4854.95"
"1360","4859.851"
"1361","4860.102"
"1362","4868.911"
"1363","4894.671"
"1364","4923.596"
"1365","4935.518"
"1366","4916.084"
"1367","4885.773"
"1368","4877.959"
"1369","4918.787"
"1370","4977.916"
"1371","4998.562"
"1372","4931.92"
"1373","4812.046"
"1374","4721.238"
"1375","4735.494"
"1376","4837.808"
"1377","4944.783"
"1378","4975.76"
"1379","4925.926"
"1380","4856.045"
"1381","4827.077"
"1382","4850.34"
"1383","4885.667"
"1384","4891.354"
"1385","4856.494"
"1386","4808.208"
"1387","4775.665"
"1388","4771.157"
"1389","4782.363"
"1390","4795.096"
"1391","4802.957"
"1392","4812.897"
"1393","4833.126"
"1394","4863.719"
"1395","4888.469"
"1396","4889.26"
"1397","4860.319"
"1398","4824.568"
"1399","4809"
"1400","4826.662"
"1401","4853.121"
"1402","4857.706"
"1403","4824.339"
"1404","4781.97"
"1405","4768.224"
"1406","4806.582"
"1407","4870.791"
"1408","4923.657"
"1409","4937.914"
"1410","4925.808"
"1411","4909.397"
"1412","4905.364"
"1413","4906.422"
"1414","4898.612"
"1415","4872.858"
"1416","4844.204"
"1417","4835.134"
"1418","4861.504"
"1419","4903.091"
"1420","4927.471"
"1421","4909.049"
"1422","4862.807"
"1423","4818.616"
"1424","4802.178"
"1425","4812.264"
"1426","4837.029"
"1427","4865.511"
"1428","4893.017"
"1429","4917.479"
"1430","4937.372"
"1431","4955.037"
"1432","4974.528"
"1433","4999.133"
"1434","5026.208"
"1435","5050.365"
"1436","5066.278"
"1437","5069.22"
"1438","5054.75"
"1439","5020.32"
"1440","4978.88"
"1441","4950.986"
"1442","4953.92"
"1443","4977.039"
"1444","4995.766"
"1445","4989.172"
"1446","4968.121"
"1447","4959.459"
"1448","4985.693"
"1449","5031.55"
"1450","5062.764"
"1451","5049.594"
"1452","5001.457"
"1453","4947.271"
"1454","4913.489"
"1455","4905.058"
"1456","4916.421"
"1457","4940.947"
"1458","4964.151"
"1459","4967.798"
"1460","4936.738"
"1461","4879.563"
"1462","4815.773"
"1463","4762.495"
"1464","4719.128"
"1465","4677.287"
"1466","4630.999"
"1467","4591.023"
"1468","4575.093"
"1469","4596.463"
"1470","4639.697"
"1471","4678.115"
"1472","4689.282"
"1473","4675.985"
"1474","4650.192"
"1475","4624.557"
"1476","4615.306"
"1477","4639.874"
"1478","4707.234"
"1479","4784.874"
"1480","4827.556"
"1481","4802.253"
"1482","4730.033"
"1483","4646.919"
"1484","4584.615"
"1485","4557.669"
"1486","4576.405"
"1487","4641.638"
"1488","4720.931"
"1489","4774.552"
"1490","4775.901"
"1491","4738.795"
"1492","4684.804"
"1493","4633.308"
"1494","4597.764"
"1495","4590.613"
"1496","4612.104"
"1497","4634.087"
"1498","4624.516"
"1499","4573.888"
"1500","4518.015"
"1501","4497.833"
"1502","4526.929"
"1503","4571.691"
"1504","4594.223"
"1505","4578.987"
"1506","4543.407"
"1507","4507.401"
"1508","4484.9"
"1509","4482.343"
"1510","4505.083"
"1511","4542.898"
"1512","4569.116"
"1513","4558.16"
"1514","4520.047"
"1515","4496.254"
"1516","4525.419"
"1517","4591.053"
"1518","4636.226"
"1519","4609.524"
"1520","4528.463"
"1521","4452.089"
"1522","4432.627"
"1523","4461.533"
"1524","4500.604"
"1525","4515.819"
"1526","4501.09"
"1527","4461.199"
"1528","4404.059"
"1529","4352.754"
"1530","4335.032"
"1531","4367.631"
"1532","4425.627"
"1533","4474.244"
"1534","4490.064"
"1535","4482.728"
"1536","4467.824"
"1537","4456.009"
"1538","4446.91"
"1539","4438.657"
"1540","4428.412"
"1541","4411.69"
"1542","4384.125"
"1543","4353.005"
"1544","4341.028"
"1545","4370.677"
"1546","4433.834"
"1547","4491.324"
"1548","4505.275"
"1549","4478.829"
"1550","4446.838"
"1551","4441.504"
"1552","4459.491"
"1553","4476.803"
"1554","4473.161"
"1555","4456.338"
"1556","4446.146"
"1557","4456.087"
"1558","4468.07"
"1559","4454.212"
"1560","4399.55"
"1561","4334.409"
"1562","4298.996"
"1563","4314.007"
"1564","4351.847"
"1565","4377.752"
"1566","4374.651"
"1567","4356.692"
"1568","4340.973"
"1569","4335.508"
"1570","4336.826"
"1571","4340.637"
"1572","4341.248"
"1573","4331.691"
"1574","4306.606"
"1575","4279.8"
"1576","4277.393"
"1577","4319.158"
"1578","4376.625"
"1579","4399.831"
"1580","4353.256"
"1581","4271.518"
"1582","4210.314"
"1583","4207.048"
"1584","4241.075"
"1585","4280.328"
"1586","4302.628"
"1587","4306.656"
"1588","4293.895"
"1589","4273.897"
"1590","4267.658"
"1591","4295.854"
"1592","4352.878"
"1593","4407.805"
"1594","4431.089"
"1595","4421.734"
"1596","4397.22"
"1597","4373.371"
"1598","4352.245"
"1599","4330.057"
"1600","4303.771"
"1601","4273.65"
"1602","4240.853"
"1603","4209.043"
"1604","4188.588"
"1605","4190.798"
"1606","4213.132"
"1607","4229.527"
"1608","4213.036"
"1609","4175.873"
"1610","4173.167"
"1611","4255.82"
"1612","4389.468"
"1613","4479.621"
"1614","4447.085"
"1615","4333.891"
"1616","4235.708"
"1617","4225.086"
"1618","4274.717"
"1619","4330.718"
"1620","4356.163"
"1621","4357.047"
"1622","4345.998"
"1623","4332.812"
"1624","4322.924"
"1625","4321.138"
"1626","4326.671"
"1627","4333.426"
"1628","4335.602"
"1629","4332.72"
"1630","4327.385"
"1631","4321.978"
"1632","4317.372"
"1633","4313.929"
"1634","4311.287"
"1635","4306.832"
"1636","4297.602"
"1637","4288.88"
"1638","4300.743"
"1639","4353.404"
"1640","4430.331"
"1641","4475.883"
"1642","4439.003"
"1643","4342.29"
"1644","4254.697"
"1645","4234.426"
"1646","4272.982"
"1647","4337.989"
"1648","4399.203"
"1649","4433.234"
"1650","4418.278"
"1651","4356.9"
"1652","4293.776"
"1653","4276.209"
"1654","4314.837"
"1655","4384.007"
"1656","4456.281"
"1657","4502.466"
"1658","4492.342"
"1659","4409.609"
"1660","4305.847"
"1661","4253.245"
"1662","4288.419"
"1663","4357.576"
"1664","4393.774"
"1665","4377.791"
"1666","4356.313"
"1667","4376.923"
"1668","4427.829"
"1669","4451.771"
"1670","4402.408"
"1671","4315.025"
"1672","4258.548"
"1673","4274.259"
"1674","4310.717"
"1675","4297.693"
"1676","4213.389"
"1677","4119.395"
"1678","4082.807"
"1679","4114.125"
"1680","4171.602"
"1681","4215.203"
"1682","4235.32"
"1683","4237.17"
"1684","4225.196"
"1685","4200.447"
"1686","4163.209"
"1687","4119.733"
"1688","4087.648"
"1689","4084.834"
"1690","4105.371"
"1691","4119.752"
"1692","4102.244"
"1693","4068.587"
"1694","4055.672"
"1695","4087.346"
"1696","4135.527"
"1697","4159.581"
"1698","4142.603"
"1699","4112.273"
"1700","4100.208"
"1701","4116.507"
"1702","4150.881"
"1703","4191.395"
"1704","4219.711"
"1705","4214.446"
"1706","4166.575"
"1707","4110.314"
"1708","4088.919"
"1709","4114.678"
"1710","4149.035"
"1711","4150.97"
"1712","4117.002"
"1713","4073.998"
"1714","4046.209"
"1715","4035.832"
"1716","4036.573"
"1717","4044.844"
"1718","4064.511"
"1719","4100.396"
"1720","4145.329"
"1721","4176.788"
"1722","4173.938"
"1723","4145.627"
"1724","4118.928"
"1725","4116.809"
"1726","4142.821"
"1727","4195.043"
"1728","4255.313"
"1729","4274.295"
"1730","4202.854"
"1731","4064.684"
"1732","3948.773"
"1733","3931.546"
"1734","3989.311"
"1735","4057.457"
"1736","4089.487"
"1737","4089.307"
"1738","4069.49"
"1739","4044.681"
"1740","4032.059"
"1741","4046.432"
"1742","4078.089"
"1743","4103.653"
"1744","4106.4"
"1745","4095.121"
"1746","4084.451"
"1747","4080.749"
"1748","4077.318"
"1749","4066.886"
"1750","4049.823"
"1751","4031.878"
"1752","4018.5"
"1753","4013.105"
"1754","4018.498"
"1755","4035.552"
"1756","4061.444"
"1757","4092.361"
"1758","4115.035"
"1759","4108.32"
"1760","4058.427"
"1761","3994.374"
"1762","3960.062"
"1763","3979.264"
"1764","4031.709"
"1765","4091.352"
"1766","4133.877"
"1767","4136.558"
"1768","4084.956"
"1769","4015.833"
"1770","3985.493"
"1771","4021.991"
"1772","4087.215"
"1773","4134.826"
"1774","4146.369"
"1775","4130.248"
"1776","4096.413"
"1777","4057.579"
"1778","4027.554"
"1779","4013.85"
"1780","4009.234"
"1781","4004.714"
"1782","3998.854"
"1783","3997.366"
"1784","4003.243"
"1785","4001.259"
"1786","3969.434"
"1787","3907.908"
"1788","3865.355"
"1789","3893.203"
"1790","3973.859"
"1791","4029.488"
"1792","3999.974"
"1793","3932.308"
"1794","3909.101"
"1795","3963.797"
"1796","4034.809"
"1797","4054.027"
"1798","4018.348"
"1799","3973.905"
"1800","3959.421"
"1801","3974.626"
"1802","4008.291"
"1803","4045.464"
"1804","4065.274"
"1805","4049.071"
"1806","4008.893"
"1807","3975.743"
"1808","3970.01"
"1809","3974.131"
"1810","3962.866"
"1811","3931.941"
"1812","3903.344"
"1813","3895.877"
"1814","3890.255"
"1815","3849.335"
"1816","3765.07"
"1817","3703.415"
"1818","3737.421"
"1819","3847.495"
"1820","3928.217"
"1821","3898.787"
"1822","3827.249"
"1823","3830.03"
"1824","3941.552"
"1825","4051.567"
"1826","4046.493"
"1827","3947.86"
"1828","3864.201"
"1829","3873.679"
"1830","3944.923"
"1831","4023.458"
"1832","4067.039"
"1833","4047.803"
"1834","3950.012"
"1835","3834.626"
"1836","3794.145"
"1837","3867.524"
"1838","3980.448"
"1839","4048.9"
"1840","4057.32"
"1841","4040.834"
"1842","4026.66"
"1843","4006.664"
"1844","3964.573"
"1845","3899.397"
"1846","3829.431"
"1847","3775.111"
"1848","3762.954"
"1849","3821.954"
"1850","3948.108"
"1851","4067.278"
"1852","4101.952"
"1853","4053.441"
"1854","3979.958"
"1855","3929.704"
"1856","3909.711"
"1857","3917.525"
"1858","3944.546"
"1859","3975.08"
"1860","3995.633"
"1861","4008.782"
"1862","4023.058"
"1863","4035.635"
"1864","4023.166"
"1865","3965.407"
"1866","3897.683"
"1867","3888.484"
"1868","3967.299"
"1869","4052.122"
"1870","4046.843"
"1871","3962.904"
"1872","3908.21"
"1873","3961.615"
"1874","4058.262"
"1875","4095.562"
"1876","4047.028"
"1877","3985.778"
"1878","3979.415"
"1879","4011.802"
"1880","4032.407"
"1881","4014.62"
"1882","3977.018"
"1883","3941.323"
"1884","3909.85"
"1885","3873.461"
"1886","3836.277"
"1887","3838.091"
"1888","3919.965"
"1889","4046.428"
"1890","4119.697"
"1891","4072.891"
"1892","3962.133"
"1893","3871.036"
"1894","3845.3"
"1895","3889.425"
"1896","3993.861"
"1897","4087.642"
"1898","4081.691"
"1899","3970.576"
"1900","3867.271"
"1901","3873.914"
"1902","3953.603"
"1903","4011.072"
"1904","3998.734"
"1905","3955.744"
"1906","3926.514"
"1907","3918.991"
"1908","3921.553"
"1909","3925.422"
"1910","3928.733"
"1911","3930.533"
"1912","3929.515"
"1913","3924.13"
"1914","3911.836"
"1915","3887.373"
"1916","3846.786"
"1917","3813.974"
"1918","3834.891"
"1919","3927.565"
"1920","4014.363"
"1921","4002.562"
"1922","3901.763"
"1923","3815.817"
"1924","3822.456"
"1925","3882.172"
"1926","3928.158"
"1927","3933.088"
"1928","3910.917"
"1929","3879.375"
"1930","3864.181"
"1931","3891.869"
"1932","3943.499"
"1933","3947.458"
"1934","3855.101"
"1935","3747.382"
"1936","3742.853"
"1937","3858.047"
"1938","3981.613"
"1939","4015.891"
"1940","3981.824"
"1941","3939.219"
"1942","3914.424"
"1943","3889.428"
"1944","3850.472"
"1945","3825.059"
"1946","3854.127"
"1947","3931.183"
"1948","3985.069"
"1949","3955.616"
"1950","3873.723"
"1951","3802.111"
"1952","3768.589"
"1953","3752.988"
"1954","3738.132"
"1955","3743.986"
"1956","3802.507"
"1957","3894.255"
"1958","3930.619"
"1959","3844.371"
"1960","3714.154"
"1961","3666.488"
"1962","3738.461"
"1963","3851.745"
"1964","3929.932"
"1965","3947.222"
"1966","3894.989"
"1967","3795.501"
"1968","3708.276"
"1969","3684.288"
"1970","3722.829"
"1971","3807.493"
"1972","3909.915"
"1973","3988.57"
"1974","4007.545"
"1975","3957.952"
"1976","3840.047"
"1977","3700.194"
"1978","3630.147"
"1979","3685.87"
"1980","3785.408"
"1981","3821.051"
"1982","3789.463"
"1983","3776.837"
"1984","3834.575"
"1985","3897.81"
"1986","3885.172"
"1987","3797.896"
"1988","3697.488"
"1989","3636.563"
"1990","3641.284"
"1991","3727.076"
"1992","3838.162"
"1993","3875.954"
"1994","3799.658"
"1995","3688.792"
"1996","3628.68"
"1997","3629.151"
"1998","3663.323"
"1999","3706.833"
"2000","3739.927"
"2001","3745.469"
"2002","3720.267"
"2003","3666.916"
"2004","3606.822"
"2005","3585.42"
"2006","3634.723"
"2007","3717.642"
"2008","3778.72"
"2009","3796.001"
"2010","3780.427"
"2011","3743.173"
"2012","3691.483"
"2013","3631.322"
"2014","3561.701"
"2015","3476.588"
"2016","3390.1"
"2017","3364.656"
"2018","3457.08"
"2019","3607.162"
"2020","3692.929"
"2021","3666.133"
"2022","3605.021"
"2023","3588.333"
"2024","3621.983"
"2025","3684.423"
"2026","3744.788"
"2027","3761.142"
"2028","3709.592"
"2029","3641.275"
"2030","3622.384"
"2031","3654.44"
"2032","3685.37"
"2033","3681.061"
"2034","3658.678"
"2035","3641.912"
"2036","3637.385"
"2037","3642.186"
"2038","3649.58"
"2039","3646.543"
"2040","3621.49"
"2041","3574.926"
"2042","3512.441"
"2043","3460.508"
"2044","3468.702"
"2045","3562.748"
"2046","3680.645"
"2047","3745.448"
"2048","3738.638"
"2049","3683.052"
"2050","3606.602"
"2051","3545.868"
"2052","3531.844"
"2053","3546.851"
"2054","3552.703"
"2055","3537.541"
"2056","3523.511"
"2057","3526.833"
"2058","3530.728"
"2059","3512.22"
"2060","3480.858"
"2061","3471.453"
"2062","3501.111"
"2063","3545.205"
"2064","3576.572"
"2065","3592.685"
"2066","3602.157"
"2067","3612.734"
"2068","3630.947"
"2069","3657.254"
"2070","3668.453"
"2071","3637.957"
"2072","3575.347"
"2073","3517.115"
"2074","3484.403"
"2075","3464.587"
"2076","3445.915"
"2077","3450.916"
"2078","3514.329"
"2079","3615.396"
"2080","3669.51"
"2081","3627.95"
"2082","3573.346"
"2083","3605.138"
"2084","3704.263"
"2085","3778.392"
"2086","3778.161"
"2087","3729.161"
"2088","3665.609"
"2089","3628.078"
"2090","3656.486"
"2091","3738.213"
"2092","3814.042"
"2093","3844.561"
"2094","3842.452"
"2095","3824.522"
"2096","3780.812"
"2097","3690.794"
"2098","3581.481"
"2099","3537.06"
"2100","3599.043"
"2101","3655.361"
"2102","3579.34"
"2103","3429.25"
"2104","3372.065"
"2105","3466.356"
"2106","3599.537"
"2107","3667.468"
"2108","3669.215"
"2109","3631.526"
"2110","3574.046"
"2111","3511.142"
"2112","3458.013"
"2113","3431.609"
"2114","3442.769"
"2115","3467.577"
"2116","3472.51"
"2117","3467.331"
"2118","3500.413"
"2119","3586.06"
"2120","3657.398"
"2121","3650.676"
"2122","3597.293"
"2123","3564.757"
"2124","3574.054"
"2125","3598.679"
"2126","3614.789"
"2127","3611.169"
"2128","3581.849"
"2129","3544.759"
"2130","3527.264"
"2131","3522.485"
"2132","3485.601"
"2133","3403.708"
"2134","3358.679"
"2135","3427.083"
"2136","3514.018"
"2137","3449.842"
"2138","3246.969"
"2139","3127.502"
"2140","3226.596"
"2141","3396.354"
"2142","3460.957"
"2143","3424.873"
"2144","3376.604"
"2145","3368.177"
"2146","3409.42"
"2147","3493.455"
"2148","3573.253"
"2149","3603.384"
"2150","3603.722"
"2151","3621.378"
"2152","3639.512"
"2153","3572.317"
"2154","3398.862"
"2155","3274.628"
"2156","3348.624"
"2157","3532.688"
"2158","3645.283"
"2159","3618.028"
"2160","3493.43"
"2161","3337.481"
"2162","3258.741"
"2163","3339.937"
"2164","3478.103"
"2165","3511.937"
"2166","3430.104"
"2167","3347.531"
"2168","3322.784"
"2169","3298.032"
"2170","3229.947"
"2171","3206.633"
"2172","3340.783"
"2173","3557.354"
"2174","3652.176"
"2175","3549.926"
"2176","3380.466"
"2177","3267.178"
"2178","3242.711"
"2179","3311.677"
"2180","3409.695"
"2181","3436.923"
"2182","3381.067"
"2183","3336.414"
"2184","3356.634"
"2185","3366.468"
"2186","3289.155"
"2187","3184.894"
"2188","3164.639"
"2189","3234.587"
"2190","3306.225"
"2191","3324.853"
"2192","3309.192"
"2193","3289.294"
"2194","3307.547"
"2195","3402.725"
"2196","3529.172"
"2197","3588.31"
"2198","3552.311"
"2199","3491.563"
"2200","3455.498"
"2201","3408.521"
"2202","3307.886"
"2203","3174.319"
"2204","3055.999"
"2205","2998.052"
"2206","3042.267"
"2207","3179.458"
"2208","3301.916"
"2209","3323.031"
"2210","3297.946"
"2211","3311.405"
"2212","3354.927"
"2213","3366.297"
"2214","3339.418"
"2215","3337.614"
"2216","3387.138"
"2217","3408.23"
"2218","3327.076"
"2219","3201.492"
"2220","3130.956"
"2221","3137.633"
"2222","3185.771"
"2223","3229.743"
"2224","3211.303"
"2225","3116.232"
"2226","3072.533"
"2227","3200.984"
"2228","3372.808"
"2229","3364.948"
"2230","3186.969"
"2231","3049.188"
"2232","3058.045"
"2233","3129.55"
"2234","3189.074"
"2235","3263.363"
"2236","3386.099"
"2237","3467.247"
"2238","3367.359"
"2239","3137.592"
"2240","3006.263"
"2241","3079.059"
"2242","3225.171"
"2243","3315.258"
"2244","3321"
"2245","3244.937"
"2246","3148.901"
"2247","3120.074"
"2248","3174.068"
"2249","3259.305"
"2250","3322.744"
"2251","3313.596"
"2252","3214.649"
"2253","3128.736"
"2254","3165.344"
"2255","3277.987"
"2256","3353.134"
"2257","3355.564"
"2258","3318.58"
"2259","3271.413"
"2260","3232.797"
"2261","3207.409"
"2262","3158.18"
"2263","3050.265"
"2264","2917.751"
"2265","2819.692"
"2266","2776.687"
"2267","2779.834"
"2268","2801.147"
"2269","2787.273"
"2270","2713.774"
"2271","2636.747"
"2272","2607.591"
"2273","2585.903"
"2274","2507.294"
"2275","2367.538"
"2276","2200.968"
"2277","2095.893"
"2278","2198.24"
"2279","2505.277"
"2280","2711.511"
"2281","2593.001"
"2282","2373.778"
"2283","2337.824"
"2284","2420.505"
"2285","2409.859"
"2286","2257.903"
"2287","2050.848"
"2288","1887.924"
"2289","1881.063"
"2290","2058.594"
"2291","2229.08"
"2292","2212.52"
"2293","2060.23"
"2294","1889.807"
"2295","1775.248"
"2296","1762.451"
"2297","1809.989"
"2298","1792.788"
"2299","1670.006"
"2300","1549.005"
