,"Scan 00892"
"400","8207.129"
"401","8202.476"
"402","8205.256"
"403","8207.088"
"404","8199.646"
"405","8176.291"
"406","8144.396"
"407","8118.397"
"408","8112.682"
"409","8140.121"
"410","8195.149"
"411","8259.413"
"412","8314.429"
"413","8342.542"
"414","8340.549"
"415","8318.697"
"416","8287.684"
"417","8258.012"
"418","8236.293"
"419","8224.346"
"420","8223.688"
"421","8235.764"
"422","8258.027"
"423","8281.518"
"424","8296.747"
"425","8294.334"
"426","8270.821"
"427","8235.075"
"428","8197.439"
"429","8168.187"
"430","8154.742"
"431","8156.987"
"432","8173.549"
"433","8203.067"
"434","8242.472"
"435","8282.789"
"436","8313.817"
"437","8325.429"
"438","8310.862"
"439","8277.886"
"440","8238.182"
"441","8203.354"
"442","8183.232"
"443","8178.275"
"444","8185.771"
"445","8203.021"
"446","8226.936"
"447","8251.603"
"448","8269.983"
"449","8275.083"
"450","8261.133"
"451","8232.175"
"452","8197.061"
"453","8164.609"
"454","8142.787"
"455","8131.45"
"456","8125.806"
"457","8121.031"
"458","8112.829"
"459","8102.869"
"460","8096.751"
"461","8100.115"
"462","8117.805"
"463","8143.707"
"464","8163.539"
"465","8162.907"
"466","8128.696"
"467","8068.052"
"468","8004.98"
"469","7963.851"
"470","7967.62"
"471","8013.982"
"472","8077.528"
"473","8132.146"
"474","8152.802"
"475","8135.523"
"476","8097.202"
"477","8055.531"
"478","8027.709"
"479","8021.031"
"480","8032.306"
"481","8057.849"
"482","8093.82"
"483","8131.257"
"484","8155.462"
"485","8151.523"
"486","8105.235"
"487","8021.551"
"488","7927.687"
"489","7851.955"
"490","7821.736"
"491","7839.31"
"492","7877.065"
"493","7905.787"
"494","7897.068"
"495","7843.772"
"496","7764.412"
"497","7678.926"
"498","7606.799"
"499","7556.138"
"500","7521.357"
"501","7496.087"
"502","7474.091"
"503","7452.352"
"504","7431.662"
"505","7413.029"
"506","7397.37"
"507","7382.814"
"508","7364.291"
"509","7336.569"
"510","7294.686"
"511","7240.219"
"512","7181.985"
"513","7129.122"
"514","7090.425"
"515","7067.135"
"516","7052.598"
"517","7039.817"
"518","7022.157"
"519","7000.192"
"520","6981.536"
"521","6974.056"
"522","6984.988"
"523","7010.114"
"524","7034.905"
"525","7044.535"
"526","7025.254"
"527","6979.878"
"528","6924.784"
"529","6876.667"
"530","6851.084"
"531","6848.794"
"532","6859.687"
"533","6873.444"
"534","6880.374"
"535","6877.45"
"536","6865.998"
"537","6847.408"
"538","6823.081"
"539","6794.57"
"540","6763.523"
"541","6731.577"
"542","6700.496"
"543","6673.159"
"544","6652.981"
"545","6643.361"
"546","6646.793"
"547","6659.827"
"548","6676.597"
"549","6691.26"
"550","6698.855"
"551","6699.11"
"552","6693.325"
"553","6682.8"
"554","6668.829"
"555","6652.692"
"556","6635.668"
"557","6619.028"
"558","6604.023"
"559","6591.848"
"560","6583.683"
"561","6580.704"
"562","6583.411"
"563","6590.464"
"564","6600.214"
"565","6611.021"
"566","6621.012"
"567","6627.81"
"568","6628.98"
"569","6622.12"
"570","6606.208"
"571","6582.529"
"572","6552.591"
"573","6517.959"
"574","6483.072"
"575","6456.099"
"576","6445.42"
"577","6458.969"
"578","6495.107"
"579","6542.645"
"580","6590.021"
"581","6626.222"
"582","6647.619"
"583","6656.177"
"584","6653.996"
"585","6643.445"
"586","6629.623"
"587","6619.168"
"588","6618.71"
"589","6633.061"
"590","6654.995"
"591","6672.35"
"592","6672.999"
"593","6648.11"
"594","6604.044"
"595","6551.551"
"596","6501.333"
"597","6462.218"
"598","6437.088"
"599","6427.629"
"600","6435.505"
"601","6459.614"
"602","6492.728"
"603","6526.819"
"604","6553.935"
"605","6568.25"
"606","6567.207"
"607","6548.533"
"608","6510.307"
"609","6459.628"
"610","6413.209"
"611","6388.167"
"612","6399.992"
"613","6442.174"
"614","6492.085"
"615","6526.811"
"616","6526.578"
"617","6497.034"
"618","6456.334"
"619","6422.655"
"620","6410.209"
"621","6413.16"
"622","6419.293"
"623","6416.438"
"624","6396.875"
"625","6367.041"
"626","6336.179"
"627","6313.472"
"628","6304.254"
"629","6306.138"
"630","6315.814"
"631","6329.975"
"632","6344.84"
"633","6356.007"
"634","6359.057"
"635","6349.981"
"636","6331.503"
"637","6311.89"
"638","6299.548"
"639","6301.729"
"640","6315.738"
"641","6333.755"
"642","6347.938"
"643","6351.942"
"644","6346.734"
"645","6335.541"
"646","6321.584"
"647","6308.261"
"648","6299.513"
"649","6299.36"
"650","6311.754"
"651","6336.094"
"652","6364.085"
"653","6386.719"
"654","6395.326"
"655","6388.756"
"656","6373.466"
"657","6356.236"
"658","6343.401"
"659","6336.766"
"660","6335.413"
"661","6338.386"
"662","6344.434"
"663","6350.68"
"664","6353.688"
"665","6350.042"
"666","6338.167"
"667","6321.943"
"668","6306.255"
"669","6295.938"
"670","6293.664"
"671","6298.546"
"672","6309.375"
"673","6324.893"
"674","6342.801"
"675","6359.827"
"676","6372.676"
"677","6378.502"
"678","6378.399"
"679","6375.5"
"680","6372.947"
"681","6372.494"
"682","6369.841"
"683","6359.045"
"684","6334.212"
"685","6295.669"
"686","6257.671"
"687","6236.327"
"688","6247.194"
"689","6288.998"
"690","6340.37"
"691","6378.81"
"692","6383.984"
"693","6360.051"
"694","6326.863"
"695","6304.484"
"696","6308.104"
"697","6327.503"
"698","6344.176"
"699","6339.681"
"700","6305.675"
"701","6259.339"
"702","6221.795"
"703","6213.717"
"704","6240.562"
"705","6288.304"
"706","6341.679"
"707","6386.192"
"708","6416.307"
"709","6432.377"
"710","6434.858"
"711","6424.842"
"712","6406.706"
"713","6385.867"
"714","6367.723"
"715","6355.394"
"716","6346.623"
"717","6338.385"
"718","6327.798"
"719","6316.199"
"720","6309.773"
"721","6314.965"
"722","6336.974"
"723","6368.98"
"724","6397.399"
"725","6408.597"
"726","6393.41"
"727","6360.957"
"728","6325.027"
"729","6299.317"
"730","6291.043"
"731","6295.533"
"732","6306.854"
"733","6319.249"
"734","6330.051"
"735","6339.271"
"736","6347.012"
"737","6353.405"
"738","6358.785"
"739","6363.572"
"740","6368.178"
"741","6372.986"
"742","6378.289"
"743","6384.359"
"744","6391.441"
"745","6398.705"
"746","6404.028"
"747","6405.211"
"748","6400.601"
"749","6393.679"
"750","6390.74"
"751","6398.096"
"752","6419.15"
"753","6446.667"
"754","6470.993"
"755","6482.598"
"756","6478.525"
"757","6465.898"
"758","6452.681"
"759","6446.271"
"760","6447.067"
"761","6450.731"
"762","6452.842"
"763","6450.071"
"764","6443.96"
"765","6437.405"
"766","6433.289"
"767","6433.867"
"768","6440.29"
"769","6453.581"
"770","6474.523"
"771","6500.257"
"772","6525.168"
"773","6543.581"
"774","6551.142"
"775","6549.963"
"776","6544.126"
"777","6537.715"
"778","6535.244"
"779","6542.037"
"780","6563.507"
"781","6604.255"
"782","6656.807"
"783","6704.361"
"784","6729.89"
"785","6720.992"
"786","6687.567"
"787","6646.239"
"788","6613.545"
"789","6599.729"
"790","6603.765"
"791","6623.456"
"792","6656.275"
"793","6695.127"
"794","6729.647"
"795","6749.398"
"796","6747.041"
"797","6728.489"
"798","6703.216"
"799","6680.648"
"800","6667.449"
"801","6665.973"
"802","6678.197"
"803","6705.525"
"804","6743.167"
"805","6782.559"
"806","6815.086"
"807","6833.766"
"808","6837.236"
"809","6825.344"
"810","6798.092"
"811","6760.825"
"812","6725.583"
"813","6704.824"
"814","6708.857"
"815","6731.238"
"816","6757.637"
"817","6773.708"
"818","6770.689"
"819","6753.974"
"820","6731.158"
"821","6709.693"
"822","6694.24"
"823","6686.884"
"824","6689.614"
"825","6703.24"
"826","6722.433"
"827","6739.859"
"828","6748.255"
"829","6745.64"
"830","6739.115"
"831","6736.677"
"832","6745.587"
"833","6765.064"
"834","6789.334"
"835","6812.558"
"836","6829.22"
"837","6834.859"
"838","6825.217"
"839","6796.395"
"840","6753.813"
"841","6713.074"
"842","6690.291"
"843","6698.063"
"844","6727.852"
"845","6763.23"
"846","6787.853"
"847","6794.607"
"848","6793.528"
"849","6796.521"
"850","6814.472"
"851","6846.638"
"852","6884.869"
"853","6920.893"
"854","6948.023"
"855","6964.569"
"856","6969.821"
"857","6963.194"
"858","6947.097"
"859","6926.997"
"860","6908.498"
"861","6896.128"
"862","6888.724"
"863","6883.245"
"864","6876.687"
"865","6868.386"
"866","6861.391"
"867","6859.075"
"868","6864.329"
"869","6875.833"
"870","6890.087"
"871","6903.583"
"872","6915.328"
"873","6930.377"
"874","6954.67"
"875","6993.575"
"876","7044.006"
"877","7096.421"
"878","7141.123"
"879","7169.96"
"880","7180.367"
"881","7171.023"
"882","7140.926"
"883","7097.347"
"884","7056.467"
"885","7034.901"
"886","7045.001"
"887","7076.826"
"888","7113.167"
"889","7137.02"
"890","7141.857"
"891","7136.538"
"892","7131.141"
"893","7134.587"
"894","7147.187"
"895","7165.39"
"896","7185.634"
"897","7204.746"
"898","7220.308"
"899","7229.993"
"900","7231.821"
"901","7227.367"
"902","7220.302"
"903","7214.317"
"904","7211.573"
"905","7210.388"
"906","7208.489"
"907","7203.795"
"908","7196.967"
"909","7190.691"
"910","7187.696"
"911","7190.124"
"912","7198.249"
"913","7211.987"
"914","7231.196"
"915","7254.716"
"916","7280.486"
"917","7306.411"
"918","7329.381"
"919","7342.403"
"920","7337.543"
"921","7307.422"
"922","7258.211"
"923","7210.15"
"924","7184.133"
"925","7195.424"
"926","7233.942"
"927","7282.486"
"928","7324.127"
"929","7350.678"
"930","7364.199"
"931","7367.325"
"932","7362.07"
"933","7347.284"
"934","7320.806"
"935","7280.712"
"936","7233.979"
"937","7198.997"
"938","7194.897"
"939","7234.518"
"940","7295.855"
"941","7344.93"
"942","7348.426"
"943","7302.482"
"944","7243.171"
"945","7209.427"
"946","7231.445"
"947","7288.731"
"948","7342.563"
"949","7354.797"
"950","7315.326"
"951","7253.019"
"952","7199.632"
"953","7181.621"
"954","7194.382"
"955","7222.032"
"956","7248.814"
"957","7265.418"
"958","7271.437"
"959","7267.113"
"960","7253.724"
"961","7238.444"
"962","7230.531"
"963","7239.066"
"964","7265.532"
"965","7301.328"
"966","7337.157"
"967","7364.573"
"968","7379.747"
"969","7380.378"
"970","7364.318"
"971","7334.519"
"972","7300.254"
"973","7271.198"
"974","7254.852"
"975","7248.173"
"976","7244.929"
"977","7239.029"
"978","7228.586"
"979","7216.432"
"980","7205.643"
"981","7198.965"
"982","7197.737"
"983","7202.922"
"984","7215.42"
"985","7234.643"
"986","7258.548"
"987","7285.026"
"988","7311.297"
"989","7332.163"
"990","7341.88"
"991","7335.109"
"992","7313.497"
"993","7284.552"
"994","7255.968"
"995","7234.701"
"996","7225.535"
"997","7232.857"
"998","7260.288"
"999","7301.614"
"1000","7343.793"
"1001","7373.663"
"1002","7382.96"
"1003","7375.013"
"1004","7354.821"
"1005","7327.385"
"1006","7297.778"
"1007","7271.514"
"1008","7254.29"
"1009","7251.667"
"1010","7262.455"
"1011","7275.756"
"1012","7279.92"
"1013","7266.566"
"1014","7245.108"
"1015","7230.991"
"1016","7239.208"
"1017","7270.491"
"1018","7308.806"
"1019","7337.152"
"1020","7343.49"
"1021","7336.785"
"1022","7331.543"
"1023","7341.886"
"1024","7373.986"
"1025","7426.647"
"1026","7498.393"
"1027","7583.625"
"1028","7663.779"
"1029","7717.73"
"1030","7726.161"
"1031","7693.534"
"1032","7640.99"
"1033","7590"
"1034","7554.376"
"1035","7530.531"
"1036","7512.468"
"1037","7495.298"
"1038","7483.57"
"1039","7486.618"
"1040","7513.657"
"1041","7562.721"
"1042","7614.005"
"1043","7646.083"
"1044","7641.923"
"1045","7608.928"
"1046","7562.942"
"1047","7519.612"
"1048","7488.772"
"1049","7473.883"
"1050","7478.081"
"1051","7501.899"
"1052","7536.682"
"1053","7571.743"
"1054","7596.817"
"1055","7607.525"
"1056","7603.755"
"1057","7585.516"
"1058","7557.756"
"1059","7536.223"
"1060","7538.103"
"1061","7576.846"
"1062","7637.768"
"1063","7693.392"
"1064","7716.639"
"1065","7700.996"
"1066","7667.603"
"1067","7639.561"
"1068","7634.211"
"1069","7644.553"
"1070","7657.164"
"1071","7659.246"
"1072","7648.318"
"1073","7630.238"
"1074","7611.107"
"1075","7596.587"
"1076","7591.32"
"1077","7599.803"
"1078","7625.188"
"1079","7660.35"
"1080","7693.425"
"1081","7712.73"
"1082","7714.904"
"1083","7707.372"
"1084","7698.286"
"1085","7693.623"
"1086","7690.997"
"1087","7686.019"
"1088","7674.542"
"1089","7655.666"
"1090","7630.781"
"1091","7601.333"
"1092","7569.102"
"1093","7536.505"
"1094","7506.041"
"1095","7480.686"
"1096","7466.229"
"1097","7469.465"
"1098","7496.546"
"1099","7538.994"
"1100","7573.919"
"1101","7577.826"
"1102","7540.409"
"1103","7486.528"
"1104","7446.855"
"1105","7447.665"
"1106","7479.72"
"1107","7516.605"
"1108","7532.256"
"1109","7517.879"
"1110","7486.409"
"1111","7452.179"
"1112","7427.581"
"1113","7418.411"
"1114","7429.073"
"1115","7462.1"
"1116","7500.854"
"1117","7517.406"
"1118","7484.235"
"1119","7403.704"
"1120","7322.345"
"1121","7290.276"
"1122","7340.067"
"1123","7435.012"
"1124","7521.317"
"1125","7549.564"
"1126","7522.546"
"1127","7477.158"
"1128","7450.558"
"1129","7457.326"
"1130","7476.032"
"1131","7482.008"
"1132","7457.933"
"1133","7417.038"
"1134","7380.504"
"1135","7367.805"
"1136","7377.581"
"1137","7394.605"
"1138","7403.571"
"1139","7400.135"
"1140","7397.274"
"1141","7409.501"
"1142","7445.605"
"1143","7491.585"
"1144","7527.76"
"1145","7536.268"
"1146","7519.455"
"1147","7492.24"
"1148","7469.636"
"1149","7461.375"
"1150","7469.612"
"1151","7495.915"
"1152","7538.697"
"1153","7585.448"
"1154","7621.285"
"1155","7632.503"
"1156","7616.179"
"1157","7575.13"
"1158","7512.538"
"1159","7441.675"
"1160","7387.91"
"1161","7377.325"
"1162","7419.962"
"1163","7481.813"
"1164","7521.342"
"1165","7504.872"
"1166","7452.125"
"1167","7405.021"
"1168","7403.533"
"1169","7446.656"
"1170","7495.539"
"1171","7510.055"
"1172","7474.605"
"1173","7422.888"
"1174","7394.526"
"1175","7418.801"
"1176","7476.553"
"1177","7534.479"
"1178","7561.67"
"1179","7555.88"
"1180","7533.564"
"1181","7511.369"
"1182","7499.373"
"1183","7498.665"
"1184","7509.683"
"1185","7531.983"
"1186","7562.515"
"1187","7597.737"
"1188","7633.833"
"1189","7665.09"
"1190","7685"
"1191","7687.627"
"1192","7677.461"
"1193","7668.058"
"1194","7673.167"
"1195","7696.291"
"1196","7722.855"
"1197","7736.437"
"1198","7725.842"
"1199","7699.586"
"1200","7670.817"
"1201","7651.181"
"1202","7639.541"
"1203","7628.336"
"1204","7610.35"
"1205","7587.396"
"1206","7570.286"
"1207","7570.152"
"1208","7588.617"
"1209","7608.664"
"1210","7611.099"
"1211","7583.272"
"1212","7539.042"
"1213","7498.982"
"1214","7481.739"
"1215","7488.903"
"1216","7513.256"
"1217","7547.38"
"1218","7581.088"
"1219","7601.462"
"1220","7595.58"
"1221","7563.357"
"1222","7528.715"
"1223","7518.225"
"1224","7548.97"
"1225","7603.019"
"1226","7654.344"
"1227","7679.56"
"1228","7675.317"
"1229","7647.407"
"1230","7602.237"
"1231","7555.902"
"1232","7532.731"
"1233","7556.914"
"1234","7628.29"
"1235","7709.282"
"1236","7759.119"
"1237","7751.711"
"1238","7703.002"
"1239","7636.407"
"1240","7574.3"
"1241","7533.225"
"1242","7527.742"
"1243","7570.067"
"1244","7646.198"
"1245","7725.67"
"1246","7778.42"
"1247","7792.975"
"1248","7778.286"
"1249","7744.372"
"1250","7703.407"
"1251","7671.69"
"1252","7665.994"
"1253","7695.805"
"1254","7745.366"
"1255","7793.454"
"1256","7821.5"
"1257","7827.97"
"1258","7818.041"
"1259","7797.029"
"1260","7771.676"
"1261","7749.706"
"1262","7738.65"
"1263","7739.577"
"1264","7746.217"
"1265","7751.919"
"1266","7752.927"
"1267","7750.995"
"1268","7748.49"
"1269","7747.314"
"1270","7747.858"
"1271","7750.194"
"1272","7754.067"
"1273","7757.274"
"1274","7756.93"
"1275","7750.617"
"1276","7740.751"
"1277","7732.591"
"1278","7731.191"
"1279","7736.43"
"1280","7743.298"
"1281","7746.66"
"1282","7745.152"
"1283","7743.046"
"1284","7745.074"
"1285","7753.858"
"1286","7766.939"
"1287","7781.115"
"1288","7792.454"
"1289","7794.172"
"1290","7778.775"
"1291","7741.516"
"1292","7695.516"
"1293","7661.057"
"1294","7656.667"
"1295","7680.885"
"1296","7719.751"
"1297","7759.328"
"1298","7790.493"
"1299","7808.71"
"1300","7809.744"
"1301","7795.524"
"1302","7776.783"
"1303","7764.907"
"1304","7765.622"
"1305","7772.413"
"1306","7777.179"
"1307","7774.299"
"1308","7766.424"
"1309","7757.91"
"1310","7752.646"
"1311","7752.094"
"1312","7756.952"
"1313","7766.967"
"1314","7774.363"
"1315","7767.749"
"1316","7737.049"
"1317","7689.603"
"1318","7644.898"
"1319","7622.064"
"1320","7625.962"
"1321","7647.242"
"1322","7675.962"
"1323","7703.075"
"1324","7720.792"
"1325","7721.454"
"1326","7701.87"
"1327","7667.743"
"1328","7625.848"
"1329","7584.045"
"1330","7553.305"
"1331","7545.151"
"1332","7565.689"
"1333","7598.907"
"1334","7623.149"
"1335","7621.275"
"1336","7602.657"
"1337","7586.266"
"1338","7589.006"
"1339","7610.09"
"1340","7639.849"
"1341","7668.794"
"1342","7690.616"
"1343","7701.167"
"1344","7696.528"
"1345","7676.56"
"1346","7644.539"
"1347","7604.027"
"1348","7563.942"
"1349","7539.572"
"1350","7546.302"
"1351","7581.646"
"1352","7615.174"
"1353","7614.151"
"1354","7566.875"
"1355","7504.713"
"1356","7464.289"
"1357","7464.269"
"1358","7475.107"
"1359","7459.238"
"1360","7396.081"
"1361","7324.862"
"1362","7297.994"
"1363","7352.981"
"1364","7458.641"
"1365","7564.03"
"1366","7625.148"
"1367","7639.718"
"1368","7620.894"
"1369","7581.395"
"1370","7530.275"
"1371","7474.876"
"1372","7422.467"
"1373","7379.616"
"1374","7352.483"
"1375","7346.491"
"1376","7357.21"
"1377","7373.174"
"1378","7383.298"
"1379","7386.154"
"1380","7388.659"
"1381","7397.773"
"1382","7414.501"
"1383","7433.663"
"1384","7449.785"
"1385","7457.108"
"1386","7449.535"
"1387","7421.127"
"1388","7375.713"
"1389","7331.367"
"1390","7307.155"
"1391","7310.722"
"1392","7330.118"
"1393","7351.49"
"1394","7365.732"
"1395","7373.249"
"1396","7375.569"
"1397","7373.212"
"1398","7364.315"
"1399","7346.689"
"1400","7321.218"
"1401","7297.031"
"1402","7284.636"
"1403","7290.814"
"1404","7310.824"
"1405","7337.706"
"1406","7364.624"
"1407","7385.203"
"1408","7393.16"
"1409","7384.965"
"1410","7368.024"
"1411","7352.467"
"1412","7345.896"
"1413","7344.648"
"1414","7341.939"
"1415","7333.638"
"1416","7328.766"
"1417","7340.402"
"1418","7376.518"
"1419","7417.309"
"1420","7433.572"
"1421","7404.308"
"1422","7357.199"
"1423","7337.793"
"1424","7381.939"
"1425","7463.05"
"1426","7529.925"
"1427","7539.739"
"1428","7507.694"
"1429","7473.322"
"1430","7471.929"
"1431","7507.243"
"1432","7569.044"
"1433","7646.185"
"1434","7721.002"
"1435","7772.813"
"1436","7784.557"
"1437","7768.21"
"1438","7749.628"
"1439","7751.632"
"1440","7771.264"
"1441","7792.936"
"1442","7803.118"
"1443","7806.357"
"1444","7816.21"
"1445","7842.938"
"1446","7868.347"
"1447","7859.944"
"1448","7791.738"
"1449","7693.791"
"1450","7624.327"
"1451","7632.843"
"1452","7693.778"
"1453","7744.2"
"1454","7730.055"
"1455","7672.475"
"1456","7629.366"
"1457","7649.456"
"1458","7706.466"
"1459","7738.397"
"1460","7693.014"
"1461","7594.326"
"1462","7501.383"
"1463","7464.585"
"1464","7470.106"
"1465","7475.887"
"1466","7446.866"
"1467","7396.703"
"1468","7359.366"
"1469","7361.212"
"1470","7379.658"
"1471","7372.943"
"1472","7309.805"
"1473","7221.111"
"1474","7160.367"
"1475","7168.431"
"1476","7217.614"
"1477","7257.219"
"1478","7246.437"
"1479","7193.23"
"1480","7120.49"
"1481","7049.911"
"1482","6997.827"
"1483","6979.101"
"1484","7000.978"
"1485","7040.575"
"1486","7067.559"
"1487","7061.439"
"1488","7036.21"
"1489","7013.411"
"1490","7008.261"
"1491","7016.504"
"1492","7030.154"
"1493","7041.287"
"1494","7042.157"
"1495","7025.075"
"1496","6990.323"
"1497","6956.744"
"1498","6945.748"
"1499","6966.78"
"1500","7005.23"
"1501","7043.637"
"1502","7068.205"
"1503","7071.47"
"1504","7046.79"
"1505","6997.898"
"1506","6943.818"
"1507","6904.522"
"1508","6889.22"
"1509","6893.656"
"1510","6912.625"
"1511","6938.635"
"1512","6961.764"
"1513","6972.275"
"1514","6966.101"
"1515","6944.188"
"1516","6908.339"
"1517","6869.828"
"1518","6846.875"
"1519","6855.399"
"1520","6884.988"
"1521","6909.363"
"1522","6905.635"
"1523","6880.508"
"1524","6855.135"
"1525","6847.458"
"1526","6854.383"
"1527","6864.619"
"1528","6868.849"
"1529","6867.533"
"1530","6864.13"
"1531","6861.143"
"1532","6857.46"
"1533","6851.124"
"1534","6841.184"
"1535","6829.648"
"1536","6819.063"
"1537","6813.216"
"1538","6818.642"
"1539","6842.145"
"1540","6881.108"
"1541","6916.751"
"1542","6929.054"
"1543","6913.244"
"1544","6884.704"
"1545","6859.749"
"1546","6843.578"
"1547","6830.106"
"1548","6813.248"
"1549","6794.493"
"1550","6781.194"
"1551","6780.527"
"1552","6796.223"
"1553","6830.015"
"1554","6881.537"
"1555","6935.832"
"1556","6971.668"
"1557","6973.781"
"1558","6956.657"
"1559","6944.005"
"1560","6950.633"
"1561","6960.123"
"1562","6949.257"
"1563","6909.843"
"1564","6870.888"
"1565","6866.805"
"1566","6908.329"
"1567","6964.42"
"1568","7000.3"
"1569","7001.772"
"1570","6980.677"
"1571","6950.297"
"1572","6919.429"
"1573","6892.792"
"1574","6874.566"
"1575","6864.311"
"1576","6858.627"
"1577","6854.749"
"1578","6854.945"
"1579","6863.732"
"1580","6883.543"
"1581","6906.715"
"1582","6922.56"
"1583","6924.565"
"1584","6919.489"
"1585","6916.7"
"1586","6922.405"
"1587","6936.147"
"1588","6956.562"
"1589","6978.971"
"1590","6993.992"
"1591","6992.373"
"1592","6975.628"
"1593","6955.64"
"1594","6943.582"
"1595","6937.326"
"1596","6926.119"
"1597","6901.726"
"1598","6874.403"
"1599","6862.259"
"1600","6877.618"
"1601","6907.797"
"1602","6933.405"
"1603","6942.915"
"1604","6945.83"
"1605","6955.01"
"1606","6972.877"
"1607","6984.131"
"1608","6972.699"
"1609","6949.081"
"1610","6952.894"
"1611","7020.554"
"1612","7126.214"
"1613","7200.113"
"1614","7183.647"
"1615","7106.583"
"1616","7037.799"
"1617","7028.911"
"1618","7056.994"
"1619","7079.302"
"1620","7068.473"
"1621","7036.098"
"1622","6999.773"
"1623","6973.463"
"1624","6965.528"
"1625","6983.185"
"1626","7019.415"
"1627","7053.645"
"1628","7066.912"
"1629","7062.37"
"1630","7056.045"
"1631","7061.662"
"1632","7079.252"
"1633","7104.154"
"1634","7129.527"
"1635","7141.826"
"1636","7126.364"
"1637","7085.267"
"1638","7050.814"
"1639","7057.105"
"1640","7102.958"
"1641","7149.651"
"1642","7160.559"
"1643","7143.813"
"1644","7135.69"
"1645","7164.189"
"1646","7206.719"
"1647","7222.565"
"1648","7189.358"
"1649","7141.933"
"1650","7125.936"
"1651","7159.626"
"1652","7213.909"
"1653","7255.865"
"1654","7273.444"
"1655","7275.269"
"1656","7269.814"
"1657","7255.533"
"1658","7225.249"
"1659","7174.919"
"1660","7116.108"
"1661","7065.114"
"1662","7031.302"
"1663","7006.38"
"1664","6979.415"
"1665","6944.972"
"1666","6905.229"
"1667","6863.211"
"1668","6826.239"
"1669","6804.929"
"1670","6806.848"
"1671","6818.495"
"1672","6817.663"
"1673","6791.115"
"1674","6755.633"
"1675","6734.14"
"1676","6737.718"
"1677","6757.078"
"1678","6781.073"
"1679","6802.123"
"1680","6815.936"
"1681","6818.609"
"1682","6808.506"
"1683","6785.087"
"1684","6751.251"
"1685","6723.133"
"1686","6719.947"
"1687","6744.879"
"1688","6770.515"
"1689","6766.789"
"1690","6722.687"
"1691","6646.068"
"1692","6548.048"
"1693","6460.642"
"1694","6426.552"
"1695","6469.925"
"1696","6541.697"
"1697","6575.148"
"1698","6543.369"
"1699","6494.255"
"1700","6482.044"
"1701","6519.426"
"1702","6579.718"
"1703","6635.953"
"1704","6671.514"
"1705","6674.638"
"1706","6643.206"
"1707","6608.649"
"1708","6609.361"
"1709","6654.96"
"1710","6707.837"
"1711","6727.765"
"1712","6704.08"
"1713","6650.022"
"1714","6581.275"
"1715","6524.296"
"1716","6509.709"
"1717","6548.274"
"1718","6596.269"
"1719","6601.8"
"1720","6556.408"
"1721","6507.273"
"1722","6500.284"
"1723","6526.863"
"1724","6545.005"
"1725","6524.532"
"1726","6489.666"
"1727","6479.443"
"1728","6511.363"
"1729","6561.482"
"1730","6601.735"
"1731","6615.986"
"1732","6598.791"
"1733","6549.01"
"1734","6491.718"
"1735","6462.719"
"1736","6482.972"
"1737","6532.4"
"1738","6584.274"
"1739","6624.924"
"1740","6656.708"
"1741","6681.446"
"1742","6686.516"
"1743","6651.242"
"1744","6568.585"
"1745","6482.797"
"1746","6449.604"
"1747","6487.581"
"1748","6556.698"
"1749","6613.67"
"1750","6641.206"
"1751","6640.293"
"1752","6613.704"
"1753","6570.835"
"1754","6523.055"
"1755","6480.201"
"1756","6449.181"
"1757","6436.273"
"1758","6442.613"
"1759","6465.043"
"1760","6498.088"
"1761","6524.056"
"1762","6521.039"
"1763","6483.364"
"1764","6440.83"
"1765","6426.676"
"1766","6448.194"
"1767","6488.706"
"1768","6530.9"
"1769","6559.375"
"1770","6559.467"
"1771","6528.995"
"1772","6494.926"
"1773","6486.67"
"1774","6495.546"
"1775","6476.16"
"1776","6395.173"
"1777","6305.776"
"1778","6294.972"
"1779","6400.301"
"1780","6543.281"
"1781","6631.923"
"1782","6641.679"
"1783","6611.755"
"1784","6580.212"
"1785","6562.476"
"1786","6565.455"
"1787","6583.915"
"1788","6586.05"
"1789","6538.791"
"1790","6451.57"
"1791","6370.913"
"1792","6337.697"
"1793","6355.113"
"1794","6413.598"
"1795","6489.477"
"1796","6531.94"
"1797","6492.159"
"1798","6397.041"
"1799","6330.891"
"1800","6355.579"
"1801","6425.583"
"1802","6465.93"
"1803","6445.188"
"1804","6401.64"
"1805","6377.078"
"1806","6382.196"
"1807","6408.516"
"1808","6446.459"
"1809","6483.72"
"1810","6507.633"
"1811","6514.957"
"1812","6514.261"
"1813","6513.381"
"1814","6508.468"
"1815","6490.19"
"1816","6454.544"
"1817","6411.112"
"1818","6371.257"
"1819","6339.05"
"1820","6311.822"
"1821","6289.139"
"1822","6283.821"
"1823","6312.84"
"1824","6371.433"
"1825","6416.541"
"1826","6406.019"
"1827","6354.727"
"1828","6314.234"
"1829","6320.753"
"1830","6355.55"
"1831","6388.783"
"1832","6412.065"
"1833","6442.183"
"1834","6491.932"
"1835","6537.281"
"1836","6539.056"
"1837","6481.227"
"1838","6396.759"
"1839","6323.555"
"1840","6280.352"
"1841","6271.713"
"1842","6297.745"
"1843","6342.645"
"1844","6386.595"
"1845","6405.475"
"1846","6369.752"
"1847","6261.714"
"1848","6150.231"
"1849","6141.305"
"1850","6269.863"
"1851","6419.358"
"1852","6462.722"
"1853","6397.472"
"1854","6311.057"
"1855","6272.945"
"1856","6279.762"
"1857","6311.47"
"1858","6341.929"
"1859","6337.97"
"1860","6277.227"
"1861","6206.152"
"1862","6196.769"
"1863","6269.528"
"1864","6351.606"
"1865","6367.683"
"1866","6320.823"
"1867","6260.846"
"1868","6224.941"
"1869","6212.636"
"1870","6216.878"
"1871","6230.769"
"1872","6247.545"
"1873","6261.847"
"1874","6274.521"
"1875","6288.039"
"1876","6301.562"
"1877","6309.931"
"1878","6309.375"
"1879","6307.544"
"1880","6316.739"
"1881","6340.15"
"1882","6363.837"
"1883","6372.334"
"1884","6354.333"
"1885","6300.995"
"1886","6220.663"
"1887","6167.25"
"1888","6197.478"
"1889","6289.226"
"1890","6356.18"
"1891","6337.024"
"1892","6271.464"
"1893","6221.422"
"1894","6208.495"
"1895","6210.465"
"1896","6209.301"
"1897","6219.99"
"1898","6267.415"
"1899","6342.538"
"1900","6388.337"
"1901","6356.735"
"1902","6287.689"
"1903","6257.955"
"1904","6295.771"
"1905","6341.307"
"1906","6333.673"
"1907","6288.648"
"1908","6263.135"
"1909","6286.069"
"1910","6321.983"
"1911","6330.216"
"1912","6315.611"
"1913","6313.096"
"1914","6338.623"
"1915","6353.714"
"1916","6314.9"
"1917","6248.949"
"1918","6238.232"
"1919","6329.101"
"1920","6441.809"
"1921","6474.302"
"1922","6409.959"
"1923","6310.838"
"1924","6231.712"
"1925","6186.587"
"1926","6178.729"
"1927","6191.759"
"1928","6188.761"
"1929","6146.642"
"1930","6108.861"
"1931","6135.54"
"1932","6222.983"
"1933","6293.548"
"1934","6285.605"
"1935","6238.631"
"1936","6222.057"
"1937","6250.924"
"1938","6272.059"
"1939","6240.693"
"1940","6181.046"
"1941","6139.988"
"1942","6144.914"
"1943","6197.388"
"1944","6290.102"
"1945","6375.831"
"1946","6394.451"
"1947","6338.928"
"1948","6274.619"
"1949","6259.424"
"1950","6277.302"
"1951","6286.47"
"1952","6276.064"
"1953","6277.674"
"1954","6316.243"
"1955","6360.768"
"1956","6361.541"
"1957","6319.94"
"1958","6306.12"
"1959","6374.058"
"1960","6460.956"
"1961","6466.155"
"1962","6378.21"
"1963","6300.752"
"1964","6319.261"
"1965","6384.538"
"1966","6406.12"
"1967","6369.419"
"1968","6351.413"
"1969","6408.96"
"1970","6477.253"
"1971","6458.906"
"1972","6353.911"
"1973","6269.637"
"1974","6288.392"
"1975","6362.873"
"1976","6413.998"
"1977","6416.801"
"1978","6399.584"
"1979","6387.779"
"1980","6387.917"
"1981","6401.25"
"1982","6411.304"
"1983","6386.401"
"1984","6315.456"
"1985","6252.29"
"1986","6258.295"
"1987","6325.363"
"1988","6394.687"
"1989","6428.027"
"1990","6442.573"
"1991","6461.52"
"1992","6479.226"
"1993","6472.721"
"1994","6437.602"
"1995","6408.168"
"1996","6418.31"
"1997","6458.946"
"1998","6500.141"
"1999","6520.13"
"2000","6510.832"
"2001","6468.368"
"2002","6407.11"
"2003","6348.439"
"2004","6315.256"
"2005","6332.345"
"2006","6409.395"
"2007","6486.342"
"2008","6486.811"
"2009","6419.237"
"2010","6375.336"
"2011","6412.499"
"2012","6461.509"
"2013","6435.144"
"2014","6365.536"
"2015","6372.412"
"2016","6498.77"
"2017","6599.187"
"2018","6526.284"
"2019","6369.993"
"2020","6345.104"
"2021","6495.175"
"2022","6570.545"
"2023","6378.422"
"2024","6245.12"
"2025","6672.912"
"2026","7548.618"
"2027","8021.662"
"2028","7495.496"
"2029","6569.914"
"2030","6102.281"
"2031","6225.542"
"2032","6472.203"
"2033","6515.458"
"2034","6444.72"
"2035","6403.552"
"2036","6410.634"
"2037","6415.506"
"2038","6397.069"
"2039","6385.48"
"2040","6405.66"
"2041","6423.192"
"2042","6384.839"
"2043","6307.034"
"2044","6283.394"
"2045","6367.422"
"2046","6458.066"
"2047","6431.263"
"2048","6308.975"
"2049","6216.226"
"2050","6219.307"
"2051","6255.635"
"2052","6255.738"
"2053","6218.914"
"2054","6174.355"
"2055","6151.77"
"2056","6181.328"
"2057","6272.835"
"2058","6354.05"
"2059","6338.981"
"2060","6249.825"
"2061","6192.814"
"2062","6215.678"
"2063","6228.348"
"2064","6143.15"
"2065","6034.256"
"2066","6045.771"
"2067","6179.068"
"2068","6249.111"
"2069","6130.229"
"2070","5982.109"
"2071","6017.037"
"2072","6185.608"
"2073","6243.913"
"2074","6087.188"
"2075","5913.608"
"2076","5921.138"
"2077","6047.393"
"2078","6126.917"
"2079","6097.014"
"2080","6013.591"
"2081","5933.347"
"2082","5893.257"
"2083","5920.217"
"2084","5973.13"
"2085","5969.189"
"2086","5880.651"
"2087","5774.373"
"2088","5715.825"
"2089","5715.873"
"2090","5767.219"
"2091","5844.426"
"2092","5905.982"
"2093","5925.842"
"2094","5916.923"
"2095","5898.059"
"2096","5888.788"
"2097","5908.234"
"2098","5949.4"
"2099","5973.896"
"2100","5955.433"
"2101","5914.443"
"2102","5879.165"
"2103","5857.113"
"2104","5843.422"
"2105","5830.754"
"2106","5808.202"
"2107","5770.075"
"2108","5734.939"
"2109","5726.265"
"2110","5741.78"
"2111","5759.931"
"2112","5760.733"
"2113","5728.251"
"2114","5659.713"
"2115","5621.806"
"2116","5698.073"
"2117","5839.874"
"2118","5880.607"
"2119","5749.451"
"2120","5604.846"
"2121","5606.055"
"2122","5706.876"
"2123","5782.173"
"2124","5782.421"
"2125","5735.345"
"2126","5670.6"
"2127","5613.644"
"2128","5586.325"
"2129","5588.195"
"2130","5608.957"
"2131","5639.827"
"2132","5673.752"
"2133","5690.103"
"2134","5630.369"
"2135","5451.272"
"2136","5280.748"
"2137","5320.244"
"2138","5552.999"
"2139","5711.025"
"2140","5627.65"
"2141","5467.257"
"2142","5427.372"
"2143","5498.904"
"2144","5576.71"
"2145","5605.529"
"2146","5587.633"
"2147","5536.565"
"2148","5488.48"
"2149","5476.303"
"2150","5478.453"
"2151","5450.278"
"2152","5392.113"
"2153","5352.914"
"2154","5362.589"
"2155","5395.436"
"2156","5420.036"
"2157","5426.864"
"2158","5415.283"
"2159","5381.632"
"2160","5319.364"
"2161","5242.814"
"2162","5214.06"
"2163","5281.2"
"2164","5372.101"
"2165","5377.057"
"2166","5287.171"
"2167","5178.6"
"2168","5108.856"
"2169","5094.119"
"2170","5134.521"
"2171","5176.381"
"2172","5156.062"
"2173","5089.211"
"2174","5046.349"
"2175","5065.449"
"2176","5131.875"
"2177","5219.088"
"2178","5273.892"
"2179","5245.697"
"2180","5168.174"
"2181","5119.648"
"2182","5121.178"
"2183","5123.815"
"2184","5094.367"
"2185","5054.485"
"2186","5031.036"
"2187","5023.333"
"2188","5019.253"
"2189","5003.513"
"2190","4958.12"
"2191","4882.847"
"2192","4812.531"
"2193","4779.629"
"2194","4786.425"
"2195","4824.709"
"2196","4864.498"
"2197","4862.637"
"2198","4816.875"
"2199","4781.301"
"2200","4786.124"
"2201","4776.987"
"2202","4699.492"
"2203","4613.016"
"2204","4620.476"
"2205","4705.25"
"2206","4740.723"
"2207","4676.247"
"2208","4616.682"
"2209","4657.509"
"2210","4775.013"
"2211","4910.606"
"2212","4979.889"
"2213","4886.711"
"2214","4663.77"
"2215","4501.329"
"2216","4507.581"
"2217","4554.864"
"2218","4508.683"
"2219","4411.516"
"2220","4362.579"
"2221","4369.736"
"2222","4373.455"
"2223","4360.463"
"2224","4389.522"
"2225","4483.786"
"2226","4535.301"
"2227","4437.929"
"2228","4281.489"
"2229","4231.28"
"2230","4296.473"
"2231","4351.45"
"2232","4336.549"
"2233","4313.393"
"2234","4333.243"
"2235","4367"
"2236","4370.617"
"2237","4324.711"
"2238","4222.861"
"2239","4086.191"
"2240","3961.415"
"2241","3886.373"
"2242","3880.721"
"2243","3946.463"
"2244","4026.752"
"2245","4058.22"
"2246","4037.708"
"2247","3990.325"
"2248","3924.818"
"2249","3834.71"
"2250","3736.567"
"2251","3689.196"
"2252","3728.6"
"2253","3792.62"
"2254","3806.252"
"2255","3765.704"
"2256","3699.054"
"2257","3623.065"
"2258","3544.527"
"2259","3471.654"
"2260","3415.491"
"2261","3387.58"
"2262","3400.043"
"2263","3455.687"
"2264","3496.172"
"2265","3446.564"
"2266","3347.825"
"2267","3325.825"
"2268","3382.861"
"2269","3347.018"
"2270","3135.813"
"2271","2934.114"
"2272","2916.534"
"2273","2980.269"
"2274","2948.845"
"2275","2814.027"
"2276","2668.92"
"2277","2582.347"
"2278","2594.461"
"2279","2700.859"
"2280","2811.059"
"2281","2840.502"
"2282","2767.068"
"2283","2591.442"
"2284","2374.515"
"2285","2202.29"
"2286","2123.713"
"2287","2156.483"
"2288","2266.68"
"2289","2347.643"
"2290","2325.508"
"2291","2226.828"
"2292","2094.698"
"2293","1973.94"
"2294","1906.379"
"2295","1898.115"
"2296","1934.09"
"2297","1971.808"
"2298","1942.832"
"2299","1820.998"
"2300","1653.479"
