,"Scan 00911"
"400","7677.528"
"401","7664.392"
"402","7650.916"
"403","7637.742"
"404","7625.509"
"405","7614.797"
"406","7605.696"
"407","7598.05"
"408","7591.71"
"409","7586.49"
"410","7581.84"
"411","7576.958"
"412","7571.036"
"413","7563.379"
"414","7555.398"
"415","7550.461"
"416","7551.99"
"417","7563.253"
"418","7582.959"
"419","7604.213"
"420","7619.818"
"421","7622.697"
"422","7610.356"
"423","7587.654"
"424","7560.08"
"425","7533.084"
"426","7512.007"
"427","7502.013"
"428","7508.207"
"429","7535.65"
"430","7584.399"
"431","7641.06"
"432","7690.076"
"433","7716.005"
"434","7709.435"
"435","7681.548"
"436","7647.886"
"437","7623.887"
"438","7620.558"
"439","7629.857"
"440","7638.593"
"441","7633.669"
"442","7605.566"
"443","7563.985"
"444","7525.083"
"445","7504.915"
"446","7516.133"
"447","7548.992"
"448","7584.562"
"449","7604.005"
"450","7591.223"
"451","7551.787"
"452","7501.892"
"453","7457.703"
"454","7433.61"
"455","7427.169"
"456","7426.28"
"457","7418.806"
"458","7393.896"
"459","7355.422"
"460","7316.967"
"461","7292.191"
"462","7293.598"
"463","7318.013"
"464","7350.575"
"465","7376.228"
"466","7380.751"
"467","7362.552"
"468","7330.549"
"469","7293.934"
"470","7261.558"
"471","7236.724"
"472","7217.656"
"473","7202.401"
"474","7189.09"
"475","7177.467"
"476","7168.888"
"477","7164.765"
"478","7166.442"
"479","7173.672"
"480","7184.525"
"481","7196.999"
"482","7209.119"
"483","7219.437"
"484","7227.07"
"485","7231.18"
"486","7230.945"
"487","7226.024"
"488","7216.631"
"489","7203.011"
"490","7185.383"
"491","7163.174"
"492","7134.863"
"493","7098.883"
"494","7053.782"
"495","7001.648"
"496","6948.848"
"497","6901.961"
"498","6867.392"
"499","6846.664"
"500","6835.443"
"501","6829.065"
"502","6822.862"
"503","6811.142"
"504","6787.003"
"505","6743.501"
"506","6674.157"
"507","6585.37"
"508","6498.396"
"509","6435.196"
"510","6416.879"
"511","6443.873"
"512","6493.753"
"513","6543.024"
"514","6568.894"
"515","6563.14"
"516","6532.779"
"517","6485.511"
"518","6429.116"
"519","6374.186"
"520","6334.049"
"521","6322.081"
"522","6350.462"
"523","6409.641"
"524","6470.493"
"525","6503.346"
"526","6480.521"
"527","6404.949"
"528","6304.622"
"529","6208.121"
"530","6142.444"
"531","6114.194"
"532","6114.995"
"533","6136.164"
"534","6168.987"
"535","6203.883"
"536","6230.73"
"537","6239.444"
"538","6221.313"
"539","6180.628"
"540","6129.032"
"541","6078.192"
"542","6038.986"
"543","6016.309"
"544","6012.146"
"545","6028.448"
"546","6065.416"
"547","6111.573"
"548","6150.718"
"549","6166.711"
"550","6147.45"
"551","6102.429"
"552","6048.392"
"553","6002.008"
"554","5976.61"
"555","5971.157"
"556","5980.696"
"557","6000.297"
"558","6024.758"
"559","6047.878"
"560","6063.265"
"561","6064.563"
"562","6049.836"
"563","6029.264"
"564","6015.037"
"565","6019.254"
"566","6046.515"
"567","6085.357"
"568","6122.282"
"569","6143.949"
"570","6144.473"
"571","6130.41"
"572","6109.49"
"573","6089.276"
"574","6072.454"
"575","6055.377"
"576","6033.988"
"577","6004.559"
"578","5970.563"
"579","5942.665"
"580","5931.794"
"581","5947.747"
"582","5984.268"
"583","6022.943"
"584","6045.129"
"585","6034.778"
"586","6000.57"
"587","5965.15"
"588","5951.229"
"589","5976.959"
"590","6030.358"
"591","6087.081"
"592","6122.845"
"593","6119.671"
"594","6088.61"
"595","6049.113"
"596","6020.542"
"597","6015.965"
"598","6028.374"
"599","6046.765"
"600","6060.204"
"601","6061.699"
"602","6052.94"
"603","6036.774"
"604","6016.023"
"605","5992.453"
"606","5966.227"
"607","5937.368"
"608","5906.052"
"609","5876.426"
"610","5856.872"
"611","5855.944"
"612","5881.181"
"613","5926.263"
"614","5974.722"
"615","6009.916"
"616","6017.53"
"617","6002.082"
"618","5977.35"
"619","5957.131"
"620","5952.055"
"621","5956.73"
"622","5960.671"
"623","5953.425"
"624","5928.676"
"625","5893.25"
"626","5856.575"
"627","5828.018"
"628","5813.482"
"629","5811.921"
"630","5821.45"
"631","5840.16"
"632","5864.763"
"633","5890.189"
"634","5911.272"
"635","5923.168"
"636","5926.251"
"637","5925.188"
"638","5924.758"
"639","5929.061"
"640","5936.328"
"641","5941.765"
"642","5940.567"
"643","5929.367"
"644","5911.873"
"645","5893.975"
"646","5881.546"
"647","5878.868"
"648","5885.713"
"649","5901.046"
"650","5923.81"
"651","5950.668"
"652","5974.43"
"653","5987.555"
"654","5982.892"
"655","5961.963"
"656","5935.091"
"657","5912.954"
"658","5905.226"
"659","5911.18"
"660","5923.833"
"661","5936.137"
"662","5942.115"
"663","5941.632"
"664","5936.547"
"665","5928.719"
"666","5920.25"
"667","5913.987"
"668","5912.909"
"669","5919.938"
"670","5934.717"
"671","5951.494"
"672","5964.036"
"673","5966.396"
"674","5958.183"
"675","5944.177"
"676","5929.343"
"677","5918.329"
"678","5913.109"
"679","5914.266"
"680","5922.371"
"681","5937.414"
"682","5956.882"
"683","5977.578"
"684","5996.324"
"685","6011.558"
"686","6025.346"
"687","6040.233"
"688","6058.61"
"689","6077.87"
"690","6089.439"
"691","6084.415"
"692","6055.327"
"693","6011.042"
"694","5970.891"
"695","5954.336"
"696","5975.865"
"697","6024.036"
"698","6078.948"
"699","6120.768"
"700","6136.778"
"701","6132.25"
"702","6115.236"
"703","6093.757"
"704","6075.066"
"705","6065.448"
"706","6071.111"
"707","6097.112"
"708","6134.931"
"709","6167.112"
"710","6176.083"
"711","6149.106"
"712","6098.15"
"713","6043.057"
"714","6003.604"
"715","5991.688"
"716","6000.616"
"717","6021.03"
"718","6043.724"
"719","6063.571"
"720","6080.135"
"721","6093.239"
"722","6102.63"
"723","6107.326"
"724","6105.931"
"725","6097.046"
"726","6080.818"
"727","6063.726"
"728","6053.865"
"729","6059.253"
"730","6082"
"731","6113.376"
"732","6143.506"
"733","6162.857"
"734","6167.805"
"735","6159.86"
"736","6140.703"
"737","6112.853"
"738","6084.325"
"739","6065.321"
"740","6066.018"
"741","6090.019"
"742","6123.151"
"743","6148.276"
"744","6148.785"
"745","6124.652"
"746","6095.896"
"747","6083.711"
"748","6106.533"
"749","6157.107"
"750","6214.083"
"751","6255.994"
"752","6267.344"
"753","6254.39"
"754","6228.354"
"755","6200.417"
"756","6180.183"
"757","6174.849"
"758","6191.394"
"759","6235.514"
"760","6296.995"
"761","6354.845"
"762","6387.899"
"763","6381.441"
"764","6349.44"
"765","6313.854"
"766","6296.483"
"767","6307.74"
"768","6337.845"
"769","6374.944"
"770","6407.703"
"771","6432.103"
"772","6449.673"
"773","6462.08"
"774","6471.111"
"775","6479.172"
"776","6488.855"
"777","6502.728"
"778","6521.516"
"779","6542.492"
"780","6562.557"
"781","6578.645"
"782","6588.251"
"783","6589.296"
"784","6579.718"
"785","6559.346"
"786","6537.166"
"787","6524.918"
"788","6534.228"
"789","6566.933"
"790","6607.334"
"791","6637.931"
"792","6642.78"
"793","6626.893"
"794","6610.352"
"795","6613.544"
"796","6649.695"
"797","6701.225"
"798","6742.291"
"799","6747.396"
"800","6711.026"
"801","6658.942"
"802","6619.607"
"803","6618.85"
"804","6654.228"
"805","6706.052"
"806","6754.399"
"807","6783.164"
"808","6789.405"
"809","6773.02"
"810","6734.152"
"811","6681.552"
"812","6634.767"
"813","6614.011"
"814","6635.852"
"815","6688.408"
"816","6746.417"
"817","6784.584"
"818","6788.707"
"819","6772.681"
"820","6754.778"
"821","6752.379"
"822","6765.339"
"823","6777.352"
"824","6771.522"
"825","6736.125"
"826","6686.471"
"827","6646.665"
"828","6640.604"
"829","6675.335"
"830","6728.951"
"831","6776.685"
"832","6796.149"
"833","6790.921"
"834","6780.686"
"835","6785.352"
"836","6816.618"
"837","6859.729"
"838","6894.614"
"839","6901.852"
"840","6879.138"
"841","6842.854"
"842","6810.322"
"843","6796.313"
"844","6800.293"
"845","6816.011"
"846","6837.222"
"847","6858.899"
"848","6878.284"
"849","6892.865"
"850","6900.544"
"851","6903.916"
"852","6908.57"
"853","6920.146"
"854","6940.834"
"855","6961.967"
"856","6972.74"
"857","6962.907"
"858","6935.544"
"859","6907.357"
"860","6895.657"
"861","6913.521"
"862","6951.564"
"863","6993.002"
"864","7021.201"
"865","7029.204"
"866","7025.364"
"867","7019.383"
"868","7019.956"
"869","7026.969"
"870","7035.75"
"871","7041.594"
"872","7042.119"
"873","7040.522"
"874","7040.819"
"875","7046.721"
"876","7057.47"
"877","7068.899"
"878","7076.754"
"879","7078.831"
"880","7080.29"
"881","7087.945"
"882","7108.308"
"883","7140.015"
"884","7173.223"
"885","7197.665"
"886","7205.463"
"887","7201.175"
"888","7193.415"
"889","7190.724"
"890","7197.815"
"891","7213.773"
"892","7237.236"
"893","7266.355"
"894","7295.656"
"895","7318.044"
"896","7326.463"
"897","7319.358"
"898","7305.89"
"899","7296.459"
"900","7300.481"
"901","7317.312"
"902","7340.401"
"903","7363.129"
"904","7380.572"
"905","7392.062"
"906","7397.588"
"907","7397.325"
"908","7393.943"
"909","7391.964"
"910","7395.949"
"911","7409.199"
"912","7431.048"
"913","7460.045"
"914","7494.581"
"915","7530.12"
"916","7559.518"
"917","7575.538"
"918","7572.616"
"919","7551.633"
"920","7515.001"
"921","7465.435"
"922","7412.792"
"923","7374.367"
"924","7367.79"
"925","7404.639"
"926","7469.205"
"927","7538.119"
"928","7588.445"
"929","7611.013"
"930","7612.785"
"931","7601.642"
"932","7584.98"
"933","7567.708"
"934","7553.947"
"935","7547.758"
"936","7550.846"
"937","7561.893"
"938","7579.39"
"939","7600.883"
"940","7618.775"
"941","7623.685"
"942","7606.521"
"943","7570.644"
"944","7536.295"
"945","7524.932"
"946","7552.619"
"947","7604.194"
"948","7653.257"
"949","7673.762"
"950","7656.699"
"951","7616.751"
"952","7570.352"
"953","7532.353"
"954","7508.311"
"955","7500.415"
"956","7510.75"
"957","7537.053"
"958","7571.06"
"959","7604.064"
"960","7628.226"
"961","7640.665"
"962","7640.257"
"963","7626.007"
"964","7602.38"
"965","7581.092"
"966","7574.362"
"967","7590.977"
"968","7621.374"
"969","7649.86"
"970","7661.047"
"971","7650.405"
"972","7626.846"
"973","7600.125"
"974","7578.992"
"975","7567.353"
"976","7567.631"
"977","7582.065"
"978","7607.363"
"979","7634.035"
"980","7652.266"
"981","7655.237"
"982","7648.906"
"983","7642.623"
"984","7645.371"
"985","7657.744"
"986","7672.09"
"987","7680.398"
"988","7677.058"
"989","7665.088"
"990","7649.452"
"991","7635.149"
"992","7627.886"
"993","7633.95"
"994","7659.643"
"995","7706.727"
"996","7763.54"
"997","7815.944"
"998","7850.469"
"999","7862.256"
"1000","7852.422"
"1001","7822.217"
"1002","7776.639"
"1003","7729.527"
"1004","7696.003"
"1005","7691.198"
"1006","7726.07"
"1007","7783.484"
"1008","7834.73"
"1009","7851.478"
"1010","7826.647"
"1011","7783.669"
"1012","7748.347"
"1013","7742.349"
"1014","7764.823"
"1015","7807.303"
"1016","7861.229"
"1017","7915.444"
"1018","7955.73"
"1019","7967.691"
"1020","7943.386"
"1021","7902.149"
"1022","7870.529"
"1023","7873.902"
"1024","7913.8"
"1025","7969.661"
"1026","8020.08"
"1027","8049.7"
"1028","8062.254"
"1029","8065.215"
"1030","8065.623"
"1031","8064.675"
"1032","8059.479"
"1033","8047.076"
"1034","8028.942"
"1035","8016.626"
"1036","8023.079"
"1037","8058.919"
"1038","8114.883"
"1039","8171.612"
"1040","8209.812"
"1041","8220.109"
"1042","8209.002"
"1043","8184.415"
"1044","8153.896"
"1045","8122.921"
"1046","8096.245"
"1047","8078.667"
"1048","8076.134"
"1049","8095.847"
"1050","8145.07"
"1051","8224.157"
"1052","8309.058"
"1053","8370.328"
"1054","8380.901"
"1055","8346.552"
"1056","8296.887"
"1057","8262.006"
"1058","8259.311"
"1059","8278.412"
"1060","8305.231"
"1061","8327.268"
"1062","8343.944"
"1063","8360.089"
"1064","8380.42"
"1065","8403.281"
"1066","8418.451"
"1067","8415.103"
"1068","8387.343"
"1069","8350.154"
"1070","8324.031"
"1071","8328.124"
"1072","8359.784"
"1073","8398.727"
"1074","8424.187"
"1075","8424.651"
"1076","8410.213"
"1077","8394.053"
"1078","8387.65"
"1079","8389.509"
"1080","8392.154"
"1081","8388.222"
"1082","8376.11"
"1083","8361.691"
"1084","8351.343"
"1085","8351.222"
"1086","8366.638"
"1087","8402.712"
"1088","8463.09"
"1089","8532.071"
"1090","8580.236"
"1091","8578.049"
"1092","8518.938"
"1093","8440.585"
"1094","8385.75"
"1095","8388.496"
"1096","8432.39"
"1097","8482.825"
"1098","8506.222"
"1099","8492.978"
"1100","8457.134"
"1101","8413.738"
"1102","8377.441"
"1103","8361.816"
"1104","8380.273"
"1105","8442.014"
"1106","8522.318"
"1107","8580.06"
"1108","8575.042"
"1109","8505.882"
"1110","8420.01"
"1111","8368.003"
"1112","8382.854"
"1113","8437.837"
"1114","8493.545"
"1115","8514.108"
"1116","8500.255"
"1117","8474.226"
"1118","8458.314"
"1119","8462.424"
"1120","8478.138"
"1121","8495.558"
"1122","8505.922"
"1123","8504.953"
"1124","8489.477"
"1125","8457.518"
"1126","8421.28"
"1127","8402.229"
"1128","8421.675"
"1129","8478.949"
"1130","8538.361"
"1131","8561.064"
"1132","8521.617"
"1133","8450.356"
"1134","8392.123"
"1135","8388.124"
"1136","8435.017"
"1137","8499.826"
"1138","8549.289"
"1139","8567.502"
"1140","8565.969"
"1141","8558.619"
"1142","8555.642"
"1143","8552.349"
"1144","8540.342"
"1145","8512.68"
"1146","8478.53"
"1147","8457.085"
"1148","8467.325"
"1149","8509.962"
"1150","8559.501"
"1151","8588.402"
"1152","8579.261"
"1153","8549.76"
"1154","8525.175"
"1155","8527.728"
"1156","8551.759"
"1157","8576.76"
"1158","8582.692"
"1159","8569.726"
"1160","8562.265"
"1161","8586.138"
"1162","8651.823"
"1163","8727.624"
"1164","8774.646"
"1165","8761.562"
"1166","8708.521"
"1167","8657.068"
"1168","8646.995"
"1169","8681.041"
"1170","8727.722"
"1171","8754.368"
"1172","8745.355"
"1173","8719.322"
"1174","8699.019"
"1175","8701.897"
"1176","8720.592"
"1177","8740.488"
"1178","8748.23"
"1179","8745.515"
"1180","8743.858"
"1181","8754.782"
"1182","8782.054"
"1183","8818.824"
"1184","8857.471"
"1185","8890.393"
"1186","8910.066"
"1187","8908.976"
"1188","8881.979"
"1189","8840.154"
"1190","8801.337"
"1191","8782.662"
"1192","8787.828"
"1193","8808.867"
"1194","8837.424"
"1195","8866.234"
"1196","8889.96"
"1197","8903.45"
"1198","8903.555"
"1199","8894.642"
"1200","8882.847"
"1201","8874.041"
"1202","8871.798"
"1203","8878.534"
"1204","8896.441"
"1205","8922.561"
"1206","8948.812"
"1207","8966.907"
"1208","8971.934"
"1209","8965.594"
"1210","8950.353"
"1211","8929.293"
"1212","8907.958"
"1213","8892.519"
"1214","8888.423"
"1215","8894.745"
"1216","8907.269"
"1217","8921.816"
"1218","8935.859"
"1219","8948.492"
"1220","8958.887"
"1221","8966.022"
"1222","8968.554"
"1223","8965.097"
"1224","8955.878"
"1225","8947.056"
"1226","8946.16"
"1227","8959.567"
"1228","8984.866"
"1229","9015.633"
"1230","9045.592"
"1231","9071.452"
"1232","9092.457"
"1233","9107.949"
"1234","9118.42"
"1235","9126.139"
"1236","9133.517"
"1237","9141.192"
"1238","9144.737"
"1239","9138.809"
"1240","9120.132"
"1241","9096.79"
"1242","9080.776"
"1243","9082.98"
"1244","9101.886"
"1245","9128.19"
"1246","9152.611"
"1247","9170.033"
"1248","9179.923"
"1249","9182.016"
"1250","9180.86"
"1251","9190.227"
"1252","9224.939"
"1253","9290.976"
"1254","9363.7"
"1255","9411.847"
"1256","9410.124"
"1257","9371.608"
"1258","9324.489"
"1259","9295.151"
"1260","9286.619"
"1261","9286.017"
"1262","9280.561"
"1263","9269.491"
"1264","9265.732"
"1265","9282.879"
"1266","9325.078"
"1267","9378.546"
"1268","9427.479"
"1269","9459.475"
"1270","9473.235"
"1271","9469.711"
"1272","9450.279"
"1273","9418.681"
"1274","9379.501"
"1275","9337.859"
"1276","9304.319"
"1277","9292.649"
"1278","9315.561"
"1279","9362.687"
"1280","9401.879"
"1281","9400.566"
"1282","9351.181"
"1283","9283.562"
"1284","9230.601"
"1285","9213.121"
"1286","9222.972"
"1287","9247.741"
"1288","9276.232"
"1289","9302.073"
"1290","9320.069"
"1291","9326.245"
"1292","9324.562"
"1293","9322.155"
"1294","9325.72"
"1295","9336.787"
"1296","9353.667"
"1297","9374.531"
"1298","9395.548"
"1299","9411.01"
"1300","9415.207"
"1301","9406.89"
"1302","9391.156"
"1303","9373.597"
"1304","9357.761"
"1305","9342.818"
"1306","9327.368"
"1307","9312.946"
"1308","9310.83"
"1309","9334.32"
"1310","9390.367"
"1311","9453.371"
"1312","9487.324"
"1313","9462.355"
"1314","9397.832"
"1315","9336.746"
"1316","9319.146"
"1317","9344.604"
"1318","9384.441"
"1319","9410.415"
"1320","9417.721"
"1321","9424.896"
"1322","9451.085"
"1323","9496.156"
"1324","9532.853"
"1325","9532.021"
"1326","9484.584"
"1327","9421.443"
"1328","9378.252"
"1329","9376.766"
"1330","9399.296"
"1331","9421.184"
"1332","9424.559"
"1333","9419.256"
"1334","9422.174"
"1335","9445.912"
"1336","9477.886"
"1337","9496.369"
"1338","9483.291"
"1339","9451.573"
"1340","9429.712"
"1341","9443.751"
"1342","9487.53"
"1343","9532.988"
"1344","9552.743"
"1345","9541.165"
"1346","9512.311"
"1347","9480.762"
"1348","9454.821"
"1349","9435.299"
"1350","9422.569"
"1351","9417.496"
"1352","9421.703"
"1353","9436.859"
"1354","9461.675"
"1355","9488.816"
"1356","9510.2"
"1357","9521.172"
"1358","9526.255"
"1359","9531.505"
"1360","9539.26"
"1361","9538.762"
"1362","9516.369"
"1363","9465.437"
"1364","9411.509"
"1365","9389.4"
"1366","9425.7"
"1367","9497.714"
"1368","9564.507"
"1369","9589.598"
"1370","9571.623"
"1371","9525.651"
"1372","9466.981"
"1373","9412.256"
"1374","9378.912"
"1375","9382.665"
"1376","9415.997"
"1377","9454.799"
"1378","9475.764"
"1379","9476.654"
"1380","9473.457"
"1381","9482.224"
"1382","9505.709"
"1383","9532.869"
"1384","9552.159"
"1385","9557.148"
"1386","9547.716"
"1387","9524.235"
"1388","9491.819"
"1389","9462.515"
"1390","9448.818"
"1391","9454.825"
"1392","9470.217"
"1393","9483.272"
"1394","9485.007"
"1395","9471.933"
"1396","9441.229"
"1397","9396.775"
"1398","9358.002"
"1399","9346.542"
"1400","9370.957"
"1401","9404.679"
"1402","9415.289"
"1403","9384.012"
"1404","9334.156"
"1405","9297.145"
"1406","9295.541"
"1407","9320.765"
"1408","9357.39"
"1409","9392.035"
"1410","9419.503"
"1411","9436.609"
"1412","9441.247"
"1413","9436.021"
"1414","9424.872"
"1415","9411.438"
"1416","9397.936"
"1417","9386.137"
"1418","9378.068"
"1419","9377.08"
"1420","9386.971"
"1421","9409.225"
"1422","9431.602"
"1423","9436.816"
"1424","9413.313"
"1425","9386.293"
"1426","9395.455"
"1427","9471.296"
"1428","9580.83"
"1429","9664.437"
"1430","9672.065"
"1431","9624.175"
"1432","9572.406"
"1433","9561.981"
"1434","9587.767"
"1435","9621.374"
"1436","9637.604"
"1437","9637.781"
"1438","9635.901"
"1439","9644.146"
"1440","9659.064"
"1441","9669.554"
"1442","9665.947"
"1443","9651.167"
"1444","9634.412"
"1445","9624.373"
"1446","9625.018"
"1447","9637.951"
"1448","9663.927"
"1449","9696.733"
"1450","9726.645"
"1451","9744.457"
"1452","9745.547"
"1453","9727.571"
"1454","9688.984"
"1455","9634.574"
"1456","9572.25"
"1457","9510.271"
"1458","9459.555"
"1459","9432.282"
"1460","9437.646"
"1461","9461.981"
"1462","9481.112"
"1463","9473.936"
"1464","9442.056"
"1465","9397.069"
"1466","9351.045"
"1467","9318.966"
"1468","9317.032"
"1469","9355.966"
"1470","9411.602"
"1471","9446.104"
"1472","9429.049"
"1473","9373.948"
"1474","9310.32"
"1475","9263.211"
"1476","9233.358"
"1477","9213.337"
"1478","9196.599"
"1479","9180.962"
"1480","9165.575"
"1481","9150.216"
"1482","9137.431"
"1483","9130.534"
"1484","9130.577"
"1485","9129.675"
"1486","9117.726"
"1487","9089.612"
"1488","9057.652"
"1489","9037.979"
"1490","9039.525"
"1491","9049.076"
"1492","9049.176"
"1493","9031.67"
"1494","9013.38"
"1495","9015.224"
"1496","9043.022"
"1497","9067.401"
"1498","9054.15"
"1499","8994.993"
"1500","8933.762"
"1501","8920.142"
"1502","8968.928"
"1503","9034.684"
"1504","9066.553"
"1505","9044.568"
"1506","8994.291"
"1507","8944.574"
"1508","8910.168"
"1509","8888.195"
"1510","8874.785"
"1511","8869.322"
"1512","8874.614"
"1513","8893.321"
"1514","8922.171"
"1515","8952.65"
"1516","8976.366"
"1517","8989.213"
"1518","8990.238"
"1519","8979.126"
"1520","8961.593"
"1521","8946.998"
"1522","8943.796"
"1523","8952.593"
"1524","8970.176"
"1525","8991.959"
"1526","9004.899"
"1527","8992.647"
"1528","8944.196"
"1529","8874.781"
"1530","8807.673"
"1531","8762.235"
"1532","8743.002"
"1533","8750.998"
"1534","8783.15"
"1535","8824.496"
"1536","8857.947"
"1537","8874.29"
"1538","8881.874"
"1539","8891.348"
"1540","8905.792"
"1541","8915.311"
"1542","8908.932"
"1543","8884.448"
"1544","8851.253"
"1545","8819.381"
"1546","8795.072"
"1547","8780.711"
"1548","8778.309"
"1549","8786.752"
"1550","8802.515"
"1551","8822.091"
"1552","8842.77"
"1553","8862.311"
"1554","8878.309"
"1555","8887.212"
"1556","8884.967"
"1557","8868.263"
"1558","8837.47"
"1559","8794.098"
"1560","8742.193"
"1561","8694.654"
"1562","8666.315"
"1563","8664.485"
"1564","8677.882"
"1565","8692.439"
"1566","8699.205"
"1567","8698.251"
"1568","8690.59"
"1569","8678.007"
"1570","8663.258"
"1571","8649.014"
"1572","8634.923"
"1573","8617.897"
"1574","8595.898"
"1575","8580.098"
"1576","8590.15"
"1577","8639.969"
"1578","8700.144"
"1579","8721.953"
"1580","8671.734"
"1581","8588.859"
"1582","8534.65"
"1583","8547.537"
"1584","8593.331"
"1585","8623.618"
"1586","8614.594"
"1587","8594.303"
"1588","8596.861"
"1589","8631.406"
"1590","8671.572"
"1591","8689.249"
"1592","8677.72"
"1593","8650.86"
"1594","8623.203"
"1595","8606.87"
"1596","8612.432"
"1597","8646.212"
"1598","8685.231"
"1599","8694.047"
"1600","8649.439"
"1601","8580.896"
"1602","8532.046"
"1603","8530.025"
"1604","8557.819"
"1605","8591.157"
"1606","8610.948"
"1607","8606.93"
"1608","8570.563"
"1609","8517.531"
"1610","8490.053"
"1611","8527.322"
"1612","8610.314"
"1613","8678.943"
"1614","8682.297"
"1615","8642.946"
"1616","8615.968"
"1617","8640.995"
"1618","8691.008"
"1619","8721.268"
"1620","8707.476"
"1621","8677.014"
"1622","8664.951"
"1623","8683.892"
"1624","8711.854"
"1625","8724.81"
"1626","8718.179"
"1627","8705.877"
"1628","8700.779"
"1629","8697.548"
"1630","8680.227"
"1631","8638.638"
"1632","8595.273"
"1633","8583.846"
"1634","8621.23"
"1635","8671.891"
"1636","8690.397"
"1637","8660.139"
"1638","8616.229"
"1639","8598.116"
"1640","8616.885"
"1641","8653.434"
"1642","8687.558"
"1643","8703.479"
"1644","8688.187"
"1645","8635.154"
"1646","8575.074"
"1647","8551.991"
"1648","8588.95"
"1649","8643.557"
"1650","8661.122"
"1651","8624.632"
"1652","8582.234"
"1653","8586.327"
"1654","8637.62"
"1655","8685.667"
"1656","8683.565"
"1657","8640.659"
"1658","8597.908"
"1659","8587.434"
"1660","8596.447"
"1661","8598.534"
"1662","8580.187"
"1663","8560.708"
"1664","8564.105"
"1665","8593.952"
"1666","8625.583"
"1667","8633.679"
"1668","8614.313"
"1669","8579.943"
"1670","8543.271"
"1671","8515.743"
"1672","8508.292"
"1673","8522.384"
"1674","8527.9"
"1675","8488.521"
"1676","8401.729"
"1677","8323.196"
"1678","8311.29"
"1679","8361.626"
"1680","8411.881"
"1681","8406.178"
"1682","8359.636"
"1683","8321.998"
"1684","8328.487"
"1685","8357.112"
"1686","8372.189"
"1687","8354.54"
"1688","8316.537"
"1689","8273.896"
"1690","8237.07"
"1691","8211.275"
"1692","8201.251"
"1693","8209.302"
"1694","8236.502"
"1695","8275.392"
"1696","8285.164"
"1697","8217.22"
"1698","8071.256"
"1699","7937.659"
"1700","7912.431"
"1701","7996.743"
"1702","8101.879"
"1703","8146.75"
"1704","8138.984"
"1705","8128.063"
"1706","8148.33"
"1707","8180.257"
"1708","8192.857"
"1709","8177.218"
"1710","8160.671"
"1711","8171.555"
"1712","8199.484"
"1713","8202.758"
"1714","8149.756"
"1715","8077.764"
"1716","8050.631"
"1717","8100.668"
"1718","8173.521"
"1719","8201.438"
"1720","8169.514"
"1721","8130.548"
"1722","8135.57"
"1723","8167.282"
"1724","8166.437"
"1725","8093.062"
"1726","7994.984"
"1727","7943.888"
"1728","7970.314"
"1729","8025.634"
"1730","8054.396"
"1731","8044.117"
"1732","8020.82"
"1733","8008.705"
"1734","8010.39"
"1735","8019.692"
"1736","8032.187"
"1737","8048.393"
"1738","8069.37"
"1739","8085.748"
"1740","8075.394"
"1741","8020.165"
"1742","7948.024"
"1743","7912.638"
"1744","7948.139"
"1745","8014.367"
"1746","8054.27"
"1747","8043.169"
"1748","8007.479"
"1749","7976.766"
"1750","7962.298"
"1751","7962.476"
"1752","7973.339"
"1753","7981.039"
"1754","7968.893"
"1755","7933.974"
"1756","7899.666"
"1757","7890.643"
"1758","7902.431"
"1759","7906.308"
"1760","7881.483"
"1761","7856.072"
"1762","7875.126"
"1763","7950.451"
"1764","8021.201"
"1765","8020.495"
"1766","7954.791"
"1767","7898.295"
"1768","7912.438"
"1769","7962.978"
"1770","7979.159"
"1771","7928.542"
"1772","7868.477"
"1773","7866.232"
"1774","7924.57"
"1775","7984.08"
"1776","7992.761"
"1777","7962.458"
"1778","7929.989"
"1779","7916.423"
"1780","7905.77"
"1781","7878.084"
"1782","7841.939"
"1783","7832.86"
"1784","7876.797"
"1785","7934.807"
"1786","7943.736"
"1787","7880.644"
"1788","7810.959"
"1789","7807.75"
"1790","7867.029"
"1791","7917.562"
"1792","7902.99"
"1793","7859.961"
"1794","7856.008"
"1795","7912.365"
"1796","7960.799"
"1797","7928.725"
"1798","7830.979"
"1799","7748.646"
"1800","7743.739"
"1801","7784.959"
"1802","7815.375"
"1803","7811.656"
"1804","7804.28"
"1805","7825.256"
"1806","7869.762"
"1807","7910.238"
"1808","7924.218"
"1809","7908.248"
"1810","7863.375"
"1811","7804.388"
"1812","7763.279"
"1813","7766.449"
"1814","7787.777"
"1815","7776.482"
"1816","7711.284"
"1817","7646.082"
"1818","7643.848"
"1819","7711.37"
"1820","7803.409"
"1821","7876.207"
"1822","7904.92"
"1823","7871.173"
"1824","7781.197"
"1825","7684.57"
"1826","7632.308"
"1827","7639.373"
"1828","7697.548"
"1829","7789.588"
"1830","7868.807"
"1831","7883.622"
"1832","7829.892"
"1833","7759.141"
"1834","7718.962"
"1835","7708.169"
"1836","7705.406"
"1837","7692.018"
"1838","7655.26"
"1839","7586.003"
"1840","7515.988"
"1841","7507.249"
"1842","7596.429"
"1843","7719.043"
"1844","7787.628"
"1845","7773.166"
"1846","7720.426"
"1847","7676.187"
"1848","7667.274"
"1849","7711.779"
"1850","7799.538"
"1851","7860.48"
"1852","7824.151"
"1853","7721.578"
"1854","7657.081"
"1855","7700.117"
"1856","7787.606"
"1857","7828.543"
"1858","7797.318"
"1859","7743.75"
"1860","7713.304"
"1861","7698.567"
"1862","7672.388"
"1863","7631.682"
"1864","7616.887"
"1865","7666.557"
"1866","7750.566"
"1867","7797.796"
"1868","7766.994"
"1869","7702.968"
"1870","7663.518"
"1871","7664.331"
"1872","7683.331"
"1873","7700.993"
"1874","7715.095"
"1875","7728.104"
"1876","7740.126"
"1877","7748.186"
"1878","7750.155"
"1879","7751.067"
"1880","7758.846"
"1881","7773.351"
"1882","7779.308"
"1883","7761.197"
"1884","7718.725"
"1885","7660.613"
"1886","7598.175"
"1887","7549.235"
"1888","7531.418"
"1889","7540.841"
"1890","7556.104"
"1891","7560.869"
"1892","7559.784"
"1893","7562.143"
"1894","7570.008"
"1895","7577.59"
"1896","7580.771"
"1897","7586.12"
"1898","7603.345"
"1899","7628.085"
"1900","7636.072"
"1901","7607.815"
"1902","7567.733"
"1903","7558.566"
"1904","7594.6"
"1905","7638.501"
"1906","7651.733"
"1907","7635.444"
"1908","7612.093"
"1909","7597.751"
"1910","7593.472"
"1911","7598.111"
"1912","7608.908"
"1913","7622.015"
"1914","7632.328"
"1915","7631.335"
"1916","7610.777"
"1917","7575.912"
"1918","7542.692"
"1919","7522.914"
"1920","7513.354"
"1921","7507.831"
"1922","7503.918"
"1923","7502.659"
"1924","7505.467"
"1925","7514.704"
"1926","7532.406"
"1927","7546.67"
"1928","7531.009"
"1929","7471.286"
"1930","7411.943"
"1931","7412.113"
"1932","7474.817"
"1933","7538.06"
"1934","7550.718"
"1935","7534.576"
"1936","7533.136"
"1937","7555.548"
"1938","7567.885"
"1939","7541.539"
"1940","7491.567"
"1941","7447.277"
"1942","7422.44"
"1943","7410.244"
"1944","7404.044"
"1945","7406.213"
"1946","7422.13"
"1947","7450.414"
"1948","7480.458"
"1949","7501.582"
"1950","7506.63"
"1951","7489.956"
"1952","7457.249"
"1953","7429.748"
"1954","7424.052"
"1955","7423.579"
"1956","7400.557"
"1957","7353.507"
"1958","7316.357"
"1959","7318.589"
"1960","7350.891"
"1961","7390.529"
"1962","7411.118"
"1963","7381.61"
"1964","7286.625"
"1965","7193.654"
"1966","7194.726"
"1967","7302.325"
"1968","7432.965"
"1969","7509.38"
"1970","7511.964"
"1971","7439.433"
"1972","7328.347"
"1973","7256.962"
"1974","7279.145"
"1975","7336.445"
"1976","7343.864"
"1977","7286.454"
"1978","7218.239"
"1979","7181.72"
"1980","7166.41"
"1981","7150.6"
"1982","7127.828"
"1983","7104.709"
"1984","7088.274"
"1985","7085.458"
"1986","7102.472"
"1987","7135.514"
"1988","7173.457"
"1989","7203.882"
"1990","7211.599"
"1991","7183.622"
"1992","7135.575"
"1993","7100.359"
"1994","7100.64"
"1995","7137.395"
"1996","7206.298"
"1997","7281.573"
"1998","7327.201"
"1999","7326.869"
"2000","7296.699"
"2001","7254.494"
"2002","7209.601"
"2003","7167.943"
"2004","7126.338"
"2005","7069.946"
"2006","6992.077"
"2007","6926.845"
"2008","6918.09"
"2009","6964.015"
"2010","7018.002"
"2011","7043.294"
"2012","7042.642"
"2013","7027.66"
"2014","7018.638"
"2015","7042.2"
"2016","7098.382"
"2017","7123.375"
"2018","7055.142"
"2019","6934.697"
"2020","6857.579"
"2021","6866.821"
"2022","6915.187"
"2023","6952.055"
"2024","6960.346"
"2025","6935.962"
"2026","6891.642"
"2027","6860.254"
"2028","6865.771"
"2029","6891.585"
"2030","6911.885"
"2031","6917.437"
"2032","6912.762"
"2033","6905.923"
"2034","6913.079"
"2035","6946.097"
"2036","6962.87"
"2037","6892.114"
"2038","6739.671"
"2039","6643.046"
"2040","6716.065"
"2041","6859.928"
"2042","6904.241"
"2043","6812.164"
"2044","6694.883"
"2045","6646.438"
"2046","6673.136"
"2047","6759.667"
"2048","6857.588"
"2049","6895.142"
"2050","6839.215"
"2051","6739.454"
"2052","6651.567"
"2053","6598.351"
"2054","6587.989"
"2055","6613.533"
"2056","6648.652"
"2057","6668.267"
"2058","6657.855"
"2059","6607.885"
"2060","6545.172"
"2061","6524.718"
"2062","6565.974"
"2063","6606.075"
"2064","6582.339"
"2065","6519.867"
"2066","6482.479"
"2067","6489.259"
"2068","6500.725"
"2069","6486.772"
"2070","6470.185"
"2071","6484.093"
"2072","6522.017"
"2073","6548.013"
"2074","6542.851"
"2075","6524.046"
"2076","6511.75"
"2077","6512.397"
"2078","6526.274"
"2079","6537.262"
"2080","6510.384"
"2081","6434.448"
"2082","6380.712"
"2083","6427.669"
"2084","6541.846"
"2085","6620.628"
"2086","6610.926"
"2087","6545.668"
"2088","6464.159"
"2089","6395.172"
"2090","6363.06"
"2091","6369.359"
"2092","6395.359"
"2093","6425.227"
"2094","6451.906"
"2095","6470.263"
"2096","6480.01"
"2097","6482.508"
"2098","6462.015"
"2099","6382.245"
"2100","6237.262"
"2101","6126.08"
"2102","6154.946"
"2103","6274.02"
"2104","6341.607"
"2105","6301.01"
"2106","6229.905"
"2107","6199.615"
"2108","6201.913"
"2109","6207.262"
"2110","6192.687"
"2111","6140.307"
"2112","6056.626"
"2113","5994.932"
"2114","5998.722"
"2115","6027.912"
"2116","6017.789"
"2117","5977.717"
"2118","5983.231"
"2119","6070.905"
"2120","6182.522"
"2121","6252.339"
"2122","6252.901"
"2123","6173.869"
"2124","6050.486"
"2125","5964.322"
"2126","5959.671"
"2127","5978.438"
"2128","5957.323"
"2129","5916.104"
"2130","5909.975"
"2131","5951.362"
"2132","6005.135"
"2133","6044.962"
"2134","6076.269"
"2135","6104.919"
"2136","6097.457"
"2137","6004.348"
"2138","5850.406"
"2139","5745.947"
"2140","5756.164"
"2141","5803.018"
"2142","5796.795"
"2143","5758.208"
"2144","5758.225"
"2145","5808.512"
"2146","5852.835"
"2147","5857.263"
"2148","5860.576"
"2149","5903.475"
"2150","5946.037"
"2151","5914.415"
"2152","5807.455"
"2153","5702.554"
"2154","5656.233"
"2155","5660.582"
"2156","5695.634"
"2157","5729.461"
"2158","5726.547"
"2159","5683.742"
"2160","5629.514"
"2161","5586.634"
"2162","5561.749"
"2163","5562.877"
"2164","5618.515"
"2165","5758.415"
"2166","5905.967"
"2167","5895.634"
"2168","5678.401"
"2169","5435.188"
"2170","5334.107"
"2171","5356.411"
"2172","5429.492"
"2173","5498.252"
"2174","5520.192"
"2175","5482.362"
"2176","5417.529"
"2177","5363.809"
"2178","5363.849"
"2179","5450.065"
"2180","5547.446"
"2181","5525.412"
"2182","5375.2"
"2183","5236.44"
"2184","5208.652"
"2185","5256.458"
"2186","5323.177"
"2187","5363.311"
"2188","5339.272"
"2189","5281.137"
"2190","5279.678"
"2191","5353.725"
"2192","5376.447"
"2193","5253.12"
"2194","5114.672"
"2195","5136.39"
"2196","5255.62"
"2197","5260.008"
"2198","5105.058"
"2199","4979.757"
"2200","5006.765"
"2201","5056.755"
"2202","4985.715"
"2203","4884.579"
"2204","4935.28"
"2205","5097.497"
"2206","5126.507"
"2207","4939.264"
"2208","4781.36"
"2209","4854.471"
"2210","5004.038"
"2211","5002.673"
"2212","4874.27"
"2213","4788.656"
"2214","4801.047"
"2215","4824.125"
"2216","4805.873"
"2217","4807.324"
"2218","4882.115"
"2219","4938.25"
"2220","4843.373"
"2221","4633.663"
"2222","4469.995"
"2223","4445.199"
"2224","4544.923"
"2225","4721.848"
"2226","4853.074"
"2227","4822.108"
"2228","4665.057"
"2229","4482.035"
"2230","4347.214"
"2231","4311.568"
"2232","4380.491"
"2233","4482.261"
"2234","4552.886"
"2235","4584.095"
"2236","4578.205"
"2237","4523.309"
"2238","4404.161"
"2239","4274.66"
"2240","4252.426"
"2241","4364.247"
"2242","4466.711"
"2243","4446.604"
"2244","4372.717"
"2245","4343.131"
"2246","4347.354"
"2247","4324.676"
"2248","4260.567"
"2249","4183.958"
"2250","4117.223"
"2251","4067.879"
"2252","4034.023"
"2253","3985.455"
"2254","3893.543"
"2255","3790.203"
"2256","3732.625"
"2257","3732.947"
"2258","3763.866"
"2259","3795.06"
"2260","3793.548"
"2261","3746.327"
"2262","3704.938"
"2263","3716.662"
"2264","3717.137"
"2265","3606.438"
"2266","3417.631"
"2267","3282.763"
"2268","3260.173"
"2269","3302.363"
"2270","3352.38"
"2271","3349.385"
"2272","3255.942"
"2273","3159.203"
"2274","3171.751"
"2275","3246.985"
"2276","3245.572"
"2277","3140.652"
"2278","3030.183"
"2279","2958.819"
"2280","2851.758"
"2281","2667.422"
"2282","2543.972"
"2283","2625.799"
"2284","2783.878"
"2285","2780.595"
"2286","2624.175"
"2287","2520.407"
"2288","2534.056"
"2289","2518.993"
"2290","2396.159"
"2291","2303.323"
"2292","2354.463"
"2293","2375.863"
"2294","2144.693"
"2295","1814.542"
"2296","1733.863"
"2297","1916.071"
"2298","2048.429"
"2299","1977.733"
"2300","1843.465"
