,"Scan 01178"
"400","9029.22"
"401","9076.332"
"402","9118.943"
"403","9143.173"
"404","9149.544"
"405","9143.195"
"406","9129.229"
"407","9112.731"
"408","9098.865"
"409","9092.823"
"410","9099.756"
"411","9124.031"
"412","9160.247"
"413","9196.229"
"414","9219.756"
"415","9219.212"
"416","9194.676"
"417","9157.626"
"418","9119.926"
"419","9093.188"
"420","9081.439"
"421","9078.552"
"422","9077.715"
"423","9072.211"
"424","9059.272"
"425","9043.358"
"426","9029.679"
"427","9023.399"
"428","9026.797"
"429","9034.986"
"430","9042.016"
"431","9041.973"
"432","9031.093"
"433","9012.767"
"434","8991.868"
"435","8973.245"
"436","8960.72"
"437","8953.657"
"438","8950.168"
"439","8948.369"
"440","8946.493"
"441","8943.359"
"442","8938.006"
"443","8929.479"
"444","8917.313"
"445","8904.804"
"446","8896.986"
"447","8898.876"
"448","8914.189"
"449","8933.843"
"450","8941.39"
"451","8920.399"
"452","8856.679"
"453","8764.085"
"454","8676.079"
"455","8626.303"
"456","8645.8"
"457","8724.819"
"458","8819.694"
"459","8886.002"
"460","8881.454"
"461","8804.738"
"462","8694.361"
"463","8590.232"
"464","8530.968"
"465","8525.089"
"466","8547.544"
"467","8571.661"
"468","8571.429"
"469","8539.167"
"470","8490.337"
"471","8441.794"
"472","8410.081"
"473","8401.867"
"474","8409.927"
"475","8426.035"
"476","8442.081"
"477","8454.086"
"478","8464.43"
"479","8476.031"
"480","8491.752"
"481","8511.59"
"482","8530.76"
"483","8544.052"
"484","8546.308"
"485","8534.582"
"486","8509.841"
"487","8473.448"
"488","8426.778"
"489","8373.528"
"490","8321.737"
"491","8279.872"
"492","8256.304"
"493","8253.724"
"494","8263.944"
"495","8277.582"
"496","8285.341"
"497","8281.531"
"498","8267.46"
"499","8245.23"
"500","8216.938"
"501","8184.992"
"502","8152.423"
"503","8122.32"
"504","8097.712"
"505","8077.515"
"506","8052.761"
"507","8013.636"
"508","7950.472"
"509","7862.175"
"510","7763.483"
"511","7670.768"
"512","7600.212"
"513","7558.431"
"514","7535.286"
"515","7518.982"
"516","7497.891"
"517","7467.447"
"518","7434.726"
"519","7407.846"
"520","7394.796"
"521","7398.124"
"522","7412.104"
"523","7430.35"
"524","7446.563"
"525","7456.9"
"526","7460.925"
"527","7458.454"
"528","7449.309"
"529","7433.497"
"530","7411.245"
"531","7382.8"
"532","7348.492"
"533","7311.063"
"534","7275.921"
"535","7248.578"
"536","7234.206"
"537","7231.046"
"538","7230.688"
"539","7224.489"
"540","7204.394"
"541","7171.509"
"542","7134.524"
"543","7102.308"
"544","7083.075"
"545","7076.88"
"546","7078.085"
"547","7080.951"
"548","7080.319"
"549","7076.643"
"550","7073.64"
"551","7075.052"
"552","7083.686"
"553","7095.011"
"554","7101.035"
"555","7093.771"
"556","7067.425"
"557","7029.488"
"558","6992.471"
"559","6968.834"
"560","6967.819"
"561","6983.585"
"562","7005.845"
"563","7024.357"
"564","7030.72"
"565","7023.053"
"566","7000.952"
"567","6964.027"
"568","6915.899"
"569","6871.16"
"570","6846.195"
"571","6857.231"
"572","6908.124"
"573","6977.418"
"574","7040.653"
"575","7073.718"
"576","7066.825"
"577","7032.089"
"578","6983.44"
"579","6934.552"
"580","6893.375"
"581","6861.342"
"582","6839.517"
"583","6828.871"
"584","6828.75"
"585","6837.135"
"586","6851.978"
"587","6870.968"
"588","6888.96"
"589","6899.088"
"590","6894.484"
"591","6870.245"
"592","6835.101"
"593","6803.603"
"594","6790.271"
"595","6805.25"
"596","6838.418"
"597","6873.772"
"598","6895.371"
"599","6893.573"
"600","6878.145"
"601","6862.575"
"602","6860.235"
"603","6875.701"
"604","6895.43"
"605","6903.692"
"606","6885.126"
"607","6838.094"
"608","6779.943"
"609","6729.345"
"610","6704.205"
"611","6708.18"
"612","6731.722"
"613","6764.819"
"614","6797.844"
"615","6824.972"
"616","6842.711"
"617","6847.615"
"618","6837.352"
"619","6816.609"
"620","6792.796"
"621","6773.301"
"622","6763.228"
"623","6759.057"
"624","6755.23"
"625","6746.224"
"626","6729.27"
"627","6707.943"
"628","6686.686"
"629","6669.899"
"630","6660.254"
"631","6657.986"
"632","6663.147"
"633","6675.587"
"634","6691.464"
"635","6703.691"
"636","6705.094"
"637","6689.727"
"638","6662.686"
"639","6634.972"
"640","6617.598"
"641","6619.308"
"642","6637.664"
"643","6666.77"
"644","6700.744"
"645","6732.157"
"646","6749.253"
"647","6739.568"
"648","6690.917"
"649","6606.793"
"650","6515.47"
"651","6447.334"
"652","6431.201"
"653","6466.274"
"654","6524.496"
"655","6576.876"
"656","6597.611"
"657","6588.718"
"658","6566.842"
"659","6548.711"
"660","6547.874"
"661","6563.583"
"662","6591.037"
"663","6625.44"
"664","6661.028"
"665","6689.696"
"666","6703.028"
"667","6692.852"
"668","6659.951"
"669","6616.68"
"670","6576.132"
"671","6550.682"
"672","6543.682"
"673","6552.066"
"674","6572.643"
"675","6601.587"
"676","6631.225"
"677","6652.454"
"678","6656.196"
"679","6638.794"
"680","6612.581"
"681","6592.807"
"682","6594.468"
"683","6620.794"
"684","6657.303"
"685","6688.081"
"686","6698.212"
"687","6687.751"
"688","6668.555"
"689","6652.771"
"690","6650.418"
"691","6657.92"
"692","6666.287"
"693","6666.542"
"694","6653.808"
"695","6635.464"
"696","6621.159"
"697","6620.369"
"698","6635.005"
"699","6655.979"
"700","6673.358"
"701","6677.875"
"702","6669.252"
"703","6653.751"
"704","6637.765"
"705","6627.125"
"706","6624.593"
"707","6631.862"
"708","6650.607"
"709","6678.244"
"710","6701.594"
"711","6705.887"
"712","6676.973"
"713","6619.232"
"714","6558.77"
"715","6522.884"
"716","6535.349"
"717","6586.438"
"718","6647.697"
"719","6690.523"
"720","6694.37"
"721","6670.317"
"722","6637.221"
"723","6613.78"
"724","6608.835"
"725","6614.246"
"726","6620.209"
"727","6617.543"
"728","6606.683"
"729","6595.697"
"730","6592.861"
"731","6604.601"
"732","6626.924"
"733","6652.177"
"734","6672.723"
"735","6683.571"
"736","6685.861"
"737","6681.591"
"738","6672.766"
"739","6661.49"
"740","6649.964"
"741","6640.396"
"742","6634.989"
"743","6635.935"
"744","6645.42"
"745","6665.627"
"746","6695.968"
"747","6727.927"
"748","6751.596"
"749","6757.4"
"750","6746.306"
"751","6731.919"
"752","6728.571"
"753","6748.304"
"754","6783.418"
"755","6816.084"
"756","6828.42"
"757","6810.737"
"758","6779.442"
"759","6756.116"
"760","6761.841"
"761","6799.776"
"762","6850.075"
"763","6891.403"
"764","6904.847"
"765","6893.306"
"766","6871.333"
"767","6853.563"
"768","6850.038"
"769","6856.022"
"770","6863.812"
"771","6865.874"
"772","6860.429"
"773","6852.927"
"774","6849.276"
"775","6854.704"
"776","6868.663"
"777","6887.686"
"778","6908.284"
"779","6927.702"
"780","6945.338"
"781","6960.985"
"782","6974.478"
"783","6986.811"
"784","7000.296"
"785","7017.307"
"786","7039.357"
"787","7061.705"
"788","7076.874"
"789","7077.393"
"790","7060.042"
"791","7032.059"
"792","7002.253"
"793","6979.269"
"794","6968.634"
"795","6972.955"
"796","6994.733"
"797","7034.241"
"798","7079.418"
"799","7113.949"
"800","7121.645"
"801","7098.775"
"802","7065.151"
"803","7043.187"
"804","7053.421"
"805","7091.797"
"806","7136.833"
"807","7166.705"
"808","7165.884"
"809","7143.533"
"810","7114.85"
"811","7094.848"
"812","7090.887"
"813","7099.996"
"814","7118.477"
"815","7142.407"
"816","7166.051"
"817","7182.771"
"818","7185.94"
"819","7173.312"
"820","7153.812"
"821","7138.126"
"822","7136.398"
"823","7148.646"
"824","7165.779"
"825","7178.381"
"826","7179.852"
"827","7177.37"
"828","7182.33"
"829","7205.917"
"830","7246.676"
"831","7283.223"
"832","7292.422"
"833","7254.995"
"834","7187.958"
"835","7128.341"
"836","7113.331"
"837","7161.97"
"838","7243.377"
"839","7318.174"
"840","7348.533"
"841","7327.459"
"842","7276.399"
"843","7217.86"
"844","7171.434"
"845","7142.719"
"846","7133.103"
"847","7143.907"
"848","7173.008"
"849","7213.148"
"850","7256.662"
"851","7296.381"
"852","7329.32"
"853","7354.567"
"854","7371.239"
"855","7379.787"
"856","7383.833"
"857","7387.465"
"858","7394.479"
"859","7404.369"
"860","7413.3"
"861","7417.355"
"862","7413.822"
"863","7404.518"
"864","7392.324"
"865","7380.157"
"866","7371.943"
"867","7372.773"
"868","7387.809"
"869","7419.973"
"870","7459.146"
"871","7490.473"
"872","7499.264"
"873","7482.763"
"874","7458.128"
"875","7444.412"
"876","7458.224"
"877","7494.21"
"878","7535.378"
"879","7564.655"
"880","7571.636"
"881","7561.827"
"882","7543.053"
"883","7523.019"
"884","7507.749"
"885","7502.032"
"886","7510.625"
"887","7535.667"
"888","7570.492"
"889","7606.585"
"890","7635.683"
"891","7655.251"
"892","7668.441"
"893","7678.647"
"894","7689.083"
"895","7702.134"
"896","7719.944"
"897","7744.561"
"898","7774.204"
"899","7802.142"
"900","7821.312"
"901","7825.976"
"902","7818.674"
"903","7805.126"
"904","7791.049"
"905","7781.012"
"906","7777.705"
"907","7783.637"
"908","7800.699"
"909","7825.676"
"910","7852.851"
"911","7876.501"
"912","7893.351"
"913","7905.171"
"914","7914.361"
"915","7923.218"
"916","7932.977"
"917","7944.22"
"918","7957.523"
"919","7970.82"
"920","7975.387"
"921","7961.463"
"922","7920.678"
"923","7863.597"
"924","7814.475"
"925","7797.873"
"926","7827.127"
"927","7881.667"
"928","7934.533"
"929","7960.029"
"930","7954.106"
"931","7930.903"
"932","7905.123"
"933","7888.021"
"934","7878.676"
"935","7873.475"
"936","7868.975"
"937","7865.193"
"938","7865.453"
"939","7873.2"
"940","7890.369"
"941","7912.772"
"942","7934.697"
"943","7950.522"
"944","7957.264"
"945","7954.701"
"946","7942.751"
"947","7922.439"
"948","7899.763"
"949","7882.105"
"950","7876.615"
"951","7883.565"
"952","7895.406"
"953","7904.16"
"954","7903.666"
"955","7896.518"
"956","7887.931"
"957","7882.98"
"958","7881.969"
"959","7879.464"
"960","7869.684"
"961","7849.221"
"962","7826.649"
"963","7814.333"
"964","7824.252"
"965","7854.616"
"966","7886.507"
"967","7899.922"
"968","7880.254"
"969","7840.92"
"970","7804.427"
"971","7792.805"
"972","7810.334"
"973","7838.932"
"974","7859.084"
"975","7855.867"
"976","7838.336"
"977","7823.328"
"978","7827.324"
"979","7853.489"
"980","7888.359"
"981","7917.416"
"982","7929.191"
"983","7927.795"
"984","7922.295"
"985","7921.562"
"986","7927.783"
"987","7935.015"
"988","7936.827"
"989","7927.866"
"990","7908.067"
"991","7878.974"
"992","7842.342"
"993","7806.109"
"994","7785.378"
"995","7795.668"
"996","7846.531"
"997","7920.263"
"998","7991.362"
"999","8035"
"1000","8044.708"
"1001","8033.924"
"1002","8017.097"
"1003","8006.447"
"1004","8004.841"
"1005","8012.7"
"1006","8030.433"
"1007","8056.126"
"1008","8082.025"
"1009","8099.46"
"1010","8100.789"
"1011","8088.949"
"1012","8073.129"
"1013","8062.563"
"1014","8061.278"
"1015","8063.056"
"1016","8060.479"
"1017","8047.596"
"1018","8029.545"
"1019","8016.506"
"1020","8018.569"
"1021","8038.643"
"1022","8068.912"
"1023","8100.685"
"1024","8126.337"
"1025","8144.016"
"1026","8153.793"
"1027","8155.798"
"1028","8151.68"
"1029","8144.763"
"1030","8138.464"
"1031","8135.917"
"1032","8139.209"
"1033","8150.186"
"1034","8170.36"
"1035","8196.018"
"1036","8219.349"
"1037","8232.449"
"1038","8232.105"
"1039","8226.695"
"1040","8226.366"
"1041","8240.234"
"1042","8268.088"
"1043","8304.754"
"1044","8344.977"
"1045","8381.515"
"1046","8403.903"
"1047","8401.372"
"1048","8367.42"
"1049","8318.85"
"1050","8280.379"
"1051","8275.84"
"1052","8306.367"
"1053","8349.297"
"1054","8380.824"
"1055","8385.117"
"1056","8372.213"
"1057","8357.39"
"1058","8354.737"
"1059","8364.184"
"1060","8376.407"
"1061","8381.975"
"1062","8376.646"
"1063","8366.068"
"1064","8356.997"
"1065","8355.375"
"1066","8362.099"
"1067","8376.133"
"1068","8396.373"
"1069","8419.716"
"1070","8440.841"
"1071","8454.302"
"1072","8458.248"
"1073","8462.62"
"1074","8479.799"
"1075","8520.245"
"1076","8572.881"
"1077","8613.022"
"1078","8615.973"
"1079","8575.016"
"1080","8514.898"
"1081","8463.562"
"1082","8443.288"
"1083","8446.178"
"1084","8454.305"
"1085","8450.526"
"1086","8434.023"
"1087","8419.265"
"1088","8421.295"
"1089","8447.013"
"1090","8482.294"
"1091","8509.664"
"1092","8514.595"
"1093","8506.151"
"1094","8504.694"
"1095","8530.1"
"1096","8580.918"
"1097","8628.488"
"1098","8642.378"
"1099","8603.563"
"1100","8533.427"
"1101","8462.288"
"1102","8418.151"
"1103","8403.184"
"1104","8403.42"
"1105","8404.733"
"1106","8399.605"
"1107","8391.112"
"1108","8383.282"
"1109","8379.487"
"1110","8380.144"
"1111","8384.845"
"1112","8393.166"
"1113","8404.357"
"1114","8417.436"
"1115","8431.379"
"1116","8442.325"
"1117","8441.111"
"1118","8417.997"
"1119","8367.924"
"1120","8309.664"
"1121","8269.563"
"1122","8272.232"
"1123","8313.801"
"1124","8367.238"
"1125","8404.917"
"1126","8412.922"
"1127","8404.628"
"1128","8396.647"
"1129","8402.297"
"1130","8417.409"
"1131","8432.053"
"1132","8436.794"
"1133","8430.649"
"1134","8419.558"
"1135","8409.642"
"1136","8404.504"
"1137","8402.817"
"1138","8402.691"
"1139","8402.512"
"1140","8402.088"
"1141","8401.677"
"1142","8401.358"
"1143","8398.697"
"1144","8389.328"
"1145","8368.919"
"1146","8340.245"
"1147","8318.537"
"1148","8320.305"
"1149","8356.421"
"1150","8413.319"
"1151","8470.813"
"1152","8509.972"
"1153","8526.79"
"1154","8526.979"
"1155","8516.391"
"1156","8499.508"
"1157","8478.812"
"1158","8456.628"
"1159","8436.41"
"1160","8425.472"
"1161","8431.942"
"1162","8462.016"
"1163","8505.187"
"1164","8542.433"
"1165","8555.183"
"1166","8539.962"
"1167","8510.183"
"1168","8480.144"
"1169","8459.239"
"1170","8444.731"
"1171","8432.049"
"1172","8418.453"
"1173","8411.951"
"1174","8424.445"
"1175","8466.486"
"1176","8527.236"
"1177","8578.896"
"1178","8593.461"
"1179","8564.183"
"1180","8519.781"
"1181","8492.36"
"1182","8503.781"
"1183","8538.023"
"1184","8570.304"
"1185","8578.561"
"1186","8564.438"
"1187","8541.771"
"1188","8524.287"
"1189","8520.409"
"1190","8532.924"
"1191","8564.318"
"1192","8609.596"
"1193","8647.523"
"1194","8654.711"
"1195","8616.084"
"1196","8556.017"
"1197","8510.583"
"1198","8512.396"
"1199","8555.61"
"1200","8610.497"
"1201","8647.484"
"1202","8655.194"
"1203","8644.54"
"1204","8627.811"
"1205","8614.021"
"1206","8604.203"
"1207","8598.18"
"1208","8595.928"
"1209","8598.25"
"1210","8606.204"
"1211","8620.406"
"1212","8636.231"
"1213","8645.664"
"1214","8640.914"
"1215","8624.038"
"1216","8609.231"
"1217","8611.416"
"1218","8637.882"
"1219","8677.809"
"1220","8717.739"
"1221","8746.111"
"1222","8760.505"
"1223","8761.234"
"1224","8748.566"
"1225","8722.309"
"1226","8681.996"
"1227","8627.538"
"1228","8568.864"
"1229","8526.674"
"1230","8522.097"
"1231","8561.501"
"1232","8622.083"
"1233","8677.599"
"1234","8709.084"
"1235","8725.165"
"1236","8741.006"
"1237","8769.292"
"1238","8804.128"
"1239","8831.208"
"1240","8837.124"
"1241","8823.976"
"1242","8806.513"
"1243","8799.671"
"1244","8809.055"
"1245","8826.888"
"1246","8844.355"
"1247","8853.695"
"1248","8849.846"
"1249","8828.17"
"1250","8787.692"
"1251","8744.854"
"1252","8721.279"
"1253","8735.643"
"1254","8779.671"
"1255","8830.715"
"1256","8866.863"
"1257","8883.722"
"1258","8892.871"
"1259","8906.346"
"1260","8927.93"
"1261","8948.707"
"1262","8958.691"
"1263","8953.153"
"1264","8941.246"
"1265","8934.389"
"1266","8940.364"
"1267","8950.021"
"1268","8949.268"
"1269","8926.563"
"1270","8891.795"
"1271","8865.584"
"1272","8867.386"
"1273","8895.861"
"1274","8932.6"
"1275","8958.931"
"1276","8967"
"1277","8963.249"
"1278","8955.083"
"1279","8946.575"
"1280","8934.633"
"1281","8915.245"
"1282","8886.913"
"1283","8857.091"
"1284","8835.229"
"1285","8829.186"
"1286","8837.234"
"1287","8854.101"
"1288","8874.273"
"1289","8889.937"
"1290","8891.896"
"1291","8871.698"
"1292","8836.092"
"1293","8805.786"
"1294","8801.692"
"1295","8828.789"
"1296","8869.661"
"1297","8905.229"
"1298","8923.893"
"1299","8930.213"
"1300","8930.869"
"1301","8930.364"
"1302","8925.813"
"1303","8912.762"
"1304","8889.163"
"1305","8865.884"
"1306","8858.106"
"1307","8878.719"
"1308","8920.703"
"1309","8966.887"
"1310","9000.62"
"1311","9014.109"
"1312","9006.254"
"1313","8976.428"
"1314","8932.294"
"1315","8890.621"
"1316","8868.441"
"1317","8869.18"
"1318","8874.687"
"1319","8864.942"
"1320","8833.667"
"1321","8806.195"
"1322","8812.319"
"1323","8867"
"1324","8934.988"
"1325","8970.397"
"1326","8938.886"
"1327","8863.869"
"1328","8786.794"
"1329","8745.239"
"1330","8747.999"
"1331","8790.938"
"1332","8868.446"
"1333","8958.984"
"1334","9030.992"
"1335","9054.581"
"1336","9033.039"
"1337","8998.304"
"1338","8982.569"
"1339","8995.792"
"1340","9021.868"
"1341","9043.33"
"1342","9050.888"
"1343","9048.207"
"1344","9040.083"
"1345","9028.368"
"1346","9008.63"
"1347","8975.617"
"1348","8927.889"
"1349","8875.056"
"1350","8828.722"
"1351","8798.494"
"1352","8786.031"
"1353","8791.037"
"1354","8811.012"
"1355","8831.717"
"1356","8834.982"
"1357","8806.662"
"1358","8761.855"
"1359","8728.584"
"1360","8731.839"
"1361","8765.877"
"1362","8807.353"
"1363","8833.997"
"1364","8841.519"
"1365","8838.748"
"1366","8834.57"
"1367","8832.876"
"1368","8832.953"
"1369","8833.794"
"1370","8830.478"
"1371","8813.585"
"1372","8773.816"
"1373","8719.174"
"1374","8682.303"
"1375","8697.402"
"1376","8768.58"
"1377","8847.119"
"1378","8879.069"
"1379","8839.39"
"1380","8765.47"
"1381","8702.843"
"1382","8682.483"
"1383","8696.773"
"1384","8731.779"
"1385","8773.322"
"1386","8806.488"
"1387","8816.208"
"1388","8793.553"
"1389","8753.847"
"1390","8718.397"
"1391","8703.896"
"1392","8705.035"
"1393","8709.959"
"1394","8708.042"
"1395","8695.721"
"1396","8671.923"
"1397","8637.447"
"1398","8605.75"
"1399","8595.558"
"1400","8621.66"
"1401","8666.832"
"1402","8698.395"
"1403","8687.507"
"1404","8643.135"
"1405","8595.201"
"1406","8571.888"
"1407","8579.175"
"1408","8609.074"
"1409","8652.802"
"1410","8693.942"
"1411","8710.686"
"1412","8683.35"
"1413","8627.084"
"1414","8584.455"
"1415","8596.046"
"1416","8652.885"
"1417","8703.006"
"1418","8695.603"
"1419","8635.122"
"1420","8578.45"
"1421","8582.368"
"1422","8649.325"
"1423","8725.819"
"1424","8757.305"
"1425","8732.809"
"1426","8689.656"
"1427","8666.938"
"1428","8678.915"
"1429","8710.487"
"1430","8745.089"
"1431","8775.089"
"1432","8804.066"
"1433","8836.205"
"1434","8871.477"
"1435","8904.309"
"1436","8928.867"
"1437","8944.781"
"1438","8959.168"
"1439","8979.523"
"1440","9005.164"
"1441","9023.805"
"1442","9022.507"
"1443","9000.703"
"1444","8975.834"
"1445","8966.533"
"1446","8978.332"
"1447","8997.368"
"1448","9008.394"
"1449","9006.762"
"1450","9003.671"
"1451","9011.386"
"1452","9028.945"
"1453","9035.626"
"1454","9009.479"
"1455","8950.607"
"1456","8891.854"
"1457","8868.132"
"1458","8883.558"
"1459","8897.26"
"1460","8865.523"
"1461","8782.089"
"1462","8694.119"
"1463","8652.052"
"1464","8667.314"
"1465","8697.439"
"1466","8696.768"
"1467","8652.05"
"1468","8593.091"
"1469","8552.06"
"1470","8537.771"
"1471","8529.467"
"1472","8505.08"
"1473","8462.405"
"1474","8423.023"
"1475","8409.225"
"1476","8422.939"
"1477","8443.194"
"1478","8448.423"
"1479","8433.139"
"1480","8408.692"
"1481","8386.956"
"1482","8373.898"
"1483","8369.781"
"1484","8374.31"
"1485","8381.209"
"1486","8378.913"
"1487","8356.508"
"1488","8316.633"
"1489","8272.849"
"1490","8238.418"
"1491","8218.02"
"1492","8210.093"
"1493","8212.415"
"1494","8216.559"
"1495","8210.082"
"1496","8182.644"
"1497","8145.696"
"1498","8123.204"
"1499","8135.559"
"1500","8171.511"
"1501","8203.888"
"1502","8209.438"
"1503","8193.982"
"1504","8176.006"
"1505","8171.874"
"1506","8184.775"
"1507","8212.978"
"1508","8253.073"
"1509","8293.25"
"1510","8319.023"
"1511","8319.07"
"1512","8295.387"
"1513","8253.471"
"1514","8200.317"
"1515","8148.08"
"1516","8110.037"
"1517","8096.98"
"1518","8112.534"
"1519","8159.022"
"1520","8228.32"
"1521","8287.828"
"1522","8301.627"
"1523","8257.632"
"1524","8189.431"
"1525","8135.448"
"1526","8112.689"
"1527","8104.701"
"1528","8092.542"
"1529","8073.195"
"1530","8063.839"
"1531","8082.107"
"1532","8124.837"
"1533","8167.568"
"1534","8186.074"
"1535","8176.495"
"1536","8151.684"
"1537","8124.621"
"1538","8103.706"
"1539","8094.34"
"1540","8100.505"
"1541","8114.284"
"1542","8121.685"
"1543","8111.211"
"1544","8087.683"
"1545","8062.34"
"1546","8044.584"
"1547","8034.946"
"1548","8031.337"
"1549","8030.86"
"1550","8027.811"
"1551","8015.87"
"1552","7994.169"
"1553","7976.083"
"1554","7977.206"
"1555","8003.079"
"1556","8039.659"
"1557","8070.765"
"1558","8087.053"
"1559","8089.101"
"1560","8078.367"
"1561","8058.917"
"1562","8037.637"
"1563","8021.106"
"1564","8008.543"
"1565","7993.231"
"1566","7969.104"
"1567","7938.599"
"1568","7909.176"
"1569","7887.428"
"1570","7873.452"
"1571","7864.584"
"1572","7858.964"
"1573","7858.595"
"1574","7866.625"
"1575","7882.824"
"1576","7895.948"
"1577","7892.531"
"1578","7868.279"
"1579","7839.565"
"1580","7825.43"
"1581","7833.981"
"1582","7856.161"
"1583","7881.427"
"1584","7900.239"
"1585","7904.167"
"1586","7886.136"
"1587","7858.808"
"1588","7850.034"
"1589","7883.824"
"1590","7945.883"
"1591","8001.669"
"1592","8020.64"
"1593","7996.274"
"1594","7930.522"
"1595","7834.12"
"1596","7749.869"
"1597","7727.843"
"1598","7787.322"
"1599","7874.603"
"1600","7925.998"
"1601","7917.652"
"1602","7887.912"
"1603","7879.205"
"1604","7900.129"
"1605","7924.135"
"1606","7924.701"
"1607","7896.886"
"1608","7850.574"
"1609","7797.019"
"1610","7755.246"
"1611","7747.75"
"1612","7788.675"
"1613","7855.106"
"1614","7913.894"
"1615","7943.039"
"1616","7950.708"
"1617","7950.041"
"1618","7949.107"
"1619","7947.413"
"1620","7943.718"
"1621","7938.899"
"1622","7936.09"
"1623","7937.68"
"1624","7935.368"
"1625","7913.611"
"1626","7862.819"
"1627","7814.809"
"1628","7818.634"
"1629","7901.45"
"1630","8004.268"
"1631","8047.134"
"1632","7994.989"
"1633","7915.728"
"1634","7890.333"
"1635","7938.597"
"1636","7995.751"
"1637","7994.715"
"1638","7936.357"
"1639","7878.786"
"1640","7874.794"
"1641","7916.178"
"1642","7963.976"
"1643","7986.837"
"1644","7989.806"
"1645","7988.423"
"1646","7992.439"
"1647","7996.707"
"1648","7993.876"
"1649","7985.571"
"1650","7986.698"
"1651","8011.883"
"1652","8050.82"
"1653","8071.504"
"1654","8045.756"
"1655","7984.169"
"1656","7916.8"
"1657","7871.658"
"1658","7866.911"
"1659","7917.956"
"1660","8015.224"
"1661","8090.214"
"1662","8067.668"
"1663","7946.67"
"1664","7824.406"
"1665","7797.906"
"1666","7863.857"
"1667","7944.003"
"1668","7968.882"
"1669","7940.7"
"1670","7891.053"
"1671","7847.718"
"1672","7825.052"
"1673","7834.414"
"1674","7871.961"
"1675","7906.648"
"1676","7905.856"
"1677","7865.94"
"1678","7811.617"
"1679","7766.25"
"1680","7729.956"
"1681","7690.511"
"1682","7642.077"
"1683","7606.951"
"1684","7614.957"
"1685","7671.729"
"1686","7730.414"
"1687","7738.637"
"1688","7686.716"
"1689","7613.699"
"1690","7559.182"
"1691","7539.611"
"1692","7557.484"
"1693","7607.325"
"1694","7646.068"
"1695","7619.368"
"1696","7509.498"
"1697","7384.154"
"1698","7321.444"
"1699","7340.387"
"1700","7389.943"
"1701","7419.346"
"1702","7425.446"
"1703","7434.088"
"1704","7464.207"
"1705","7499.931"
"1706","7515.167"
"1707","7500.063"
"1708","7480.74"
"1709","7487.08"
"1710","7518.738"
"1711","7542.204"
"1712","7526.157"
"1713","7476.248"
"1714","7418.315"
"1715","7374.606"
"1716","7351.845"
"1717","7352.771"
"1718","7374.225"
"1719","7402.064"
"1720","7421.331"
"1721","7425.146"
"1722","7413.953"
"1723","7389.277"
"1724","7358.462"
"1725","7331.381"
"1726","7315.741"
"1727","7312.587"
"1728","7321.59"
"1729","7337.717"
"1730","7349.348"
"1731","7345.419"
"1732","7327.877"
"1733","7307.348"
"1734","7292.926"
"1735","7285.516"
"1736","7283.586"
"1737","7286.263"
"1738","7294.041"
"1739","7307.552"
"1740","7326.799"
"1741","7351.177"
"1742","7378.93"
"1743","7400.304"
"1744","7402.104"
"1745","7380.07"
"1746","7355.702"
"1747","7354.5"
"1748","7378.333"
"1749","7399.185"
"1750","7390.507"
"1751","7359.555"
"1752","7332.867"
"1753","7329.074"
"1754","7335.771"
"1755","7333.367"
"1756","7314.809"
"1757","7292.926"
"1758","7281.759"
"1759","7287.704"
"1760","7311.791"
"1761","7350.786"
"1762","7382.034"
"1763","7377.337"
"1764","7327.125"
"1765","7256.758"
"1766","7194.602"
"1767","7154.661"
"1768","7139.332"
"1769","7148.283"
"1770","7168.271"
"1771","7181.789"
"1772","7182.623"
"1773","7188.077"
"1774","7217.057"
"1775","7263.678"
"1776","7300.375"
"1777","7303.886"
"1778","7280.124"
"1779","7245.413"
"1780","7214.235"
"1781","7197.028"
"1782","7203.008"
"1783","7227.874"
"1784","7255.333"
"1785","7270.537"
"1786","7269.483"
"1787","7252.051"
"1788","7224.403"
"1789","7205.904"
"1790","7216.043"
"1791","7246.777"
"1792","7266.724"
"1793","7252.655"
"1794","7228.62"
"1795","7234.014"
"1796","7279.005"
"1797","7317.697"
"1798","7301.591"
"1799","7238.568"
"1800","7179.413"
"1801","7164.613"
"1802","7182.512"
"1803","7206.736"
"1804","7220.961"
"1805","7225.396"
"1806","7221.749"
"1807","7211.372"
"1808","7195.389"
"1809","7175.923"
"1810","7158.754"
"1811","7150.367"
"1812","7151.151"
"1813","7153.403"
"1814","7149.754"
"1815","7140.523"
"1816","7129.911"
"1817","7120.825"
"1818","7112.528"
"1819","7103.888"
"1820","7099.16"
"1821","7108.045"
"1822","7137.16"
"1823","7173.246"
"1824","7195.752"
"1825","7192.183"
"1826","7166.007"
"1827","7123.374"
"1828","7081.5"
"1829","7065.646"
"1830","7090.311"
"1831","7126.564"
"1832","7135.307"
"1833","7104.525"
"1834","7058.674"
"1835","7023.236"
"1836","7010.717"
"1837","7027.356"
"1838","7069.284"
"1839","7107.606"
"1840","7111.596"
"1841","7088.505"
"1842","7078.737"
"1843","7110.083"
"1844","7145.324"
"1845","7128.901"
"1846","7054.051"
"1847","6988.025"
"1848","6995.14"
"1849","7056.245"
"1850","7108.081"
"1851","7112.776"
"1852","7100.617"
"1853","7110.741"
"1854","7138.858"
"1855","7142.064"
"1856","7091.614"
"1857","7030.89"
"1858","7023.207"
"1859","7080.546"
"1860","7140.711"
"1861","7144.769"
"1862","7108.324"
"1863","7083.112"
"1864","7096.253"
"1865","7116.897"
"1866","7108.586"
"1867","7074.925"
"1868","7050.264"
"1869","7060.089"
"1870","7093.3"
"1871","7130.176"
"1872","7151.443"
"1873","7138.373"
"1874","7080.537"
"1875","7017.452"
"1876","7006.775"
"1877","7061.171"
"1878","7115.169"
"1879","7104.216"
"1880","7049.241"
"1881","7018.872"
"1882","7050.183"
"1883","7098.012"
"1884","7107.546"
"1885","7078.685"
"1886","7055.097"
"1887","7066.58"
"1888","7086.088"
"1889","7074.464"
"1890","7028.097"
"1891","6982.808"
"1892","6971.329"
"1893","6998.218"
"1894","7058.341"
"1895","7131.741"
"1896","7176.253"
"1897","7156.043"
"1898","7098.085"
"1899","7058.025"
"1900","7063.124"
"1901","7083.542"
"1902","7085.877"
"1903","7071.82"
"1904","7064.245"
"1905","7075.484"
"1906","7089.517"
"1907","7086.852"
"1908","7065.164"
"1909","7035.308"
"1910","7007.06"
"1911","6985.302"
"1912","6973.668"
"1913","6970.707"
"1914","6970.129"
"1915","6965.535"
"1916","6950.955"
"1917","6921.085"
"1918","6887.734"
"1919","6882.247"
"1920","6927.208"
"1921","6994.415"
"1922","7039.883"
"1923","7042.27"
"1924","7010.678"
"1925","6958.127"
"1926","6908.277"
"1927","6888.468"
"1928","6902.372"
"1929","6917.247"
"1930","6903.458"
"1931","6875.847"
"1932","6868.126"
"1933","6888.212"
"1934","6899.477"
"1935","6868.619"
"1936","6824.64"
"1937","6825.963"
"1938","6886.662"
"1939","6937.089"
"1940","6910.827"
"1941","6851.708"
"1942","6859.945"
"1943","6963.912"
"1944","7047.357"
"1945","6994.611"
"1946","6857.476"
"1947","6777.938"
"1948","6818.242"
"1949","6873.264"
"1950","6832.24"
"1951","6731.344"
"1952","6687.757"
"1953","6756.015"
"1954","6857.559"
"1955","6904.118"
"1956","6876.091"
"1957","6791.782"
"1958","6682.627"
"1959","6606.077"
"1960","6614.591"
"1961","6684.083"
"1962","6749.634"
"1963","6772.356"
"1964","6765.628"
"1965","6749.377"
"1966","6746.864"
"1967","6782.779"
"1968","6850.339"
"1969","6884.849"
"1970","6827.234"
"1971","6711.675"
"1972","6615.509"
"1973","6585.631"
"1974","6617.324"
"1975","6695.379"
"1976","6766.886"
"1977","6764.152"
"1978","6679.857"
"1979","6596.804"
"1980","6588.978"
"1981","6634.045"
"1982","6675.282"
"1983","6682.614"
"1984","6660.593"
"1985","6620.571"
"1986","6595.841"
"1987","6624.79"
"1988","6697.66"
"1989","6751.745"
"1990","6741.586"
"1991","6702.516"
"1992","6687.669"
"1993","6699.431"
"1994","6693.908"
"1995","6642.528"
"1996","6571.396"
"1997","6516.758"
"1998","6502.609"
"1999","6543.882"
"2000","6627.564"
"2001","6671.6"
"2002","6596.149"
"2003","6453.081"
"2004","6370.011"
"2005","6401.843"
"2006","6462.339"
"2007","6463.37"
"2008","6420.263"
"2009","6393.136"
"2010","6403.226"
"2011","6415.234"
"2012","6397.755"
"2013","6362.795"
"2014","6335.856"
"2015","6329.438"
"2016","6342.063"
"2017","6367.395"
"2018","6384.083"
"2019","6369.186"
"2020","6328.518"
"2021","6290.286"
"2022","6277.123"
"2023","6296.063"
"2024","6347.78"
"2025","6395.578"
"2026","6382.683"
"2027","6292.702"
"2028","6178.86"
"2029","6097.209"
"2030","6078.682"
"2031","6143.259"
"2032","6256.737"
"2033","6321.768"
"2034","6277.525"
"2035","6216.181"
"2036","6256.507"
"2037","6364.948"
"2038","6389.498"
"2039","6265.437"
"2040","6144.355"
"2041","6183.602"
"2042","6317.96"
"2043","6372.147"
"2044","6281.032"
"2045","6147.113"
"2046","6068.42"
"2047","6051"
"2048","6072.701"
"2049","6112.019"
"2050","6148.066"
"2051","6164.142"
"2052","6155.689"
"2053","6123.085"
"2054","6094.782"
"2055","6114.861"
"2056","6170.771"
"2057","6154.171"
"2058","5983.777"
"2059","5775.904"
"2060","5707.083"
"2061","5801.722"
"2062","5932.263"
"2063","6000.305"
"2064","6013.472"
"2065","5999.135"
"2066","5987.978"
"2067","6012.148"
"2068","6067.915"
"2069","6093.189"
"2070","6041.507"
"2071","5972.343"
"2072","5973.303"
"2073","6031.173"
"2074","6041.129"
"2075","5951.579"
"2076","5856.616"
"2077","5857.249"
"2078","5918.737"
"2079","5941.17"
"2080","5899.057"
"2081","5868.395"
"2082","5906.876"
"2083","5970.914"
"2084","5995.537"
"2085","5966.004"
"2086","5903.618"
"2087","5834.91"
"2088","5794.877"
"2089","5809.549"
"2090","5846.94"
"2091","5856.174"
"2092","5830.638"
"2093","5807.146"
"2094","5810.015"
"2095","5825.369"
"2096","5836.112"
"2097","5850.146"
"2098","5886.302"
"2099","5919.026"
"2100","5866.16"
"2101","5693.824"
"2102","5549.944"
"2103","5600.343"
"2104","5768.235"
"2105","5830.001"
"2106","5716.327"
"2107","5605.105"
"2108","5640.011"
"2109","5718.155"
"2110","5682.01"
"2111","5555.535"
"2112","5495.446"
"2113","5560.034"
"2114","5618.233"
"2115","5555.912"
"2116","5454.599"
"2117","5451.084"
"2118","5548.577"
"2119","5638.713"
"2120","5652.394"
"2121","5610.345"
"2122","5545.088"
"2123","5491.571"
"2124","5483.088"
"2125","5501.673"
"2126","5483.208"
"2127","5405.539"
"2128","5344.097"
"2129","5368.369"
"2130","5430.203"
"2131","5441.158"
"2132","5393.096"
"2133","5352.501"
"2134","5357.822"
"2135","5377.436"
"2136","5375.326"
"2137","5347.69"
"2138","5303.562"
"2139","5268.275"
"2140","5281.824"
"2141","5352.035"
"2142","5415.687"
"2143","5413.826"
"2144","5365.519"
"2145","5315.729"
"2146","5282.206"
"2147","5259.65"
"2148","5246.285"
"2149","5248.764"
"2150","5273.471"
"2151","5320.346"
"2152","5384.874"
"2153","5427.633"
"2154","5383.73"
"2155","5255.204"
"2156","5160.292"
"2157","5186.096"
"2158","5239.126"
"2159","5191.285"
"2160","5064.415"
"2161","4974.141"
"2162","4971.875"
"2163","5015.285"
"2164","5056.679"
"2165","5054.968"
"2166","4981.141"
"2167","4898.68"
"2168","4914.577"
"2169","5033.291"
"2170","5143.315"
"2171","5166.075"
"2172","5123.003"
"2173","5051.59"
"2174","4991.363"
"2175","4979.77"
"2176","5001.481"
"2177","4996.521"
"2178","4942.944"
"2179","4891.998"
"2180","4890.875"
"2181","4934.613"
"2182","5001.865"
"2183","5045.938"
"2184","5006.2"
"2185","4887.666"
"2186","4781.169"
"2187","4745.662"
"2188","4732.015"
"2189","4686.807"
"2190","4657.406"
"2191","4726.537"
"2192","4860.562"
"2193","4923.905"
"2194","4863.024"
"2195","4782.382"
"2196","4776.085"
"2197","4824.551"
"2198","4878.713"
"2199","4887.047"
"2200","4799.369"
"2201","4652.793"
"2202","4585.708"
"2203","4657.209"
"2204","4720.076"
"2205","4638.202"
"2206","4502.819"
"2207","4469.224"
"2208","4528.886"
"2209","4559.443"
"2210","4517.871"
"2211","4476.876"
"2212","4486.772"
"2213","4506.042"
"2214","4487.141"
"2215","4452.64"
"2216","4450.973"
"2217","4497.354"
"2218","4579.734"
"2219","4656.245"
"2220","4639.125"
"2221","4485.35"
"2222","4311.07"
"2223","4244.592"
"2224","4269.456"
"2225","4309.848"
"2226","4338.744"
"2227","4370.296"
"2228","4394.514"
"2229","4359.843"
"2230","4243.747"
"2231","4131.981"
"2232","4116.791"
"2233","4178.711"
"2234","4252.525"
"2235","4301.481"
"2236","4312.441"
"2237","4278.556"
"2238","4201.715"
"2239","4097.879"
"2240","4023.25"
"2241","4027.091"
"2242","4066.749"
"2243","4067.867"
"2244","4009.095"
"2245","3908.633"
"2246","3807.74"
"2247","3777.653"
"2248","3850.707"
"2249","3953.426"
"2250","4006.931"
"2251","3991.795"
"2252","3911.835"
"2253","3817.8"
"2254","3786"
"2255","3810.903"
"2256","3796.731"
"2257","3691.766"
"2258","3542.379"
"2259","3412.638"
"2260","3388.49"
"2261","3535.355"
"2262","3722.342"
"2263","3740.903"
"2264","3588.358"
"2265","3430.487"
"2266","3346.467"
"2267","3281.576"
"2268","3203.629"
"2269","3168.057"
"2270","3220.151"
"2271","3282.807"
"2272","3250.697"
"2273","3117.954"
"2274","2936.417"
"2275","2787.355"
"2276","2779.168"
"2277","2913.709"
"2278","3008.248"
"2279","2932.25"
"2280","2771.872"
"2281","2646.778"
"2282","2630.371"
"2283","2764.334"
"2284","2918.28"
"2285","2865.104"
"2286","2627.947"
"2287","2492.231"
"2288","2559.949"
"2289","2584.401"
"2290","2390.929"
"2291","2141.159"
"2292","2025.548"
"2293","2029.733"
"2294","2070.303"
"2295","2084.719"
"2296","2025.915"
"2297","1917.738"
"2298","1853.141"
"2299","1866.656"
"2300","1892.553"
