,"Scan 01106"
"400","8596.679"
"401","8605.826"
"402","8597.814"
"403","8568.921"
"404","8528.525"
"405","8490.175"
"406","8467.305"
"407","8470.898"
"408","8492.742"
"409","8515.414"
"410","8521.559"
"411","8495.53"
"412","8442.357"
"413","8381.418"
"414","8332.242"
"415","8313.428"
"416","8325.731"
"417","8352.543"
"418","8376.634"
"419","8381.211"
"420","8362.495"
"421","8334.183"
"422","8311.118"
"423","8307.945"
"424","8330.335"
"425","8367.536"
"426","8407.104"
"427","8436.697"
"428","8447.673"
"429","8440.538"
"430","8417.192"
"431","8379.517"
"432","8331.41"
"433","8283.584"
"434","8248.122"
"435","8237.032"
"436","8258.061"
"437","8299.98"
"438","8346.292"
"439","8380.608"
"440","8389.487"
"441","8376.512"
"442","8351.491"
"443","8324.18"
"444","8303.287"
"445","8289.893"
"446","8281.503"
"447","8275.624"
"448","8269.889"
"449","8263.059"
"450","8254.55"
"451","8243.791"
"452","8230.462"
"453","8217.472"
"454","8209.988"
"455","8213.191"
"456","8231.622"
"457","8259.478"
"458","8282.357"
"459","8285.696"
"460","8255.771"
"461","8195.547"
"462","8124.209"
"463","8061.484"
"464","8026.449"
"465","8022.78"
"466","8036.984"
"467","8054.742"
"468","8062.05"
"469","8053.304"
"470","8033.501"
"471","8008.29"
"472","7983.252"
"473","7962.462"
"474","7947.885"
"475","7941.313"
"476","7944.489"
"477","7956.833"
"478","7974.169"
"479","7992.04"
"480","8006.031"
"481","8013.211"
"482","8013.106"
"483","8005.482"
"484","7990.119"
"485","7968.345"
"486","7944.234"
"487","7922.125"
"488","7906.293"
"489","7897.588"
"490","7890.478"
"491","7878.753"
"492","7856.295"
"493","7822.045"
"494","7784.667"
"495","7753.872"
"496","7739.266"
"497","7743.089"
"498","7753.26"
"499","7756.108"
"500","7738.11"
"501","7694.23"
"502","7635.896"
"503","7576.376"
"504","7528.801"
"505","7499.403"
"506","7481.277"
"507","7466.071"
"508","7445.522"
"509","7415.408"
"510","7378.95"
"511","7340.158"
"512","7303"
"513","7269.333"
"514","7237.337"
"515","7204.822"
"516","7169.645"
"517","7132.167"
"518","7096.879"
"519","7068.636"
"520","7052.2"
"521","7048.635"
"522","7053.362"
"523","7061.358"
"524","7067.661"
"525","7068.99"
"526","7064.388"
"527","7053.082"
"528","7034.345"
"529","7009.335"
"530","6981.535"
"531","6954.563"
"532","6931.916"
"533","6914.289"
"534","6899.291"
"535","6884.381"
"536","6867.162"
"537","6848.024"
"538","6830.034"
"539","6816.355"
"540","6809.897"
"541","6809.583"
"542","6811.034"
"543","6809.798"
"544","6801.767"
"545","6787.066"
"546","6768.796"
"547","6750.094"
"548","6733.932"
"549","6721.658"
"550","6713.68"
"551","6710.386"
"552","6712.162"
"553","6719.351"
"554","6732.278"
"555","6751.264"
"556","6775.651"
"557","6798.715"
"558","6811.455"
"559","6804.906"
"560","6773.364"
"561","6726.47"
"562","6678.374"
"563","6643.16"
"564","6630.596"
"565","6634.991"
"566","6647.18"
"567","6658.048"
"568","6660.675"
"569","6654.061"
"570","6638.215"
"571","6613.153"
"572","6580.61"
"573","6545.83"
"574","6514.477"
"575","6492.137"
"576","6481.83"
"577","6482.639"
"578","6493.324"
"579","6512.573"
"580","6537.01"
"581","6560.897"
"582","6578.389"
"583","6584.052"
"584","6579.149"
"585","6570.572"
"586","6565.355"
"587","6569.797"
"588","6582.514"
"589","6597.448"
"590","6608.503"
"591","6610.355"
"592","6602.988"
"593","6588.662"
"594","6569.636"
"595","6548.468"
"596","6529.165"
"597","6516.14"
"598","6513.788"
"599","6523.527"
"600","6537.552"
"601","6546.309"
"602","6540.319"
"603","6516.359"
"604","6484.073"
"605","6454.657"
"606","6439.122"
"607","6441.895"
"608","6458.308"
"609","6483.041"
"610","6510.87"
"611","6538.047"
"612","6562.187"
"613","6580.972"
"614","6592.249"
"615","6595.597"
"616","6591.662"
"617","6581.096"
"618","6565.088"
"619","6548.229"
"620","6536.417"
"621","6535.536"
"622","6548.126"
"623","6564.044"
"624","6570.158"
"625","6553.424"
"626","6509.158"
"627","6451.873"
"628","6398.724"
"629","6366.597"
"630","6362.129"
"631","6377.452"
"632","6403.62"
"633","6431.894"
"634","6456.831"
"635","6475.887"
"636","6486.628"
"637","6486.979"
"638","6478.104"
"639","6462.903"
"640","6444.282"
"641","6425.087"
"642","6407.92"
"643","6395.297"
"644","6389.729"
"645","6392.451"
"646","6401.186"
"647","6413.062"
"648","6425.215"
"649","6434.696"
"650","6438.415"
"651","6433.278"
"652","6416.466"
"653","6390.472"
"654","6362.673"
"655","6340.608"
"656","6331.106"
"657","6334.804"
"658","6349.081"
"659","6371.295"
"660","6398.621"
"661","6427.343"
"662","6453.506"
"663","6473.172"
"664","6483.326"
"665","6483.148"
"666","6472.145"
"667","6449.933"
"668","6420.605"
"669","6394.043"
"670","6380.486"
"671","6389.139"
"672","6415.827"
"673","6446.873"
"674","6468.435"
"675","6469.263"
"676","6453.617"
"677","6431.547"
"678","6413.082"
"679","6405.621"
"680","6408.835"
"681","6420.977"
"682","6440.278"
"683","6463.609"
"684","6485.799"
"685","6501.516"
"686","6505.833"
"687","6499.981"
"688","6490.035"
"689","6482.189"
"690","6481.659"
"691","6487.429"
"692","6495.997"
"693","6503.872"
"694","6507.792"
"695","6505.202"
"696","6493.68"
"697","6470.92"
"698","6440.589"
"699","6415.024"
"700","6407.221"
"701","6428.817"
"702","6473.024"
"703","6519.664"
"704","6548.287"
"705","6543.245"
"706","6515.458"
"707","6485.054"
"708","6472.098"
"709","6486.649"
"710","6513.948"
"711","6535.472"
"712","6533.273"
"713","6505.926"
"714","6471.397"
"715","6448.716"
"716","6454.623"
"717","6483.965"
"718","6519.367"
"719","6543.347"
"720","6543.869"
"721","6530.25"
"722","6517.063"
"723","6518.73"
"724","6539.984"
"725","6568.854"
"726","6591.746"
"727","6595.876"
"728","6581.013"
"729","6556.904"
"730","6533.562"
"731","6519.613"
"732","6515.954"
"733","6520.753"
"734","6532.176"
"735","6548.253"
"736","6566.706"
"737","6585.198"
"738","6601.405"
"739","6612.812"
"740","6616.715"
"741","6610.408"
"742","6592.313"
"743","6569.152"
"744","6551.374"
"745","6549.413"
"746","6568.221"
"747","6597.083"
"748","6622.516"
"749","6631.465"
"750","6624.217"
"751","6617.063"
"752","6627.22"
"753","6668.899"
"754","6730.424"
"755","6786.834"
"756","6813.107"
"757","6794.927"
"758","6752.089"
"759","6711.159"
"760","6698.159"
"761","6719.983"
"762","6758.976"
"763","6795.886"
"764","6813.436"
"765","6812.142"
"766","6802.015"
"767","6793.149"
"768","6792.553"
"769","6797.336"
"770","6802.624"
"771","6803.676"
"772","6800.486"
"773","6798.994"
"774","6805.516"
"775","6825.328"
"776","6854.896"
"777","6886.217"
"778","6911.265"
"779","6924.9"
"780","6930.453"
"781","6932.804"
"782","6936.752"
"783","6944.792"
"784","6956.819"
"785","6972.594"
"786","6991.518"
"787","7010.427"
"788","7025.039"
"789","7031.079"
"790","7026.902"
"791","7017.345"
"792","7008.22"
"793","7005.083"
"794","7008.411"
"795","7013.941"
"796","7017.239"
"797","7014.903"
"798","7009.269"
"799","7004.653"
"800","7005.354"
"801","7014.065"
"802","7030.458"
"803","7053.867"
"804","7083.355"
"805","7114.467"
"806","7140.239"
"807","7153.668"
"808","7150.583"
"809","7137.936"
"810","7125.396"
"811","7122.475"
"812","7132.098"
"813","7148.309"
"814","7164.522"
"815","7174.918"
"816","7179.935"
"817","7183.085"
"818","7187.894"
"819","7195.685"
"820","7202.16"
"821","7202.133"
"822","7190.79"
"823","7170.313"
"824","7149.186"
"825","7136.107"
"826","7137.979"
"827","7152.916"
"828","7176.336"
"829","7203.656"
"830","7229.841"
"831","7249.152"
"832","7255.786"
"833","7245.22"
"834","7225.032"
"835","7209.463"
"836","7212.804"
"837","7242.356"
"838","7286.167"
"839","7329.01"
"840","7356.19"
"841","7363.542"
"842","7356.614"
"843","7341.321"
"844","7323.638"
"845","7309.869"
"846","7306.411"
"847","7319.563"
"848","7350.211"
"849","7391.193"
"850","7434.699"
"851","7473.325"
"852","7503.109"
"853","7521.795"
"854","7527.148"
"855","7519.434"
"856","7504.836"
"857","7490.396"
"858","7482.79"
"859","7483.286"
"860","7488.965"
"861","7496.805"
"862","7504.266"
"863","7510.658"
"864","7515.712"
"865","7519.214"
"866","7522.424"
"867","7528.296"
"868","7539.876"
"869","7559.084"
"870","7581.215"
"871","7599.172"
"872","7605.939"
"873","7601.166"
"874","7595.609"
"875","7601.079"
"876","7627.728"
"877","7670.754"
"878","7717.438"
"879","7755.005"
"880","7774.68"
"881","7777.244"
"882","7764.873"
"883","7740.197"
"884","7712.311"
"885","7695.073"
"886","7702.45"
"887","7741.518"
"888","7796.157"
"889","7845.381"
"890","7868.969"
"891","7863.968"
"892","7844.567"
"893","7825.684"
"894","7819.856"
"895","7828.571"
"896","7850.117"
"897","7882.696"
"898","7921.167"
"899","7956.067"
"900","7977.641"
"901","7978.834"
"902","7969.442"
"903","7965.742"
"904","7983.827"
"905","8025.506"
"906","8068.969"
"907","8090.185"
"908","8069.327"
"909","8021.155"
"910","7977.411"
"911","7969.836"
"912","8011.46"
"913","8076.649"
"914","8134.981"
"915","8158.72"
"916","8148.776"
"917","8123.394"
"918","8101.038"
"919","8092.511"
"920","8089.24"
"921","8079.635"
"922","8053.256"
"923","8015.35"
"924","7982.5"
"925","7971.542"
"926","7992.211"
"927","8032.791"
"928","8077.523"
"929","8111.239"
"930","8128.851"
"931","8133.739"
"932","8129.55"
"933","8119.723"
"934","8106.994"
"935","8093.935"
"936","8083.128"
"937","8077.311"
"938","8079.355"
"939","8092.144"
"940","8116.342"
"941","8143.683"
"942","8163.659"
"943","8166.193"
"944","8152.089"
"945","8133.605"
"946","8123.555"
"947","8131.195"
"948","8149.977"
"949","8168.947"
"950","8177.385"
"951","8171.378"
"952","8154.759"
"953","8131.779"
"954","8106.544"
"955","8082.42"
"956","8062.553"
"957","8049.988"
"958","8044.251"
"959","8040.654"
"960","8034.248"
"961","8021.609"
"962","8006.998"
"963","7997.101"
"964","7998.46"
"965","8012.397"
"966","8033.727"
"967","8056.853"
"968","8076.712"
"969","8090.979"
"970","8098.224"
"971","8097.12"
"972","8090.364"
"973","8085.716"
"974","8091.261"
"975","8112.081"
"976","8137.632"
"977","8152.289"
"978","8140.814"
"979","8102.251"
"980","8053.481"
"981","8012.517"
"982","7993.835"
"983","7993.851"
"984","8003.229"
"985","8012.729"
"986","8016.532"
"987","8012.968"
"988","8000.618"
"989","7979.74"
"990","7958.786"
"991","7948.707"
"992","7960.127"
"993","7993.541"
"994","8037.698"
"995","8080.689"
"996","8113.009"
"997","8136.171"
"998","8154.832"
"999","8173.443"
"1000","8190.707"
"1001","8199.102"
"1002","8190.792"
"1003","8161.927"
"1004","8125.397"
"1005","8098.483"
"1006","8098.454"
"1007","8132.57"
"1008","8182.938"
"1009","8227.761"
"1010","8247.146"
"1011","8240.972"
"1012","8220.785"
"1013","8198.274"
"1014","8182.298"
"1015","8176.17"
"1016","8182.555"
"1017","8203.041"
"1018","8231.114"
"1019","8256.569"
"1020","8269.319"
"1021","8267.422"
"1022","8261.086"
"1023","8261.53"
"1024","8277.423"
"1025","8303.795"
"1026","8331.116"
"1027","8350.068"
"1028","8357.218"
"1029","8355.604"
"1030","8348.618"
"1031","8339.874"
"1032","8333.886"
"1033","8335.356"
"1034","8348.583"
"1035","8371.27"
"1036","8395.974"
"1037","8415.116"
"1038","8424.627"
"1039","8429.088"
"1040","8434.401"
"1041","8445.758"
"1042","8461.867"
"1043","8478.004"
"1044","8489.433"
"1045","8494.257"
"1046","8495.156"
"1047","8495.242"
"1048","8497.232"
"1049","8501.745"
"1050","8508.683"
"1051","8517.928"
"1052","8528.976"
"1053","8540.91"
"1054","8552.793"
"1055","8563.773"
"1056","8573.274"
"1057","8580.783"
"1058","8586.123"
"1059","8593.189"
"1060","8608.528"
"1061","8638.681"
"1062","8683.564"
"1063","8730.511"
"1064","8765.428"
"1065","8777.395"
"1066","8775.079"
"1067","8774.627"
"1068","8791.657"
"1069","8826.17"
"1070","8860.819"
"1071","8877.328"
"1072","8865.696"
"1073","8843.112"
"1074","8832.36"
"1075","8853.677"
"1076","8898.374"
"1077","8939.533"
"1078","8950.127"
"1079","8920.09"
"1080","8869.036"
"1081","8819.586"
"1082","8790.566"
"1083","8780.512"
"1084","8781.225"
"1085","8784.785"
"1086","8789.251"
"1087","8798.259"
"1088","8815.653"
"1089","8841.089"
"1090","8863.399"
"1091","8869.696"
"1092","8849.56"
"1093","8812.329"
"1094","8776.818"
"1095","8761.504"
"1096","8769.512"
"1097","8784.404"
"1098","8788.461"
"1099","8770.445"
"1100","8742.066"
"1101","8720.104"
"1102","8719.581"
"1103","8735.857"
"1104","8752.023"
"1105","8751.144"
"1106","8727.715"
"1107","8694.591"
"1108","8666.285"
"1109","8654.646"
"1110","8659.614"
"1111","8677.838"
"1112","8705.78"
"1113","8737.438"
"1114","8764.968"
"1115","8780.501"
"1116","8779.049"
"1117","8760.979"
"1118","8727.248"
"1119","8680.824"
"1120","8634.888"
"1121","8605.861"
"1122","8608.982"
"1123","8639.883"
"1124","8678.252"
"1125","8703.378"
"1126","8705.394"
"1127","8695.983"
"1128","8689.402"
"1129","8696.385"
"1130","8709.01"
"1131","8713.208"
"1132","8695.97"
"1133","8662.118"
"1134","8631.082"
"1135","8622.634"
"1136","8644.177"
"1137","8678.993"
"1138","8707.572"
"1139","8714.567"
"1140","8705.611"
"1141","8692.901"
"1142","8687.93"
"1143","8691.694"
"1144","8697.199"
"1145","8697.301"
"1146","8689.912"
"1147","8681.82"
"1148","8680.714"
"1149","8691.468"
"1150","8706.725"
"1151","8715.816"
"1152","8709.218"
"1153","8690.977"
"1154","8673.967"
"1155","8671.051"
"1156","8686.433"
"1157","8711.692"
"1158","8737.41"
"1159","8756.242"
"1160","8767.95"
"1161","8773.804"
"1162","8775.183"
"1163","8774.437"
"1164","8774.407"
"1165","8777.903"
"1166","8786.834"
"1167","8802.092"
"1168","8824.506"
"1169","8852.225"
"1170","8876.759"
"1171","8888.614"
"1172","8880.696"
"1173","8859.993"
"1174","8838.593"
"1175","8827.954"
"1176","8829.413"
"1177","8836.272"
"1178","8841.668"
"1179","8842.996"
"1180","8844.753"
"1181","8852.119"
"1182","8868.237"
"1183","8888.717"
"1184","8907.436"
"1185","8918.619"
"1186","8919.617"
"1187","8909.377"
"1188","8887.073"
"1189","8857.357"
"1190","8830.679"
"1191","8817.74"
"1192","8823.688"
"1193","8841.577"
"1194","8862.863"
"1195","8880.403"
"1196","8893.684"
"1197","8904.16"
"1198","8913.124"
"1199","8920.07"
"1200","8923.361"
"1201","8921.455"
"1202","8916.307"
"1203","8914.151"
"1204","8921.49"
"1205","8941.531"
"1206","8969.423"
"1207","8999.094"
"1208","9025.273"
"1209","9046.85"
"1210","9064.038"
"1211","9076.822"
"1212","9082.355"
"1213","9075.957"
"1214","9053.161"
"1215","9018.059"
"1216","8985.28"
"1217","8970.092"
"1218","8980.79"
"1219","9009.147"
"1220","9044.521"
"1221","9077.083"
"1222","9100.909"
"1223","9111.237"
"1224","9104.351"
"1225","9087.118"
"1226","9072.579"
"1227","9073.34"
"1228","9088.198"
"1229","9101.096"
"1230","9095.326"
"1231","9066.623"
"1232","9035.29"
"1233","9024.538"
"1234","9050.457"
"1235","9102.188"
"1236","9162.481"
"1237","9215.131"
"1238","9251.771"
"1239","9267.587"
"1240","9258.651"
"1241","9235.389"
"1242","9219.927"
"1243","9234.315"
"1244","9279.258"
"1245","9324.849"
"1246","9338.842"
"1247","9307.866"
"1248","9266.993"
"1249","9258.97"
"1250","9314.887"
"1251","9410.285"
"1252","9504.197"
"1253","9559.13"
"1254","9569.548"
"1255","9546.954"
"1256","9503.165"
"1257","9452.734"
"1258","9412.72"
"1259","9400.066"
"1260","9419.166"
"1261","9455.113"
"1262","9491.356"
"1263","9516.779"
"1264","9534.606"
"1265","9550.408"
"1266","9568.233"
"1267","9585.096"
"1268","9595.95"
"1269","9596.743"
"1270","9591.735"
"1271","9589.351"
"1272","9597.406"
"1273","9613.017"
"1274","9624.512"
"1275","9620.208"
"1276","9599.103"
"1277","9574.281"
"1278","9559.789"
"1279","9564.573"
"1280","9586.67"
"1281","9622.703"
"1282","9667.525"
"1283","9709.706"
"1284","9736.405"
"1285","9737.14"
"1286","9715.566"
"1287","9680.591"
"1288","9640.975"
"1289","9603.937"
"1290","9575.782"
"1291","9562.575"
"1292","9565.856"
"1293","9583.007"
"1294","9611.213"
"1295","9645.951"
"1296","9680.301"
"1297","9707.177"
"1298","9723.364"
"1299","9734.047"
"1300","9745.503"
"1301","9761.68"
"1302","9778.605"
"1303","9790.636"
"1304","9793.547"
"1305","9790.806"
"1306","9788.448"
"1307","9791.629"
"1308","9797.886"
"1309","9800.869"
"1310","9794.636"
"1311","9779.57"
"1312","9760.845"
"1313","9743.64"
"1314","9729.981"
"1315","9718.434"
"1316","9707.408"
"1317","9696.363"
"1318","9686.44"
"1319","9678.92"
"1320","9674.625"
"1321","9673.302"
"1322","9674.556"
"1323","9678.321"
"1324","9685.67"
"1325","9697.921"
"1326","9714.618"
"1327","9726.462"
"1328","9721.393"
"1329","9690.221"
"1330","9645.031"
"1331","9607.468"
"1332","9597.059"
"1333","9608.796"
"1334","9622.257"
"1335","9617.828"
"1336","9595.168"
"1337","9570.56"
"1338","9560.478"
"1339","9569.682"
"1340","9589.213"
"1341","9609.351"
"1342","9622.306"
"1343","9623.349"
"1344","9608.048"
"1345","9578.309"
"1346","9549.558"
"1347","9538.969"
"1348","9555.087"
"1349","9581.372"
"1350","9596.757"
"1351","9588.201"
"1352","9574.429"
"1353","9582.028"
"1354","9629.142"
"1355","9688.643"
"1356","9718.287"
"1357","9683.689"
"1358","9607.704"
"1359","9538.455"
"1360","9519.17"
"1361","9542.983"
"1362","9574.376"
"1363","9579.901"
"1364","9559.91"
"1365","9539.42"
"1366","9542.879"
"1367","9571.742"
"1368","9606.326"
"1369","9626.595"
"1370","9626.074"
"1371","9613.854"
"1372","9599.816"
"1373","9590.243"
"1374","9586.275"
"1375","9588.622"
"1376","9593.896"
"1377","9591.515"
"1378","9570.222"
"1379","9530.083"
"1380","9495.607"
"1381","9494.479"
"1382","9536.732"
"1383","9585.649"
"1384","9596.841"
"1385","9545.694"
"1386","9471.738"
"1387","9427.498"
"1388","9449.182"
"1389","9508.604"
"1390","9561.69"
"1391","9574.227"
"1392","9559.06"
"1393","9543.021"
"1394","9548.153"
"1395","9569.101"
"1396","9590.79"
"1397","9599.402"
"1398","9589.651"
"1399","9559.822"
"1400","9510.058"
"1401","9455.505"
"1402","9418.547"
"1403","9418.872"
"1404","9449.772"
"1405","9489.917"
"1406","9519.017"
"1407","9530.394"
"1408","9525.919"
"1409","9508.259"
"1410","9488.691"
"1411","9484.583"
"1412","9511.784"
"1413","9560.416"
"1414","9600.374"
"1415","9603.003"
"1416","9576.202"
"1417","9559.575"
"1418","9591.615"
"1419","9664.633"
"1420","9727.092"
"1421","9727.75"
"1422","9665.371"
"1423","9590.241"
"1424","9553.846"
"1425","9574.347"
"1426","9632.964"
"1427","9709.032"
"1428","9783.688"
"1429","9840.189"
"1430","9862.528"
"1431","9857.257"
"1432","9859.184"
"1433","9904.133"
"1434","9995.23"
"1435","10092.57"
"1436","10153.99"
"1437","10169.94"
"1438","10175.58"
"1439","10208.71"
"1440","10276.28"
"1441","10341.48"
"1442","10364.65"
"1443","10334.27"
"1444","10279.71"
"1445","10233.3"
"1446","10211.32"
"1447","10206.36"
"1448","10209.06"
"1449","10211.29"
"1450","10206.74"
"1451","10189.29"
"1452","10158.09"
"1453","10120.06"
"1454","10082.75"
"1455","10051.39"
"1456","10027.86"
"1457","10013.67"
"1458","10006.97"
"1459","10001.01"
"1460","9988.679"
"1461","9966.396"
"1462","9935.565"
"1463","9897.955"
"1464","9854.604"
"1465","9805.557"
"1466","9750.874"
"1467","9694.65"
"1468","9646.315"
"1469","9615.406"
"1470","9601.132"
"1471","9589.635"
"1472","9566.471"
"1473","9525.907"
"1474","9472.639"
"1475","9412.098"
"1476","9353.057"
"1477","9308.04"
"1478","9289.146"
"1479","9292.582"
"1480","9297.933"
"1481","9284.784"
"1482","9250.269"
"1483","9208.478"
"1484","9173.818"
"1485","9153.246"
"1486","9147.123"
"1487","9155.104"
"1488","9169.23"
"1489","9175.394"
"1490","9160.384"
"1491","9125.857"
"1492","9084.267"
"1493","9047.821"
"1494","9022.827"
"1495","9011.783"
"1496","9016.584"
"1497","9033.795"
"1498","9056.932"
"1499","9079.515"
"1500","9095.507"
"1501","9099.095"
"1502","9086.141"
"1503","9064.565"
"1504","9047.551"
"1505","9045.057"
"1506","9047.473"
"1507","9037.889"
"1508","9004.509"
"1509","8961.534"
"1510","8931.37"
"1511","8930.965"
"1512","8954.197"
"1513","8988.865"
"1514","9023.966"
"1515","9052.693"
"1516","9069.146"
"1517","9068.731"
"1518","9050.607"
"1519","9014.615"
"1520","8966.114"
"1521","8923.348"
"1522","8906.306"
"1523","8920"
"1524","8940.778"
"1525","8942.006"
"1526","8914.412"
"1527","8875.818"
"1528","8846.178"
"1529","8836.242"
"1530","8845.106"
"1531","8870.739"
"1532","8902.226"
"1533","8919.535"
"1534","8903.743"
"1535","8861.317"
"1536","8819.586"
"1537","8803.771"
"1538","8806.697"
"1539","8800.033"
"1540","8759.985"
"1541","8705.101"
"1542","8675.565"
"1543","8703"
"1544","8763.102"
"1545","8809.557"
"1546","8808.056"
"1547","8781.675"
"1548","8770.542"
"1549","8799.034"
"1550","8835.917"
"1551","8837.719"
"1552","8784.469"
"1553","8717.654"
"1554","8688.457"
"1555","8717.616"
"1556","8766.614"
"1557","8790.623"
"1558","8772.875"
"1559","8737.383"
"1560","8710.682"
"1561","8700.201"
"1562","8692.635"
"1563","8674.604"
"1564","8648.431"
"1565","8629.085"
"1566","8629.956"
"1567","8644.208"
"1568","8653.062"
"1569","8640.282"
"1570","8608.528"
"1571","8568.462"
"1572","8530.621"
"1573","8504.711"
"1574","8500.207"
"1575","8521.262"
"1576","8554.665"
"1577","8583.679"
"1578","8597.454"
"1579","8598.437"
"1580","8590.917"
"1581","8580.649"
"1582","8575.69"
"1583","8583.884"
"1584","8601.464"
"1585","8611.865"
"1586","8599.287"
"1587","8569.554"
"1588","8545.122"
"1589","8545.69"
"1590","8562.136"
"1591","8570.093"
"1592","8550.638"
"1593","8516.684"
"1594","8492.402"
"1595","8493.63"
"1596","8505.629"
"1597","8506.691"
"1598","8486.904"
"1599","8464.311"
"1600","8460.765"
"1601","8482.679"
"1602","8512.335"
"1603","8530.44"
"1604","8530.854"
"1605","8521.114"
"1606","8508.975"
"1607","8496.879"
"1608","8483.604"
"1609","8469.45"
"1610","8466.349"
"1611","8491.402"
"1612","8553.078"
"1613","8621.533"
"1614","8656.344"
"1615","8635.156"
"1616","8584.479"
"1617","8538.85"
"1618","8520.777"
"1619","8532.471"
"1620","8573.591"
"1621","8628.103"
"1622","8663.193"
"1623","8648.523"
"1624","8595.265"
"1625","8542.677"
"1626","8524.911"
"1627","8537.556"
"1628","8560.159"
"1629","8576.66"
"1630","8588.455"
"1631","8601.19"
"1632","8614.771"
"1633","8615.947"
"1634","8590.098"
"1635","8544.356"
"1636","8515.906"
"1637","8541.4"
"1638","8609.606"
"1639","8668.962"
"1640","8673.748"
"1641","8639.033"
"1642","8610.551"
"1643","8623.485"
"1644","8662.982"
"1645","8699.771"
"1646","8716.727"
"1647","8728.033"
"1648","8752.583"
"1649","8795.002"
"1650","8838.765"
"1651","8866.653"
"1652","8880.263"
"1653","8897.552"
"1654","8933.324"
"1655","8970.98"
"1656","8978.15"
"1657","8934.484"
"1658","8873.188"
"1659","8842.146"
"1660","8862.54"
"1661","8892.421"
"1662","8881.572"
"1663","8816.276"
"1664","8730.964"
"1665","8661.56"
"1666","8617.41"
"1667","8588.014"
"1668","8564.093"
"1669","8547.841"
"1670","8546.15"
"1671","8560.862"
"1672","8576.558"
"1673","8574.245"
"1674","8545.465"
"1675","8500.634"
"1676","8452.205"
"1677","8413.895"
"1678","8400.659"
"1679","8423.401"
"1680","8455.869"
"1681","8452.082"
"1682","8382.992"
"1683","8293.902"
"1684","8250.115"
"1685","8278.094"
"1686","8319.963"
"1687","8308.756"
"1688","8237.98"
"1689","8170.176"
"1690","8165.08"
"1691","8211.451"
"1692","8255.217"
"1693","8252.656"
"1694","8213.315"
"1695","8162.848"
"1696","8122.054"
"1697","8100.392"
"1698","8105.202"
"1699","8127.395"
"1700","8138.402"
"1701","8111.668"
"1702","8054.899"
"1703","7996.687"
"1704","7962.745"
"1705","7963.596"
"1706","8005.217"
"1707","8077.935"
"1708","8137.477"
"1709","8136.578"
"1710","8075.137"
"1711","8004.813"
"1712","7974.819"
"1713","7985.927"
"1714","8012.453"
"1715","8032.824"
"1716","8043.388"
"1717","8044.985"
"1718","8034.586"
"1719","8001.978"
"1720","7937.613"
"1721","7860.373"
"1722","7814.921"
"1723","7837.893"
"1724","7901.857"
"1725","7951.648"
"1726","7952.602"
"1727","7933.189"
"1728","7933.34"
"1729","7964.849"
"1730","8000.063"
"1731","8010.522"
"1732","7994.5"
"1733","7968.092"
"1734","7945.638"
"1735","7931.408"
"1736","7926.669"
"1737","7932.367"
"1738","7948.791"
"1739","7975.875"
"1740","8007.837"
"1741","8033.472"
"1742","8042.42"
"1743","8031.922"
"1744","8002.504"
"1745","7959.623"
"1746","7922.885"
"1747","7913.871"
"1748","7932.584"
"1749","7951.771"
"1750","7945.337"
"1751","7916.454"
"1752","7884.976"
"1753","7866.005"
"1754","7855.743"
"1755","7845.969"
"1756","7832.802"
"1757","7819.237"
"1758","7808.908"
"1759","7805.632"
"1760","7813.36"
"1761","7833.089"
"1762","7851.974"
"1763","7853.212"
"1764","7832.457"
"1765","7808.701"
"1766","7802.109"
"1767","7809.769"
"1768","7810.107"
"1769","7786.72"
"1770","7754.01"
"1771","7736.627"
"1772","7744.765"
"1773","7758.535"
"1774","7755.702"
"1775","7740.386"
"1776","7739.736"
"1777","7773.86"
"1778","7817.682"
"1779","7830.103"
"1780","7794.357"
"1781","7746.341"
"1782","7726.909"
"1783","7739.756"
"1784","7755.592"
"1785","7748.747"
"1786","7721.088"
"1787","7684.247"
"1788","7650.282"
"1789","7632.075"
"1790","7641.372"
"1791","7667.814"
"1792","7682.301"
"1793","7664.074"
"1794","7639.822"
"1795","7651.637"
"1796","7712.256"
"1797","7778.085"
"1798","7802.33"
"1799","7786.194"
"1800","7767.398"
"1801","7774.625"
"1802","7790.986"
"1803","7786.867"
"1804","7751.536"
"1805","7705.305"
"1806","7670.43"
"1807","7657.833"
"1808","7671.19"
"1809","7707.423"
"1810","7739.203"
"1811","7734.32"
"1812","7690.537"
"1813","7645.372"
"1814","7633.707"
"1815","7644.039"
"1816","7641.475"
"1817","7607.28"
"1818","7567.911"
"1819","7556.505"
"1820","7580.089"
"1821","7619.285"
"1822","7654.304"
"1823","7670.167"
"1824","7653.761"
"1825","7607.909"
"1826","7566.844"
"1827","7565.471"
"1828","7596.302"
"1829","7621.096"
"1830","7612.182"
"1831","7586.716"
"1832","7572.501"
"1833","7577.024"
"1834","7580.434"
"1835","7563.992"
"1836","7533.872"
"1837","7508.294"
"1838","7499.273"
"1839","7503.122"
"1840","7513.957"
"1841","7529.915"
"1842","7552.638"
"1843","7581.01"
"1844","7600.385"
"1845","7592.447"
"1846","7558.179"
"1847","7527.824"
"1848","7529.729"
"1849","7552.53"
"1850","7563.873"
"1851","7547.044"
"1852","7527.111"
"1853","7534.17"
"1854","7563.898"
"1855","7581.371"
"1856","7560.721"
"1857","7523.249"
"1858","7503.487"
"1859","7512.787"
"1860","7529.006"
"1861","7530.668"
"1862","7523.319"
"1863","7525.589"
"1864","7544.552"
"1865","7560.142"
"1866","7550.47"
"1867","7524.641"
"1868","7515.534"
"1869","7543.389"
"1870","7578.357"
"1871","7579.998"
"1872","7547.068"
"1873","7524.013"
"1874","7546.998"
"1875","7586.349"
"1876","7588.281"
"1877","7538.4"
"1878","7490.743"
"1879","7499.112"
"1880","7548.07"
"1881","7583.529"
"1882","7570.422"
"1883","7523.627"
"1884","7466.005"
"1885","7421.374"
"1886","7414.339"
"1887","7455.555"
"1888","7503.233"
"1889","7505.211"
"1890","7465.901"
"1891","7452.471"
"1892","7514.604"
"1893","7589.632"
"1894","7578.576"
"1895","7464.481"
"1896","7353.636"
"1897","7345.955"
"1898","7413.637"
"1899","7470.493"
"1900","7469.304"
"1901","7441.462"
"1902","7424.861"
"1903","7426.297"
"1904","7433.801"
"1905","7440.278"
"1906","7452.095"
"1907","7476.407"
"1908","7499.641"
"1909","7492.28"
"1910","7440.37"
"1911","7383.637"
"1912","7370.871"
"1913","7402.938"
"1914","7435.176"
"1915","7432.974"
"1916","7411.966"
"1917","7400.426"
"1918","7408.653"
"1919","7426.404"
"1920","7443.019"
"1921","7451.679"
"1922","7446.918"
"1923","7429.746"
"1924","7409.856"
"1925","7396.842"
"1926","7395.784"
"1927","7409.866"
"1928","7430.599"
"1929","7431.553"
"1930","7391.226"
"1931","7334.168"
"1932","7304.46"
"1933","7316.221"
"1934","7331.816"
"1935","7315.061"
"1936","7282.805"
"1937","7277.037"
"1938","7314.421"
"1939","7363.68"
"1940","7391.576"
"1941","7394.685"
"1942","7384.912"
"1943","7371.088"
"1944","7355.599"
"1945","7340.406"
"1946","7330.54"
"1947","7332.625"
"1948","7342.919"
"1949","7336.184"
"1950","7289.071"
"1951","7222.336"
"1952","7181.049"
"1953","7189.627"
"1954","7228.601"
"1955","7273.158"
"1956","7300.725"
"1957","7290.014"
"1958","7236.67"
"1959","7171.146"
"1960","7125.756"
"1961","7109.783"
"1962","7120.157"
"1963","7149.958"
"1964","7184.935"
"1965","7210.284"
"1966","7214.312"
"1967","7187.024"
"1968","7134.26"
"1969","7090.948"
"1970","7089.848"
"1971","7121.893"
"1972","7158.592"
"1973","7179.347"
"1974","7177.05"
"1975","7148.289"
"1976","7106.178"
"1977","7070.607"
"1978","7052.256"
"1979","7048"
"1980","7052.586"
"1981","7054.919"
"1982","7042.041"
"1983","7012.332"
"1984","6978.868"
"1985","6955.104"
"1986","6951.329"
"1987","6976.026"
"1988","7014.081"
"1989","7024.426"
"1990","6982.59"
"1991","6936.438"
"1992","6948.194"
"1993","7002.865"
"1994","7015.036"
"1995","6936.352"
"1996","6845.68"
"1997","6839.954"
"1998","6909.883"
"1999","6967.943"
"2000","6960.681"
"2001","6924.52"
"2002","6905.606"
"2003","6908.122"
"2004","6912.026"
"2005","6905.447"
"2006","6892.75"
"2007","6879.581"
"2008","6867.5"
"2009","6856.179"
"2010","6840.68"
"2011","6809.437"
"2012","6757.457"
"2013","6716.442"
"2014","6728.206"
"2015","6787.305"
"2016","6837.56"
"2017","6834.969"
"2018","6789.235"
"2019","6722.75"
"2020","6665.564"
"2021","6653.675"
"2022","6699.464"
"2023","6755.85"
"2024","6772.241"
"2025","6752.427"
"2026","6729.755"
"2027","6716.236"
"2028","6686.758"
"2029","6624.15"
"2030","6580.701"
"2031","6631.637"
"2032","6762.91"
"2033","6856.336"
"2034","6822.94"
"2035","6708.129"
"2036","6587.646"
"2037","6511.007"
"2038","6507.274"
"2039","6577.102"
"2040","6654.615"
"2041","6672.347"
"2042","6633.633"
"2043","6577.228"
"2044","6532.341"
"2045","6513.28"
"2046","6526.686"
"2047","6547.299"
"2048","6541.731"
"2049","6513.325"
"2050","6500.273"
"2051","6522.527"
"2052","6543.59"
"2053","6522.273"
"2054","6473.013"
"2055","6442.28"
"2056","6452.706"
"2057","6485.972"
"2058","6521.273"
"2059","6546.059"
"2060","6550.767"
"2061","6531.975"
"2062","6492.401"
"2063","6439.672"
"2064","6394.978"
"2065","6379.381"
"2066","6386.985"
"2067","6396.472"
"2068","6396.412"
"2069","6391.803"
"2070","6386.707"
"2071","6372.897"
"2072","6339.458"
"2073","6298.32"
"2074","6282.164"
"2075","6306.81"
"2076","6342.699"
"2077","6356.122"
"2078","6339.299"
"2079","6297.484"
"2080","6248.104"
"2081","6224.919"
"2082","6249.051"
"2083","6286.903"
"2084","6294.922"
"2085","6278.522"
"2086","6278.026"
"2087","6307.208"
"2088","6326.987"
"2089","6302.646"
"2090","6260.17"
"2091","6245.398"
"2092","6260.66"
"2093","6265.603"
"2094","6233.653"
"2095","6179.793"
"2096","6126.327"
"2097","6099.017"
"2098","6124.332"
"2099","6190.092"
"2100","6234.844"
"2101","6217.068"
"2102","6176.518"
"2103","6165.475"
"2104","6177.973"
"2105","6172.629"
"2106","6132.603"
"2107","6080.668"
"2108","6040.171"
"2109","6021.334"
"2110","6029.462"
"2111","6050.545"
"2112","6056.456"
"2113","6031.735"
"2114","5985.233"
"2115","5933.211"
"2116","5916.154"
"2117","5977.746"
"2118","6081.549"
"2119","6124.395"
"2120","6061.835"
"2121","5976.938"
"2122","5950.998"
"2123","5961.332"
"2124","5950.934"
"2125","5917.324"
"2126","5907.263"
"2127","5944.529"
"2128","5997.452"
"2129","6028.975"
"2130","6015.719"
"2131","5941.811"
"2132","5841.182"
"2133","5793.842"
"2134","5830.529"
"2135","5866.321"
"2136","5820.443"
"2137","5734.478"
"2138","5691.938"
"2139","5701.8"
"2140","5705.285"
"2141","5668.668"
"2142","5618.193"
"2143","5583.938"
"2144","5572.66"
"2145","5583.147"
"2146","5617.168"
"2147","5678.847"
"2148","5747.098"
"2149","5750.915"
"2150","5642.372"
"2151","5519.501"
"2152","5515.707"
"2153","5611.212"
"2154","5671.853"
"2155","5632.792"
"2156","5553.52"
"2157","5492.211"
"2158","5449.128"
"2159","5411.031"
"2160","5383.947"
"2161","5385.733"
"2162","5414.926"
"2163","5442.263"
"2164","5446.555"
"2165","5440.981"
"2166","5443.652"
"2167","5453"
"2168","5457.725"
"2169","5453.451"
"2170","5443.711"
"2171","5433.685"
"2172","5431.597"
"2173","5442.467"
"2174","5448.408"
"2175","5424.899"
"2176","5385.066"
"2177","5373.824"
"2178","5399.982"
"2179","5403.568"
"2180","5338.436"
"2181","5250.489"
"2182","5204.632"
"2183","5202.108"
"2184","5205.591"
"2185","5192.38"
"2186","5159.616"
"2187","5116.492"
"2188","5102.731"
"2189","5151.075"
"2190","5210.173"
"2191","5198.92"
"2192","5129.44"
"2193","5095.611"
"2194","5134.368"
"2195","5172.271"
"2196","5149.621"
"2197","5112.669"
"2198","5125.385"
"2199","5158.186"
"2200","5130.895"
"2201","5035.883"
"2202","4950.524"
"2203","4928.87"
"2204","4956.466"
"2205","5006.037"
"2206","5036.4"
"2207","5005.516"
"2208","4923.437"
"2209","4836.815"
"2210","4785.82"
"2211","4800.228"
"2212","4885.103"
"2213","4975.212"
"2214","5004.113"
"2215","4981.965"
"2216","4948.131"
"2217","4921.739"
"2218","4905.375"
"2219","4888.42"
"2220","4840.105"
"2221","4750.854"
"2222","4685.878"
"2223","4710.169"
"2224","4778.951"
"2225","4803.818"
"2226","4759.533"
"2227","4674.689"
"2228","4588.571"
"2229","4555.027"
"2230","4599.482"
"2231","4649.087"
"2232","4626.572"
"2233","4565.934"
"2234","4544.698"
"2235","4577.526"
"2236","4627.139"
"2237","4650.471"
"2238","4598.026"
"2239","4456.125"
"2240","4321.815"
"2241","4292.078"
"2242","4330.76"
"2243","4355.142"
"2244","4348.861"
"2245","4343.925"
"2246","4351.05"
"2247","4350.479"
"2248","4332.366"
"2249","4317.977"
"2250","4322.632"
"2251","4305.964"
"2252","4217.587"
"2253","4090.475"
"2254","4005.889"
"2255","3982.206"
"2256","3967.907"
"2257","3929.972"
"2258","3879.908"
"2259","3836.194"
"2260","3823.409"
"2261","3857.933"
"2262","3882.887"
"2263","3815.568"
"2264","3702.424"
"2265","3694.071"
"2266","3811.625"
"2267","3882.717"
"2268","3795.575"
"2269","3639.844"
"2270","3519.419"
"2271","3443.786"
"2272","3394.162"
"2273","3361.806"
"2274","3343.244"
"2275","3325.876"
"2276","3288.32"
"2277","3231.901"
"2278","3197.505"
"2279","3206.72"
"2280","3209.956"
"2281","3158.372"
"2282","3084.988"
"2283","3044.685"
"2284","3015.493"
"2285","2931.343"
"2286","2813.353"
"2287","2773.931"
"2288","2839.97"
"2289","2878.512"
"2290","2792.268"
"2291","2646.576"
"2292","2523.26"
"2293","2419.529"
"2294","2308.491"
"2295","2217.498"
"2296","2202.344"
"2297","2229.772"
"2298","2179.461"
"2299","2026.659"
"2300","1908.609"
