,"Scan 01150"
"400","9438.459"
"401","9450.715"
"402","9452.018"
"403","9435.787"
"404","9405.79"
"405","9369.104"
"406","9332.745"
"407","9303.055"
"408","9281.191"
"409","9265.826"
"410","9255.622"
"411","9249.291"
"412","9246.092"
"413","9245.667"
"414","9247.669"
"415","9251.75"
"416","9257.557"
"417","9264.722"
"418","9272.883"
"419","9281.685"
"420","9291.063"
"421","9301.334"
"422","9312.842"
"423","9325.926"
"424","9340.689"
"425","9356.804"
"426","9373.9"
"427","9391.607"
"428","9408.906"
"429","9423.152"
"430","9431.47"
"431","9430.999"
"432","9420.32"
"433","9402.805"
"434","9382.811"
"435","9364.678"
"436","9352.074"
"437","9345.814"
"438","9345.899"
"439","9352.339"
"440","9364.78"
"441","9380.828"
"442","9397.324"
"443","9411.143"
"444","9419.374"
"445","9420.712"
"446","9414.597"
"447","9400.479"
"448","9378.123"
"449","9350.449"
"450","9322.186"
"451","9298.056"
"452","9282.439"
"453","9275.635"
"454","9275.079"
"455","9278.167"
"456","9282.349"
"457","9285.847"
"458","9287.514"
"459","9286.233"
"460","9280.972"
"461","9272.317"
"462","9262.452"
"463","9253.603"
"464","9247.886"
"465","9244.507"
"466","9239.425"
"467","9228.457"
"468","9207.59"
"469","9178.269"
"470","9148.824"
"471","9127.991"
"472","9124.289"
"473","9138.794"
"474","9162.114"
"475","9184.115"
"476","9194.84"
"477","9191.004"
"478","9179.629"
"479","9168.582"
"480","9165.613"
"481","9173.63"
"482","9187.463"
"483","9201.198"
"484","9208.992"
"485","9208.053"
"486","9200.989"
"487","9190.946"
"488","9181.051"
"489","9173.258"
"490","9167.364"
"491","9162.935"
"492","9159.527"
"493","9155.959"
"494","9149.599"
"495","9137.666"
"496","9117.406"
"497","9086.741"
"498","9044.896"
"499","8991.26"
"500","8925.247"
"501","8850.122"
"502","8776.65"
"503","8716.408"
"504","8680.821"
"505","8672.892"
"506","8679.528"
"507","8685.886"
"508","8677.299"
"509","8647.811"
"510","8607.538"
"511","8568.28"
"512","8541.683"
"513","8531.012"
"514","8524.845"
"515","8510.322"
"516","8474.803"
"517","8416.105"
"518","8349.296"
"519","8290.967"
"520","8257.448"
"521","8254.438"
"522","8271.476"
"523","8296.79"
"524","8318.774"
"525","8330.146"
"526","8329.601"
"527","8316.289"
"528","8289.473"
"529","8252.344"
"530","8212.995"
"531","8179.782"
"532","8160.775"
"533","8157.208"
"534","8162.792"
"535","8170.872"
"536","8175.016"
"537","8172.798"
"538","8165.635"
"539","8155.096"
"540","8142.674"
"541","8128.759"
"542","8112.822"
"543","8094.31"
"544","8072.865"
"545","8050.67"
"546","8031.681"
"547","8019.867"
"548","8018.52"
"549","8024.098"
"550","8029.103"
"551","8026.018"
"552","8008.827"
"553","7983.21"
"554","7960.394"
"555","7951.584"
"556","7965.456"
"557","7995.37"
"558","8028.887"
"559","8053.622"
"560","8059.721"
"561","8049.177"
"562","8027.476"
"563","8000.087"
"564","7971.693"
"565","7944.226"
"566","7918.987"
"567","7897.273"
"568","7881.319"
"569","7875.921"
"570","7886.297"
"571","7917.591"
"572","7967.902"
"573","8020.908"
"574","8058.587"
"575","8063.229"
"576","8030.598"
"577","7977.092"
"578","7920.789"
"579","7879.346"
"580","7860.038"
"581","7858.309"
"582","7868.974"
"583","7886.85"
"584","7906.469"
"585","7922.134"
"586","7928.148"
"587","7919.77"
"588","7902.202"
"589","7886.69"
"590","7884.515"
"591","7904.74"
"592","7941.019"
"593","7980.416"
"594","8010.027"
"595","8019.23"
"596","8007.922"
"597","7979.07"
"598","7935.627"
"599","7882.921"
"600","7833.663"
"601","7801.954"
"602","7801.755"
"603","7835.213"
"604","7880.119"
"605","7911.345"
"606","7904.315"
"607","7855.293"
"608","7789.349"
"609","7733.577"
"610","7713.814"
"611","7732.419"
"612","7769.996"
"613","7806.393"
"614","7822.974"
"615","7816.719"
"616","7794.175"
"617","7761.994"
"618","7727.052"
"619","7697.728"
"620","7682.974"
"621","7691.711"
"622","7727.896"
"623","7776.65"
"624","7818.664"
"625","7834.74"
"626","7815.891"
"627","7776.543"
"628","7734.356"
"629","7706.693"
"630","7699.246"
"631","7701.192"
"632","7700.491"
"633","7685.822"
"634","7658.626"
"635","7631.542"
"636","7617.563"
"637","7627.895"
"638","7657.837"
"639","7694.195"
"640","7723.732"
"641","7735.877"
"642","7733.157"
"643","7722.155"
"644","7709.428"
"645","7699.51"
"646","7691.358"
"647","7682.974"
"648","7672.416"
"649","7660.785"
"650","7654.005"
"651","7658.401"
"652","7679.748"
"653","7712.972"
"654","7743.023"
"655","7754.531"
"656","7734.721"
"657","7693.8"
"658","7654.036"
"659","7637.737"
"660","7660.775"
"661","7709.904"
"662","7763.637"
"663","7800.585"
"664","7808.561"
"665","7797.198"
"666","7779.292"
"667","7767.428"
"668","7767.743"
"669","7778.038"
"670","7795.567"
"671","7817.405"
"672","7838.206"
"673","7850.895"
"674","7848.388"
"675","7825.51"
"676","7788.58"
"677","7748.204"
"678","7714.959"
"679","7696.144"
"680","7689.397"
"681","7690.583"
"682","7695.608"
"683","7701.712"
"684","7708.162"
"685","7714.387"
"686","7719.873"
"687","7724.964"
"688","7730.67"
"689","7738.022"
"690","7748.035"
"691","7761.672"
"692","7779.872"
"693","7803.571"
"694","7831.877"
"695","7858.419"
"696","7875.819"
"697","7876.845"
"698","7860.891"
"699","7836.983"
"700","7814.885"
"701","7803.689"
"702","7803.501"
"703","7807.887"
"704","7810.274"
"705","7805.533"
"706","7796.518"
"707","7788.842"
"708","7788.109"
"709","7796.871"
"710","7810.144"
"711","7821.796"
"712","7825.872"
"713","7821.488"
"714","7813.71"
"715","7807.928"
"716","7808.979"
"717","7816.396"
"718","7826.759"
"719","7836.614"
"720","7843.412"
"721","7848.152"
"722","7852.701"
"723","7858.905"
"724","7867.143"
"725","7875.25"
"726","7880.823"
"727","7881.741"
"728","7880.495"
"729","7883.223"
"730","7896.155"
"731","7923.349"
"732","7956.552"
"733","7983.197"
"734","7990.749"
"735","7974.206"
"736","7946.03"
"737","7921.133"
"738","7913.915"
"739","7926.948"
"740","7950.694"
"741","7975.09"
"742","7991.063"
"743","7996.821"
"744","7993.836"
"745","7983.587"
"746","7967.781"
"747","7948.745"
"748","7928.919"
"749","7910.786"
"750","7898.24"
"751","7896.864"
"752","7912.346"
"753","7948.701"
"754","7995.575"
"755","8035.245"
"756","8049.957"
"757","8030.831"
"758","7997.255"
"759","7974.228"
"760","7986.103"
"761","8034.182"
"762","8090.17"
"763","8123.868"
"764","8109.158"
"765","8056.896"
"766","7997.673"
"767","7962.218"
"768","7970.502"
"769","8007.907"
"770","8052.875"
"771","8084.237"
"772","8093.848"
"773","8089.932"
"774","8081.743"
"775","8077.846"
"776","8080.922"
"777","8090.68"
"778","8106.798"
"779","8128.703"
"780","8155.064"
"781","8184.406"
"782","8215.212"
"783","8244.396"
"784","8267.129"
"785","8278.479"
"786","8274.558"
"787","8258.935"
"788","8238.448"
"789","8219.939"
"790","8207.29"
"791","8197.14"
"792","8185.032"
"793","8166.873"
"794","8145.825"
"795","8131.814"
"796","8135.018"
"797","8162.395"
"798","8203.075"
"799","8240.045"
"800","8256.403"
"801","8246.729"
"802","8227.292"
"803","8216.76"
"804","8232.182"
"805","8269.371"
"806","8309.091"
"807","8331.806"
"808","8324.425"
"809","8299.103"
"810","8274.164"
"811","8267.626"
"812","8284.609"
"813","8312.835"
"814","8338.798"
"815","8350.632"
"816","8349.934"
"817","8344.908"
"818","8343.79"
"819","8350.815"
"820","8360.003"
"821","8363.763"
"822","8355.047"
"823","8337.02"
"824","8322.028"
"825","8322.738"
"826","8347.78"
"827","8385.956"
"828","8420.006"
"829","8432.874"
"830","8419.534"
"831","8393.914"
"832","8371.606"
"833","8366.608"
"834","8377.908"
"835","8396.218"
"836","8412.177"
"837","8419.29"
"838","8418.943"
"839","8413.872"
"840","8406.797"
"841","8400.219"
"842","8396.434"
"843","8397.737"
"844","8405.727"
"845","8418.668"
"846","8433.827"
"847","8448.501"
"848","8461.489"
"849","8473.832"
"850","8486.76"
"851","8501.138"
"852","8514.902"
"853","8524.521"
"854","8526.462"
"855","8519.81"
"856","8509.837"
"857","8502.711"
"858","8504.178"
"859","8513.563"
"860","8525.237"
"861","8533.451"
"862","8534.521"
"863","8532.514"
"864","8533.331"
"865","8542.728"
"866","8562.24"
"867","8588.541"
"868","8618.035"
"869","8647.036"
"870","8671.266"
"871","8686.228"
"872","8687.513"
"873","8676.598"
"874","8664.78"
"875","8664.292"
"876","8685.709"
"877","8724.684"
"878","8768.955"
"879","8806.218"
"880","8828"
"881","8835.01"
"882","8829.282"
"883","8812.916"
"884","8788.803"
"885","8760.422"
"886","8731.263"
"887","8705.441"
"888","8689.156"
"889","8689.043"
"890","8711.375"
"891","8754.093"
"892","8806.881"
"893","8859.069"
"894","8901.648"
"895","8933.32"
"896","8955.031"
"897","8967.741"
"898","8973.365"
"899","8975.05"
"900","8976.022"
"901","8978.478"
"902","8978.166"
"903","8968.358"
"904","8942.463"
"905","8903.892"
"906","8872.632"
"907","8870.218"
"908","8914.09"
"909","8988.001"
"910","9059.162"
"911","9094.779"
"912","9080.625"
"913","9040.786"
"914","9004.102"
"915","8996.931"
"916","9019.096"
"917","9054.377"
"918","9086.334"
"919","9102.253"
"920","9098.823"
"921","9074.192"
"922","9027.621"
"923","8973.439"
"924","8936.88"
"925","8943.41"
"926","9005.531"
"927","9096.53"
"928","9182.311"
"929","9230.343"
"930","9234.976"
"931","9213.134"
"932","9182.443"
"933","9157.58"
"934","9142.765"
"935","9139.92"
"936","9150.711"
"937","9171.521"
"938","9193.696"
"939","9208.385"
"940","9209.123"
"941","9199.074"
"942","9183.816"
"943","9168.826"
"944","9157.013"
"945","9148.566"
"946","9143.558"
"947","9141.309"
"948","9137.842"
"949","9128.256"
"950","9107.968"
"951","9081.697"
"952","9064.758"
"953","9073.041"
"954","9116.692"
"955","9178.211"
"956","9231.798"
"957","9252.23"
"958","9233.797"
"959","9194.244"
"960","9152.722"
"961","9125.387"
"962","9113.223"
"963","9112.439"
"964","9119.23"
"965","9129.646"
"966","9139.563"
"967","9144.839"
"968","9142.771"
"969","9138.127"
"970","9138.093"
"971","9149.634"
"972","9171.32"
"973","9191.17"
"974","9196.512"
"975","9177.998"
"976","9143.584"
"977","9106.848"
"978","9081.101"
"979","9069.961"
"980","9064.929"
"981","9056.739"
"982","9039.226"
"983","9022.025"
"984","9019.813"
"985","9046.761"
"986","9100.134"
"987","9156.632"
"988","9191.711"
"989","9188.021"
"990","9163.378"
"991","9146.324"
"992","9164.547"
"993","9219.364"
"994","9281.527"
"995","9320.064"
"996","9312.464"
"997","9274.928"
"998","9234.724"
"999","9218.4"
"1000","9232.817"
"1001","9263.465"
"1002","9294.77"
"1003","9314.221"
"1004","9322.186"
"1005","9322.417"
"1006","9318.659"
"1007","9313.89"
"1008","9309.125"
"1009","9305.082"
"1010","9302.431"
"1011","9301.354"
"1012","9301.747"
"1013","9303.51"
"1014","9307.413"
"1015","9315.959"
"1016","9331.852"
"1017","9357.054"
"1018","9387.969"
"1019","9418.464"
"1020","9442.455"
"1021","9457.595"
"1022","9467.116"
"1023","9474.716"
"1024","9483.428"
"1025","9492.765"
"1026","9501.063"
"1027","9506.747"
"1028","9510.781"
"1029","9516.913"
"1030","9529.044"
"1031","9549.36"
"1032","9573.723"
"1033","9596.53"
"1034","9612.315"
"1035","9617.742"
"1036","9611.136"
"1037","9590.885"
"1038","9560.515"
"1039","9536.24"
"1040","9536.214"
"1041","9575.413"
"1042","9639.983"
"1043","9700.744"
"1044","9728.632"
"1045","9714.095"
"1046","9679.3"
"1047","9649.325"
"1048","9644.255"
"1049","9656.82"
"1050","9670.474"
"1051","9669.145"
"1052","9649.263"
"1053","9620.375"
"1054","9592.645"
"1055","9574.966"
"1056","9572.099"
"1057","9587.967"
"1058","9625.46"
"1059","9675.203"
"1060","9719.805"
"1061","9741.822"
"1062","9734.166"
"1063","9709.439"
"1064","9682.452"
"1065","9666.226"
"1066","9662.625"
"1067","9669.271"
"1068","9683.708"
"1069","9701.565"
"1070","9716.358"
"1071","9721.482"
"1072","9714.606"
"1073","9707.437"
"1074","9714.572"
"1075","9748.734"
"1076","9801.307"
"1077","9850.229"
"1078","9873.361"
"1079","9861.186"
"1080","9826.294"
"1081","9783.506"
"1082","9746.333"
"1083","9721.227"
"1084","9712.307"
"1085","9723.275"
"1086","9749.347"
"1087","9777.785"
"1088","9795.545"
"1089","9795.009"
"1090","9782.541"
"1091","9766.721"
"1092","9755.368"
"1093","9750.123"
"1094","9749.652"
"1095","9752.632"
"1096","9758.427"
"1097","9767.285"
"1098","9779.514"
"1099","9794.569"
"1100","9808.935"
"1101","9818.42"
"1102","9819.365"
"1103","9813.986"
"1104","9808.155"
"1105","9807.741"
"1106","9814.382"
"1107","9822.89"
"1108","9827.476"
"1109","9824.084"
"1110","9816.412"
"1111","9810.315"
"1112","9811.054"
"1113","9815.441"
"1114","9814.013"
"1115","9797.229"
"1116","9764.475"
"1117","9731.746"
"1118","9716.863"
"1119","9732.213"
"1120","9762.487"
"1121","9783.597"
"1122","9773.135"
"1123","9736.426"
"1124","9701.357"
"1125","9696.348"
"1126","9731.158"
"1127","9778.422"
"1128","9806.355"
"1129","9790.924"
"1130","9749.113"
"1131","9711.468"
"1132","9706.669"
"1133","9732.429"
"1134","9761.057"
"1135","9764.247"
"1136","9731.505"
"1137","9687.095"
"1138","9659.311"
"1139","9669.953"
"1140","9708.224"
"1141","9753.107"
"1142","9784.636"
"1143","9798.566"
"1144","9802.611"
"1145","9804.754"
"1146","9809.58"
"1147","9815.71"
"1148","9821.16"
"1149","9823.969"
"1150","9822.286"
"1151","9814.285"
"1152","9799.024"
"1153","9785.931"
"1154","9791.179"
"1155","9830.636"
"1156","9897.768"
"1157","9953.421"
"1158","9955.848"
"1159","9883.249"
"1160","9781.898"
"1161","9712.583"
"1162","9727.645"
"1163","9806.441"
"1164","9891.122"
"1165","9925.152"
"1166","9899.062"
"1167","9856.005"
"1168","9841.887"
"1169","9880.472"
"1170","9940.855"
"1171","9983.831"
"1172","9978.369"
"1173","9941.378"
"1174","9907.145"
"1175","9907.766"
"1176","9940.307"
"1177","9974.049"
"1178","9977.785"
"1179","9942.498"
"1180","9896.222"
"1181","9870.512"
"1182","9886.52"
"1183","9926.869"
"1184","9965.29"
"1185","9978.431"
"1186","9968.509"
"1187","9950.879"
"1188","9940.827"
"1189","9949.004"
"1190","9981.146"
"1191","10042.71"
"1192","10128.41"
"1193","10209.7"
"1194","10254.92"
"1195","10242.09"
"1196","10195.16"
"1197","10151.65"
"1198","10145.44"
"1199","10169.31"
"1200","10190.58"
"1201","10177.04"
"1202","10126.8"
"1203","10075.2"
"1204","10059.77"
"1205","10097.54"
"1206","10155.2"
"1207","10191.85"
"1208","10175.45"
"1209","10120.08"
"1210","10054.66"
"1211","10006.63"
"1212","9985.552"
"1213","9989.383"
"1214","10015.79"
"1215","10057.95"
"1216","10103.55"
"1217","10139.94"
"1218","10158.16"
"1219","10158.05"
"1220","10140.73"
"1221","10109.72"
"1222","10080.13"
"1223","10070.56"
"1224","10096.91"
"1225","10147.59"
"1226","10194.99"
"1227","10212.04"
"1228","10192.6"
"1229","10152.94"
"1230","10110.46"
"1231","10079.22"
"1232","10066.63"
"1233","10079.37"
"1234","10118.78"
"1235","10166.07"
"1236","10197.66"
"1237","10194.31"
"1238","10169.02"
"1239","10149.44"
"1240","10161.6"
"1241","10203.57"
"1242","10250.67"
"1243","10277.81"
"1244","10275.38"
"1245","10255.91"
"1246","10233.64"
"1247","10219.2"
"1248","10213.97"
"1249","10217.83"
"1250","10229.79"
"1251","10244.58"
"1252","10255.68"
"1253","10257.5"
"1254","10252.9"
"1255","10249.31"
"1256","10253.7"
"1257","10263.51"
"1258","10267.47"
"1259","10254.21"
"1260","10224.09"
"1261","10195.58"
"1262","10188.69"
"1263","10215.17"
"1264","10265.06"
"1265","10324.82"
"1266","10381.07"
"1267","10421.12"
"1268","10432.45"
"1269","10405.63"
"1270","10357.03"
"1271","10315.92"
"1272","10309.93"
"1273","10337.03"
"1274","10370.89"
"1275","10384.89"
"1276","10370"
"1277","10340.54"
"1278","10312.39"
"1279","10295.9"
"1280","10289.57"
"1281","10290.35"
"1282","10295.45"
"1283","10302.99"
"1284","10311.25"
"1285","10318.74"
"1286","10324.96"
"1287","10329.81"
"1288","10333.09"
"1289","10333.48"
"1290","10329.03"
"1291","10317.93"
"1292","10302.13"
"1293","10287"
"1294","10277.98"
"1295","10278.23"
"1296","10287.65"
"1297","10305.9"
"1298","10331.4"
"1299","10359.83"
"1300","10386.53"
"1301","10406.7"
"1302","10415.04"
"1303","10406.15"
"1304","10377.71"
"1305","10343.97"
"1306","10324.72"
"1307","10336.52"
"1308","10368.02"
"1309","10393.59"
"1310","10389.25"
"1311","10356.25"
"1312","10314.94"
"1313","10285.8"
"1314","10279.25"
"1315","10294.74"
"1316","10330.99"
"1317","10377.67"
"1318","10410.07"
"1319","10402.29"
"1320","10347.77"
"1321","10284.53"
"1322","10256.86"
"1323","10292.6"
"1324","10363.81"
"1325","10430.72"
"1326","10460.14"
"1327","10451.67"
"1328","10415.13"
"1329","10361.53"
"1330","10310.67"
"1331","10286.28"
"1332","10309.01"
"1333","10364.63"
"1334","10416.97"
"1335","10430.94"
"1336","10397.55"
"1337","10330.3"
"1338","10243.64"
"1339","10156.52"
"1340","10093.23"
"1341","10078.02"
"1342","10112.46"
"1343","10162.13"
"1344","10189.58"
"1345","10178.02"
"1346","10154.91"
"1347","10153.42"
"1348","10193.52"
"1349","10256.86"
"1350","10318.17"
"1351","10358.3"
"1352","10382.37"
"1353","10401.49"
"1354","10423.84"
"1355","10441.95"
"1356","10443.11"
"1357","10417.27"
"1358","10373.8"
"1359","10330.66"
"1360","10304.48"
"1361","10298.45"
"1362","10308.07"
"1363","10328.69"
"1364","10355.08"
"1365","10381.57"
"1366","10402.68"
"1367","10416.98"
"1368","10426.76"
"1369","10434.21"
"1370","10433.71"
"1371","10410.73"
"1372","10350.67"
"1373","10261.14"
"1374","10181.27"
"1375","10152.3"
"1376","10188.72"
"1377","10258.01"
"1378","10322.92"
"1379","10358.55"
"1380","10366.65"
"1381","10352.46"
"1382","10322.42"
"1383","10286.24"
"1384","10254.13"
"1385","10235.4"
"1386","10236.33"
"1387","10262.61"
"1388","10312.75"
"1389","10357.02"
"1390","10358.67"
"1391","10294.33"
"1392","10204.14"
"1393","10147.21"
"1394","10169.41"
"1395","10241.27"
"1396","10306.58"
"1397","10317.28"
"1398","10281"
"1399","10228.54"
"1400","10187.88"
"1401","10163.77"
"1402","10149.69"
"1403","10139.89"
"1404","10136.87"
"1405","10147.64"
"1406","10177.76"
"1407","10215.65"
"1408","10239.01"
"1409","10227.33"
"1410","10186.85"
"1411","10142.71"
"1412","10119.36"
"1413","10124.14"
"1414","10151.02"
"1415","10193.19"
"1416","10237.05"
"1417","10263.09"
"1418","10252.63"
"1419","10208.3"
"1420","10153.03"
"1421","10109.97"
"1422","10088.05"
"1423","10081.57"
"1424","10084.37"
"1425","10096.24"
"1426","10123.56"
"1427","10172.54"
"1428","10232.95"
"1429","10275.05"
"1430","10268.92"
"1431","10217.69"
"1432","10165.95"
"1433","10159.96"
"1434","10206.15"
"1435","10258.51"
"1436","10268.33"
"1437","10226.98"
"1438","10180.9"
"1439","10179.79"
"1440","10236.37"
"1441","10310.93"
"1442","10360.24"
"1443","10366.8"
"1444","10350.64"
"1445","10334.48"
"1446","10327.96"
"1447","10321.25"
"1448","10303.19"
"1449","10274.96"
"1450","10256.23"
"1451","10267.76"
"1452","10307.47"
"1453","10339.13"
"1454","10324.26"
"1455","10256.29"
"1456","10176.02"
"1457","10127.61"
"1458","10129.4"
"1459","10161.99"
"1460","10203.04"
"1461","10235.35"
"1462","10248.98"
"1463","10234.74"
"1464","10193.11"
"1465","10137.85"
"1466","10083.6"
"1467","10039"
"1468","10004.79"
"1469","9981.118"
"1470","9966.703"
"1471","9958.457"
"1472","9953.108"
"1473","9945.353"
"1474","9927.467"
"1475","9892.137"
"1476","9848.139"
"1477","9822.335"
"1478","9841.244"
"1479","9898.136"
"1480","9951.498"
"1481","9959.721"
"1482","9915.67"
"1483","9845.543"
"1484","9776.51"
"1485","9728.055"
"1486","9712.841"
"1487","9741.357"
"1488","9792.678"
"1489","9820.552"
"1490","9782.168"
"1491","9692.137"
"1492","9606.775"
"1493","9579.176"
"1494","9612.965"
"1495","9679.691"
"1496","9750.786"
"1497","9802.196"
"1498","9812.453"
"1499","9765.469"
"1500","9690.545"
"1501","9639.827"
"1502","9656.396"
"1503","9716.926"
"1504","9769.158"
"1505","9770.014"
"1506","9732.74"
"1507","9691.608"
"1508","9675.169"
"1509","9682.812"
"1510","9704.724"
"1511","9730.556"
"1512","9747.726"
"1513","9743.055"
"1514","9708.907"
"1515","9656.949"
"1516","9603.052"
"1517","9560.604"
"1518","9535.851"
"1519","9533.762"
"1520","9554.686"
"1521","9588.115"
"1522","9622.003"
"1523","9646.548"
"1524","9656.238"
"1525","9646.185"
"1526","9619.301"
"1527","9590.701"
"1528","9576.145"
"1529","9575.554"
"1530","9568.769"
"1531","9535.205"
"1532","9475.8"
"1533","9413.512"
"1534","9371.208"
"1535","9353.11"
"1536","9348.114"
"1537","9345.582"
"1538","9345.721"
"1539","9355.842"
"1540","9382.384"
"1541","9423.292"
"1542","9472.175"
"1543","9521.729"
"1544","9559.135"
"1545","9569.399"
"1546","9543.521"
"1547","9501.032"
"1548","9469.967"
"1549","9469.344"
"1550","9486.4"
"1551","9501.362"
"1552","9504.923"
"1553","9515.104"
"1554","9554.184"
"1555","9624.286"
"1556","9688.327"
"1557","9705.29"
"1558","9665.795"
"1559","9606.441"
"1560","9566.435"
"1561","9556.653"
"1562","9557.238"
"1563","9548.065"
"1564","9529.68"
"1565","9519.276"
"1566","9532.374"
"1567","9562.121"
"1568","9588.447"
"1569","9593.793"
"1570","9579.378"
"1571","9554.378"
"1572","9527.264"
"1573","9502.938"
"1574","9485.251"
"1575","9476.939"
"1576","9477.078"
"1577","9484"
"1578","9495.041"
"1579","9505.349"
"1580","9509.865"
"1581","9510.32"
"1582","9519.117"
"1583","9548.874"
"1584","9592.082"
"1585","9619.071"
"1586","9601.615"
"1587","9550.762"
"1588","9507.779"
"1589","9509.735"
"1590","9548.534"
"1591","9592.213"
"1592","9612.459"
"1593","9603.104"
"1594","9565.807"
"1595","9507.892"
"1596","9457.387"
"1597","9447.014"
"1598","9489.079"
"1599","9547.528"
"1600","9579.695"
"1601","9570.162"
"1602","9546.037"
"1603","9537.244"
"1604","9550.972"
"1605","9570.793"
"1606","9580.255"
"1607","9576.976"
"1608","9568.219"
"1609","9561.079"
"1610","9559.918"
"1611","9567.892"
"1612","9585.709"
"1613","9603.322"
"1614","9607.71"
"1615","9592.813"
"1616","9571.39"
"1617","9559.226"
"1618","9563.254"
"1619","9575.432"
"1620","9586.471"
"1621","9592.204"
"1622","9593.953"
"1623","9592.955"
"1624","9586.083"
"1625","9567.259"
"1626","9533.824"
"1627","9506.703"
"1628","9516.646"
"1629","9579.924"
"1630","9655.882"
"1631","9690.007"
"1632","9657.247"
"1633","9600.121"
"1634","9569.842"
"1635","9582.451"
"1636","9605.395"
"1637","9604.44"
"1638","9578.486"
"1639","9554.342"
"1640","9556.518"
"1641","9582.392"
"1642","9615.646"
"1643","9640.869"
"1644","9647.414"
"1645","9626.01"
"1646","9578.751"
"1647","9536.943"
"1648","9536.039"
"1649","9583.059"
"1650","9642.879"
"1651","9678.319"
"1652","9677.567"
"1653","9650.874"
"1654","9609.496"
"1655","9566.773"
"1656","9537.103"
"1657","9530.51"
"1658","9537.644"
"1659","9543.841"
"1660","9539.003"
"1661","9523.87"
"1662","9500.737"
"1663","9471.646"
"1664","9438.304"
"1665","9402.691"
"1666","9370.945"
"1667","9352.306"
"1668","9353.845"
"1669","9367.488"
"1670","9378.944"
"1671","9378.06"
"1672","9368.872"
"1673","9358.388"
"1674","9348.877"
"1675","9334.114"
"1676","9307.518"
"1677","9274.083"
"1678","9250.147"
"1679","9249.826"
"1680","9262.616"
"1681","9264.958"
"1682","9240.01"
"1683","9200.673"
"1684","9167.869"
"1685","9152.652"
"1686","9144.63"
"1687","9131.03"
"1688","9112.376"
"1689","9104.359"
"1690","9120.768"
"1691","9146.146"
"1692","9147.376"
"1693","9102.161"
"1694","9041.925"
"1695","9014.268"
"1696","9039.695"
"1697","9075.493"
"1698","9071.17"
"1699","9017.113"
"1700","8952.187"
"1701","8915.181"
"1702","8913.153"
"1703","8933.834"
"1704","8964.811"
"1705","8994.361"
"1706","9011.009"
"1707","9013.964"
"1708","9026.084"
"1709","9072.168"
"1710","9142.116"
"1711","9187.537"
"1712","9164.893"
"1713","9095.136"
"1714","9034.46"
"1715","9025.433"
"1716","9053.672"
"1717","9090.365"
"1718","9109.844"
"1719","9092.354"
"1720","9021.124"
"1721","8925.428"
"1722","8876.29"
"1723","8931.068"
"1724","9038.687"
"1725","9101.126"
"1726","9057.163"
"1727","8958.855"
"1728","8879.114"
"1729","8854.089"
"1730","8868.349"
"1731","8902.617"
"1732","8938.081"
"1733","8956.225"
"1734","8945.477"
"1735","8927.596"
"1736","8934.191"
"1737","8976.292"
"1738","9022.541"
"1739","9037.659"
"1740","9015.035"
"1741","8975.237"
"1742","8938.513"
"1743","8914.915"
"1744","8910.139"
"1745","8923.429"
"1746","8935.571"
"1747","8924.581"
"1748","8889.557"
"1749","8856.235"
"1750","8849.542"
"1751","8868.997"
"1752","8899.627"
"1753","8926.756"
"1754","8937.552"
"1755","8919.837"
"1756","8876.857"
"1757","8836.288"
"1758","8825.565"
"1759","8839.868"
"1760","8851.718"
"1761","8839.98"
"1762","8815.587"
"1763","8798.752"
"1764","8798.389"
"1765","8802.235"
"1766","8796.938"
"1767","8789.475"
"1768","8803.283"
"1769","8852.496"
"1770","8898.573"
"1771","8885.538"
"1772","8797.582"
"1773","8702.458"
"1774","8674.617"
"1775","8718.124"
"1776","8775.522"
"1777","8796.767"
"1778","8786.92"
"1779","8770.655"
"1780","8766.25"
"1781","8778.042"
"1782","8808.153"
"1783","8850.891"
"1784","8893.637"
"1785","8924.488"
"1786","8937.21"
"1787","8927.618"
"1788","8900.906"
"1789","8881.952"
"1790","8895.94"
"1791","8929.337"
"1792","8935.769"
"1793","8881.479"
"1794","8805.288"
"1795","8769.646"
"1796","8801.038"
"1797","8856.921"
"1798","8889.44"
"1799","8888.872"
"1800","8874.483"
"1801","8861.018"
"1802","8839.158"
"1803","8793.055"
"1804","8729.694"
"1805","8693.567"
"1806","8726.861"
"1807","8804.044"
"1808","8856.165"
"1809","8840.038"
"1810","8809.739"
"1811","8840.027"
"1812","8936.704"
"1813","9014.111"
"1814","8991.987"
"1815","8891.141"
"1816","8783.37"
"1817","8721.311"
"1818","8703.322"
"1819","8718.314"
"1820","8751.122"
"1821","8782.472"
"1822","8795.105"
"1823","8785.204"
"1824","8753.93"
"1825","8709.182"
"1826","8672.124"
"1827","8663.779"
"1828","8681.395"
"1829","8704.966"
"1830","8719.387"
"1831","8730.604"
"1832","8749.454"
"1833","8772.696"
"1834","8778.159"
"1835","8747.094"
"1836","8699.538"
"1837","8674.276"
"1838","8692.377"
"1839","8730.351"
"1840","8758.908"
"1841","8768.569"
"1842","8767.14"
"1843","8761.857"
"1844","8754.476"
"1845","8745.174"
"1846","8735.678"
"1847","8730.048"
"1848","8731.192"
"1849","8729.793"
"1850","8710.063"
"1851","8664.336"
"1852","8606.517"
"1853","8553.93"
"1854","8521.505"
"1855","8522.044"
"1856","8560.804"
"1857","8608.403"
"1858","8625.964"
"1859","8604.075"
"1860","8575.9"
"1861","8572.962"
"1862","8585.88"
"1863","8585.463"
"1864","8557.856"
"1865","8525.281"
"1866","8513.396"
"1867","8521.943"
"1868","8530.79"
"1869","8525.445"
"1870","8514.719"
"1871","8512.523"
"1872","8520.551"
"1873","8526.24"
"1874","8520.085"
"1875","8515.938"
"1876","8536.102"
"1877","8580.244"
"1878","8608.759"
"1879","8584.837"
"1880","8537.271"
"1881","8531.457"
"1882","8594.868"
"1883","8656.805"
"1884","8636.838"
"1885","8548.894"
"1886","8482.395"
"1887","8499.527"
"1888","8551.899"
"1889","8567.132"
"1890","8530.006"
"1891","8488.705"
"1892","8483.564"
"1893","8494.354"
"1894","8481.076"
"1895","8434.987"
"1896","8394.313"
"1897","8395.234"
"1898","8428.175"
"1899","8462.637"
"1900","8480.676"
"1901","8489.709"
"1902","8499.068"
"1903","8506.207"
"1904","8501.426"
"1905","8484.585"
"1906","8480.771"
"1907","8516.567"
"1908","8579.264"
"1909","8625.923"
"1910","8628.005"
"1911","8608.091"
"1912","8598.371"
"1913","8606.751"
"1914","8618.07"
"1915","8619.969"
"1916","8615.818"
"1917","8612.889"
"1918","8611.296"
"1919","8602.978"
"1920","8582.565"
"1921","8560.88"
"1922","8553.582"
"1923","8560.658"
"1924","8561.056"
"1925","8536.262"
"1926","8492.559"
"1927","8445.58"
"1928","8409.79"
"1929","8397.8"
"1930","8419.214"
"1931","8463.32"
"1932","8510.574"
"1933","8537.631"
"1934","8514.756"
"1935","8421.607"
"1936","8318.171"
"1937","8302.297"
"1938","8401.045"
"1939","8507.927"
"1940","8516.165"
"1941","8447.573"
"1942","8389.978"
"1943","8391.847"
"1944","8421.664"
"1945","8441.206"
"1946","8439.039"
"1947","8418.248"
"1948","8389.837"
"1949","8380.889"
"1950","8415.963"
"1951","8475.913"
"1952","8517.446"
"1953","8511.542"
"1954","8459.714"
"1955","8371.719"
"1956","8298.778"
"1957","8314.666"
"1958","8430.271"
"1959","8526.574"
"1960","8486.63"
"1961","8361.655"
"1962","8292.373"
"1963","8339.798"
"1964","8405.874"
"1965","8388.904"
"1966","8317.239"
"1967","8284.604"
"1968","8329.292"
"1969","8386.489"
"1970","8390.502"
"1971","8356.089"
"1972","8335.23"
"1973","8354.379"
"1974","8396.767"
"1975","8442.64"
"1976","8480.417"
"1977","8501.853"
"1978","8496.57"
"1979","8451.035"
"1980","8360.876"
"1981","8277.043"
"1982","8269.047"
"1983","8340.434"
"1984","8409.255"
"1985","8406.896"
"1986","8359.393"
"1987","8320.88"
"1988","8317.004"
"1989","8342.063"
"1990","8385.027"
"1991","8420.056"
"1992","8418.986"
"1993","8382.94"
"1994","8339.737"
"1995","8311.019"
"1996","8295.343"
"1997","8286.928"
"1998","8283.738"
"1999","8286.479"
"2000","8289.737"
"2001","8272.732"
"2002","8217.139"
"2003","8153.681"
"2004","8141.18"
"2005","8194.682"
"2006","8244.767"
"2007","8228.06"
"2008","8195.308"
"2009","8245.73"
"2010","8383.995"
"2011","8477.772"
"2012","8419.6"
"2013","8287.478"
"2014","8215.14"
"2015","8226.847"
"2016","8229.262"
"2017","8156.739"
"2018","8065.54"
"2019","8034.46"
"2020","8062.649"
"2021","8087.236"
"2022","8071.975"
"2023","8051.446"
"2024","8065.996"
"2025","8106.812"
"2026","8138.28"
"2027","8138.697"
"2028","8110.739"
"2029","8063.729"
"2030","8032.223"
"2031","8058.617"
"2032","8135.991"
"2033","8199.909"
"2034","8199.983"
"2035","8152.158"
"2036","8088.251"
"2037","8041.279"
"2038","8045.127"
"2039","8101.909"
"2040","8137.818"
"2041","8080.93"
"2042","7971.1"
"2043","7903.38"
"2044","7911.645"
"2045","7936.747"
"2046","7925.361"
"2047","7891.622"
"2048","7869.659"
"2049","7877.27"
"2050","7916.749"
"2051","7975.905"
"2052","8002.88"
"2053","7947.188"
"2054","7845.492"
"2055","7784.48"
"2056","7797.762"
"2057","7828.272"
"2058","7820.437"
"2059","7774.953"
"2060","7711.914"
"2061","7662.009"
"2062","7666.498"
"2063","7739.244"
"2064","7812.075"
"2065","7810.042"
"2066","7743.232"
"2067","7670.417"
"2068","7624.927"
"2069","7597.643"
"2070","7578.046"
"2071","7568.175"
"2072","7573.895"
"2073","7598.997"
"2074","7645.359"
"2075","7699.469"
"2076","7708.593"
"2077","7627.005"
"2078","7519.229"
"2079","7501.938"
"2080","7592.67"
"2081","7674.15"
"2082","7654.609"
"2083","7581.811"
"2084","7532.95"
"2085","7516.487"
"2086","7491.778"
"2087","7438.184"
"2088","7375.878"
"2089","7328.74"
"2090","7314.613"
"2091","7347.928"
"2092","7413.94"
"2093","7469.323"
"2094","7484.462"
"2095","7469.589"
"2096","7444.093"
"2097","7447.853"
"2098","7528.579"
"2099","7651.4"
"2100","7676.18"
"2101","7522.709"
"2102","7344.849"
"2103","7328.762"
"2104","7450.042"
"2105","7555.985"
"2106","7567.229"
"2107","7523.426"
"2108","7467.614"
"2109","7411.349"
"2110","7356.868"
"2111","7295.399"
"2112","7210.343"
"2113","7113.672"
"2114","7070.874"
"2115","7128.784"
"2116","7207.178"
"2117","7192.017"
"2118","7093.2"
"2119","7024.029"
"2120","7041.92"
"2121","7080.275"
"2122","7071.487"
"2123","7032.948"
"2124","7010.953"
"2125","7023.132"
"2126","7061.147"
"2127","7113.279"
"2128","7162.383"
"2129","7189.826"
"2130","7172.92"
"2131","7090.593"
"2132","6986.259"
"2133","6963.032"
"2134","7056.116"
"2135","7141.756"
"2136","7099.357"
"2137","6961.626"
"2138","6816.612"
"2139","6715.03"
"2140","6673.435"
"2141","6685.518"
"2142","6698.056"
"2143","6665.194"
"2144","6618.501"
"2145","6614.345"
"2146","6665.601"
"2147","6748.174"
"2148","6830.402"
"2149","6868.109"
"2150","6828.366"
"2151","6742.717"
"2152","6661.678"
"2153","6616.771"
"2154","6625.008"
"2155","6681.251"
"2156","6742.878"
"2157","6768.245"
"2158","6736.083"
"2159","6635.558"
"2160","6514.073"
"2161","6454.981"
"2162","6488.438"
"2163","6567.896"
"2164","6638.758"
"2165","6639.795"
"2166","6523.681"
"2167","6375.308"
"2168","6341.865"
"2169","6427.664"
"2170","6475.444"
"2171","6399.493"
"2172","6318.288"
"2173","6352.555"
"2174","6437.404"
"2175","6445.127"
"2176","6391.123"
"2177","6411.875"
"2178","6530.292"
"2179","6551.729"
"2180","6333.629"
"2181","6060.471"
"2182","5981.207"
"2183","6085.183"
"2184","6205.162"
"2185","6262.2"
"2186","6295.511"
"2187","6327.553"
"2188","6310.282"
"2189","6199.158"
"2190","6058.099"
"2191","5990.823"
"2192","6006.869"
"2193","6032.82"
"2194","6017.765"
"2195","5957.775"
"2196","5866.666"
"2197","5810.14"
"2198","5854.872"
"2199","5944.969"
"2200","5958.416"
"2201","5874.471"
"2202","5791.028"
"2203","5768.777"
"2204","5761.715"
"2205","5724.681"
"2206","5702.938"
"2207","5763.791"
"2208","5864.107"
"2209","5884.754"
"2210","5797.712"
"2211","5706.227"
"2212","5682.65"
"2213","5678.878"
"2214","5637.73"
"2215","5586.259"
"2216","5581.257"
"2217","5618.601"
"2218","5645.45"
"2219","5635.512"
"2220","5606.859"
"2221","5574.302"
"2222","5529.148"
"2223","5465.066"
"2224","5425.809"
"2225","5471.555"
"2226","5572.298"
"2227","5622.397"
"2228","5579.389"
"2229","5508.284"
"2230","5462.182"
"2231","5421.819"
"2232","5362.227"
"2233","5322.2"
"2234","5362.046"
"2235","5448.625"
"2236","5472.905"
"2237","5392.304"
"2238","5271.17"
"2239","5175.733"
"2240","5149.221"
"2241","5212.599"
"2242","5274.504"
"2243","5212.308"
"2244","5074.079"
"2245","5030.08"
"2246","5099.648"
"2247","5093.033"
"2248","4911.941"
"2249","4732.319"
"2250","4723.497"
"2251","4796.618"
"2252","4794.875"
"2253","4715.816"
"2254","4648.318"
"2255","4622.488"
"2256","4602.376"
"2257","4565.39"
"2258","4522.682"
"2259","4487.228"
"2260","4463.415"
"2261","4452.986"
"2262","4453.048"
"2263","4457.007"
"2264","4432.396"
"2265","4326.917"
"2266","4166.537"
"2267","4092.07"
"2268","4164.614"
"2269","4210.204"
"2270","4071.749"
"2271","3870.178"
"2272","3791.539"
"2273","3808.566"
"2274","3777.833"
"2275","3664.71"
"2276","3543.185"
"2277","3462.995"
"2278","3424.198"
"2279","3414.675"
"2280","3399.986"
"2281","3348.606"
"2282","3270.349"
"2283","3188.251"
"2284","3110.69"
"2285","3036.991"
"2286","2966.509"
"2287","2898.814"
"2288","2837.554"
"2289","2793.587"
"2290","2765.335"
"2291","2710.409"
"2292","2594.232"
"2293","2470.474"
"2294","2416.331"
"2295","2433.171"
"2296","2476.747"
"2297","2494.202"
"2298","2425.611"
"2299","2269.511"
"2300","2120.311"
