,"Scan 01173"
"400","8075.987"
"401","8066.641"
"402","8053.238"
"403","8034.774"
"404","8012.776"
"405","7989.581"
"406","7967.496"
"407","7948.75"
"408","7934.986"
"409","7927.558"
"410","7927.81"
"411","7936.655"
"412","7949.573"
"413","7958.271"
"414","7954.443"
"415","7930.41"
"416","7891.182"
"417","7854.137"
"418","7837.042"
"419","7857.159"
"420","7915.202"
"421","7989.667"
"422","8057.637"
"423","8096.462"
"424","8095.248"
"425","8064.568"
"426","8017.233"
"427","7965.96"
"428","7921.374"
"429","7889.012"
"430","7873.601"
"431","7879.837"
"432","7909.37"
"433","7953.646"
"434","8002.009"
"435","8043.881"
"436","8070.852"
"437","8084.05"
"438","8087.291"
"439","8084.36"
"440","8078.526"
"441","8070.118"
"442","8058.381"
"443","8042.567"
"444","8022.205"
"445","7998.985"
"446","7975.593"
"447","7954.705"
"448","7938.833"
"449","7929.019"
"450","7925.454"
"451","7928.317"
"452","7937.439"
"453","7948.128"
"454","7952.541"
"455","7942.81"
"456","7911.747"
"457","7862.694"
"458","7807.761"
"459","7759.246"
"460","7728.919"
"461","7718.522"
"462","7720.058"
"463","7725.172"
"464","7725.75"
"465","7718.845"
"466","7707.293"
"467","7694.215"
"468","7682.679"
"469","7674.519"
"470","7670.006"
"471","7669.318"
"472","7672.608"
"473","7679.112"
"474","7686.782"
"475","7693.478"
"476","7697.09"
"477","7696.334"
"478","7691.195"
"479","7681.765"
"480","7668.152"
"481","7651.392"
"482","7634.078"
"483","7618.941"
"484","7608.687"
"485","7605.319"
"486","7609.605"
"487","7622.184"
"488","7643.662"
"489","7672.177"
"490","7701.252"
"491","7723.938"
"492","7733.351"
"493","7725.472"
"494","7701.746"
"495","7664.231"
"496","7614.989"
"497","7557.509"
"498","7498.097"
"499","7443.351"
"500","7399.803"
"501","7370.373"
"502","7350.979"
"503","7336.763"
"504","7322.887"
"505","7304.702"
"506","7277.887"
"507","7238.175"
"508","7181.385"
"509","7109.049"
"510","7033.275"
"511","6967.247"
"512","6923.986"
"513","6908.153"
"514","6909.757"
"515","6917.363"
"516","6919.687"
"517","6911.736"
"518","6898.87"
"519","6887.387"
"520","6883.461"
"521","6888.063"
"522","6894.233"
"523","6894.382"
"524","6881.103"
"525","6853.446"
"526","6819.416"
"527","6787.631"
"528","6766.462"
"529","6756.835"
"530","6750.412"
"531","6738.311"
"532","6712.04"
"533","6672.499"
"534","6630.951"
"535","6599.134"
"536","6588.185"
"537","6597.43"
"538","6614.843"
"539","6627.993"
"540","6625.129"
"541","6604.917"
"542","6574.633"
"543","6541.785"
"544","6513.419"
"545","6491.108"
"546","6472.582"
"547","6455.504"
"548","6437.923"
"549","6421.711"
"550","6410.973"
"551","6409.814"
"552","6421.264"
"553","6439.885"
"554","6456.234"
"555","6460.892"
"556","6446.929"
"557","6422.584"
"558","6401.835"
"559","6398.597"
"560","6422.44"
"561","6462.51"
"562","6501.943"
"563","6523.953"
"564","6517.325"
"565","6490.808"
"566","6457.629"
"567","6430.946"
"568","6419.639"
"569","6421"
"570","6430.38"
"571","6443.149"
"572","6454.678"
"573","6460.304"
"574","6455.381"
"575","6435.387"
"576","6401.832"
"577","6365.47"
"578","6337.801"
"579","6329.887"
"580","6341.333"
"581","6358.673"
"582","6367.782"
"583","6355.483"
"584","6323.993"
"585","6288.463"
"586","6264.388"
"587","6265.542"
"588","6287.803"
"589","6316.169"
"590","6335.543"
"591","6333.294"
"592","6313.796"
"593","6288.702"
"594","6269.645"
"595","6265.909"
"596","6275.957"
"597","6295.091"
"598","6318.638"
"599","6342.05"
"600","6361.136"
"601","6371.794"
"602","6369.956"
"603","6354.817"
"604","6332.3"
"605","6309.134"
"606","6291.927"
"607","6283.051"
"608","6279.011"
"609","6275.901"
"610","6269.984"
"611","6260.752"
"612","6250.685"
"613","6242.37"
"614","6238.12"
"615","6237.403"
"616","6237.946"
"617","6237.46"
"618","6234.33"
"619","6231.169"
"620","6232.227"
"621","6241.749"
"622","6261.371"
"623","6282.854"
"624","6295.635"
"625","6289.213"
"626","6259.324"
"627","6216.009"
"628","6171.28"
"629","6137"
"630","6119.767"
"631","6118.726"
"632","6132.461"
"633","6159.309"
"634","6192.98"
"635","6223.111"
"636","6239.237"
"637","6232.358"
"638","6206.59"
"639","6173.062"
"640","6142.928"
"641","6124.958"
"642","6116.173"
"643","6109.962"
"644","6099.74"
"645","6082.588"
"646","6065.729"
"647","6058.103"
"648","6068.497"
"649","6097.578"
"650","6133.184"
"651","6162.047"
"652","6171.5"
"653","6160.026"
"654","6136.363"
"655","6109.613"
"656","6088.417"
"657","6077.562"
"658","6079.795"
"659","6097.84"
"660","6132.418"
"661","6175.153"
"662","6215.103"
"663","6241.375"
"664","6247.038"
"665","6234.571"
"666","6207.815"
"667","6170.662"
"668","6129.449"
"669","6093.679"
"670","6073.047"
"671","6076.352"
"672","6100.919"
"673","6135.916"
"674","6170.369"
"675","6194.777"
"676","6208.43"
"677","6213.895"
"678","6213.743"
"679","6209.951"
"680","6202.759"
"681","6192.092"
"682","6177.887"
"683","6160.71"
"684","6142.099"
"685","6123.657"
"686","6106.957"
"687","6093.054"
"688","6082.6"
"689","6076.233"
"690","6074.522"
"691","6077.598"
"692","6085.416"
"693","6097.932"
"694","6114.831"
"695","6134.982"
"696","6157.108"
"697","6179.888"
"698","6199.79"
"699","6210.058"
"700","6203.693"
"701","6174.604"
"702","6128.923"
"703","6081.682"
"704","6048.078"
"705","6040.341"
"706","6054.241"
"707","6079.842"
"708","6107.237"
"709","6128.681"
"710","6141.789"
"711","6144.996"
"712","6136.892"
"713","6120.746"
"714","6105.321"
"715","6099.672"
"716","6111.542"
"717","6136.087"
"718","6161.441"
"719","6175.683"
"720","6171.083"
"721","6156.39"
"722","6144.399"
"723","6147.776"
"724","6170.576"
"725","6202.018"
"726","6229.876"
"727","6242.597"
"728","6238.942"
"729","6225.878"
"730","6210.593"
"731","6199.611"
"732","6195.795"
"733","6200.711"
"734","6215.911"
"735","6240.293"
"736","6266.604"
"737","6286.719"
"738","6292.804"
"739","6283.523"
"740","6264.194"
"741","6240.428"
"742","6217.961"
"743","6203.491"
"744","6204.146"
"745","6227.034"
"746","6273.063"
"747","6325.406"
"748","6364.106"
"749","6369.775"
"750","6340.54"
"751","6295.543"
"752","6255.143"
"753","6237.297"
"754","6239.371"
"755","6248.163"
"756","6250.409"
"757","6238.475"
"758","6222.688"
"759","6216.934"
"760","6234.73"
"761","6276.417"
"762","6325.407"
"763","6364.031"
"764","6376.595"
"765","6365.307"
"766","6341.936"
"767","6318.32"
"768","6303.94"
"769","6300.702"
"770","6308.984"
"771","6329.089"
"772","6358.397"
"773","6390.62"
"774","6419.24"
"775","6438.784"
"776","6452.632"
"777","6468.647"
"778","6494.715"
"779","6533.84"
"780","6574.644"
"781","6603.118"
"782","6605.782"
"783","6583.847"
"784","6555.121"
"785","6538.282"
"786","6548.684"
"787","6577.784"
"788","6606.568"
"789","6616.026"
"790","6596.888"
"791","6563.844"
"792","6535.188"
"793","6528.35"
"794","6543.482"
"795","6564.632"
"796","6575.247"
"797","6562.571"
"798","6534.87"
"799","6507.655"
"800","6496.349"
"801","6507.24"
"802","6529.36"
"803","6549.825"
"804","6556.667"
"805","6549.855"
"806","6537.809"
"807","6529.124"
"808","6530.716"
"809","6542.948"
"810","6564.572"
"811","6594.265"
"812","6627.412"
"813","6654.944"
"814","6667.485"
"815","6657.517"
"816","6632.805"
"817","6608.615"
"818","6600.235"
"819","6615.062"
"820","6640.325"
"821","6660.088"
"822","6659.267"
"823","6638.869"
"824","6614.387"
"825","6601.815"
"826","6613.198"
"827","6641.226"
"828","6672.661"
"829","6694.396"
"830","6700.452"
"831","6696.118"
"832","6687.663"
"833","6681.024"
"834","6679.028"
"835","6682.782"
"836","6693.373"
"837","6710.869"
"838","6732.538"
"839","6755.169"
"840","6775.655"
"841","6792.911"
"842","6807.73"
"843","6820.972"
"844","6833.186"
"845","6843.432"
"846","6850.324"
"847","6852.493"
"848","6849.439"
"849","6841.958"
"850","6830.952"
"851","6817.515"
"852","6804.375"
"853","6795.073"
"854","6793.149"
"855","6801.054"
"856","6818.656"
"857","6845.456"
"858","6880.701"
"859","6919.878"
"860","6955.573"
"861","6980.296"
"862","6988.288"
"863","6980.29"
"864","6958.57"
"865","6925.51"
"866","6886.994"
"867","6852.927"
"868","6833.438"
"869","6836.63"
"870","6858.771"
"871","6891.836"
"872","6927.842"
"873","6961.696"
"874","6993.145"
"875","7022.391"
"876","7049.155"
"877","7068.813"
"878","7074.438"
"879","7059.107"
"880","7022.212"
"881","6978.226"
"882","6943.814"
"883","6934.575"
"884","6951.104"
"885","6982.908"
"886","7019.236"
"887","7050.986"
"888","7074.567"
"889","7087.55"
"890","7087.852"
"891","7081.183"
"892","7081"
"893","7101.085"
"894","7149.933"
"895","7211.498"
"896","7262.614"
"897","7280.609"
"898","7261.675"
"899","7226.458"
"900","7197.234"
"901","7192.341"
"902","7205.534"
"903","7221.109"
"904","7223.483"
"905","7207.198"
"906","7183.54"
"907","7165.372"
"908","7164.18"
"909","7180.199"
"910","7208.125"
"911","7242.619"
"912","7278.313"
"913","7309.78"
"914","7331.581"
"915","7339.199"
"916","7337.881"
"917","7338.784"
"918","7353.127"
"919","7383.264"
"920","7409.143"
"921","7407.221"
"922","7356.6"
"923","7272.384"
"924","7195.709"
"925","7168.28"
"926","7214.211"
"927","7304.43"
"928","7399.844"
"929","7462.847"
"930","7481.36"
"931","7464.734"
"932","7422.992"
"933","7367.225"
"934","7312.302"
"935","7273.927"
"936","7267.045"
"937","7290.646"
"938","7328.523"
"939","7363.865"
"940","7383.72"
"941","7390.638"
"942","7391.066"
"943","7391.305"
"944","7393.876"
"945","7397.332"
"946","7400.036"
"947","7400.194"
"948","7395.343"
"949","7382.823"
"950","7360.156"
"951","7329.907"
"952","7300.4"
"953","7280.268"
"954","7276.011"
"955","7283.839"
"956","7296.877"
"957","7308.367"
"958","7315.552"
"959","7320.483"
"960","7325.499"
"961","7332.505"
"962","7341.2"
"963","7350.593"
"964","7359.646"
"965","7365.928"
"966","7365.264"
"967","7353.373"
"968","7328.606"
"969","7303.027"
"970","7293.147"
"971","7314.971"
"972","7365.918"
"973","7419.986"
"974","7449.673"
"975","7433.854"
"976","7384.701"
"977","7325.195"
"978","7278.019"
"979","7254.54"
"980","7251.993"
"981","7266.72"
"982","7293.618"
"983","7320.23"
"984","7331.76"
"985","7313.91"
"986","7269.513"
"987","7222.222"
"988","7196.954"
"989","7212.339"
"990","7256.256"
"991","7307.209"
"992","7344.174"
"993","7360.675"
"994","7367.096"
"995","7374.777"
"996","7392.439"
"997","7416.843"
"998","7441.336"
"999","7459.355"
"1000","7466.963"
"1001","7463.069"
"1002","7446.725"
"1003","7419.152"
"1004","7390.668"
"1005","7373.985"
"1006","7381.796"
"1007","7417.614"
"1008","7461.859"
"1009","7491.377"
"1010","7485.602"
"1011","7450.83"
"1012","7409.224"
"1013","7383.076"
"1014","7383.363"
"1015","7398.799"
"1016","7415.49"
"1017","7421.453"
"1018","7419.153"
"1019","7417.635"
"1020","7425.882"
"1021","7447.206"
"1022","7476.446"
"1023","7507.749"
"1024","7536.152"
"1025","7561.49"
"1026","7585.195"
"1027","7608.633"
"1028","7631.27"
"1029","7650.461"
"1030","7663.468"
"1031","7668.932"
"1032","7670.642"
"1033","7673.567"
"1034","7682.147"
"1035","7692.491"
"1036","7694.187"
"1037","7676.666"
"1038","7637.961"
"1039","7597.365"
"1040","7577.403"
"1041","7597.487"
"1042","7648.722"
"1043","7707.167"
"1044","7748.922"
"1045","7764.325"
"1046","7766.831"
"1047","7772.022"
"1048","7791.639"
"1049","7816.447"
"1050","7830.083"
"1051","7816.956"
"1052","7781.224"
"1053","7747.743"
"1054","7742.367"
"1055","7779.053"
"1056","7833.202"
"1057","7872.389"
"1058","7867.353"
"1059","7826.386"
"1060","7782.303"
"1061","7768.196"
"1062","7798.843"
"1063","7854.18"
"1064","7910.231"
"1065","7946.327"
"1066","7962.27"
"1067","7965.676"
"1068","7964.071"
"1069","7961.936"
"1070","7960.362"
"1071","7960.264"
"1072","7961.171"
"1073","7958.056"
"1074","7944.951"
"1075","7916.918"
"1076","7880.587"
"1077","7849.898"
"1078","7838.818"
"1079","7853.595"
"1080","7886.945"
"1081","7930.218"
"1082","7974.377"
"1083","8008.358"
"1084","8020.406"
"1085","7999.61"
"1086","7952.378"
"1087","7901.338"
"1088","7869.728"
"1089","7870.909"
"1090","7892.741"
"1091","7919.016"
"1092","7935.088"
"1093","7938.803"
"1094","7933.99"
"1095","7924.497"
"1096","7913.441"
"1097","7903.01"
"1098","7895.326"
"1099","7891.463"
"1100","7888.763"
"1101","7883.747"
"1102","7873.135"
"1103","7855.954"
"1104","7832.659"
"1105","7803.778"
"1106","7773.015"
"1107","7749.162"
"1108","7741.478"
"1109","7755.603"
"1110","7781.08"
"1111","7802.989"
"1112","7807.576"
"1113","7797.874"
"1114","7789.394"
"1115","7797.836"
"1116","7826.684"
"1117","7856.64"
"1118","7865.912"
"1119","7838.887"
"1120","7791.414"
"1121","7749.336"
"1122","7737.14"
"1123","7756.999"
"1124","7792.932"
"1125","7828.457"
"1126","7852.251"
"1127","7863.261"
"1128","7861.647"
"1129","7847.987"
"1130","7825.083"
"1131","7796.472"
"1132","7765.618"
"1133","7734.767"
"1134","7705.161"
"1135","7678.04"
"1136","7656.673"
"1137","7648.313"
"1138","7660.683"
"1139","7698.385"
"1140","7750.456"
"1141","7801.038"
"1142","7834.94"
"1143","7846.899"
"1144","7839.213"
"1145","7814.412"
"1146","7778.64"
"1147","7744.375"
"1148","7724.75"
"1149","7729.054"
"1150","7749.914"
"1151","7775.443"
"1152","7794.661"
"1153","7807.382"
"1154","7820.439"
"1155","7840.645"
"1156","7867.343"
"1157","7888.987"
"1158","7893.173"
"1159","7873.933"
"1160","7847.277"
"1161","7833.9"
"1162","7851.387"
"1163","7890.505"
"1164","7928.343"
"1165","7942.505"
"1166","7928.937"
"1167","7904.084"
"1168","7885.468"
"1169","7883.988"
"1170","7894.167"
"1171","7908.052"
"1172","7918.828"
"1173","7926.387"
"1174","7933.059"
"1175","7940.847"
"1176","7946.722"
"1177","7943.663"
"1178","7924.654"
"1179","7892.055"
"1180","7863.858"
"1181","7859.553"
"1182","7891.039"
"1183","7942.131"
"1184","7990.159"
"1185","8014.84"
"1186","8016.734"
"1187","8007.122"
"1188","7997.196"
"1189","7993.567"
"1190","7997.984"
"1191","8011.964"
"1192","8035.716"
"1193","8066.612"
"1194","8101.658"
"1195","8136.711"
"1196","8162.252"
"1197","8167.161"
"1198","8141.847"
"1199","8093.652"
"1200","8040.435"
"1201","7999.911"
"1202","7979.1"
"1203","7971.9"
"1204","7971.418"
"1205","7973.692"
"1206","7981.969"
"1207","8000.581"
"1208","8032.198"
"1209","8070.883"
"1210","8107.922"
"1211","8135.291"
"1212","8153.167"
"1213","8167.024"
"1214","8182.213"
"1215","8196.728"
"1216","8199.489"
"1217","8178.883"
"1218","8133.724"
"1219","8087.539"
"1220","8067.458"
"1221","8092.383"
"1222","8141.709"
"1223","8182.98"
"1224","8187.298"
"1225","8162.218"
"1226","8136.549"
"1227","8138.38"
"1228","8169.287"
"1229","8202.335"
"1230","8209.308"
"1231","8180.1"
"1232","8140.417"
"1233","8120.184"
"1234","8138.676"
"1235","8174.828"
"1236","8198.012"
"1237","8182.8"
"1238","8142.726"
"1239","8108.959"
"1240","8110.985"
"1241","8148.925"
"1242","8198.95"
"1243","8236.823"
"1244","8253.521"
"1245","8261.826"
"1246","8276.198"
"1247","8303.688"
"1248","8332.349"
"1249","8347.218"
"1250","8337.677"
"1251","8313.797"
"1252","8291.8"
"1253","8286.449"
"1254","8299.118"
"1255","8324.039"
"1256","8355.375"
"1257","8387.405"
"1258","8414.502"
"1259","8431.074"
"1260","8433.496"
"1261","8421.152"
"1262","8393.698"
"1263","8355.348"
"1264","8322.332"
"1265","8312.854"
"1266","8339.342"
"1267","8387.321"
"1268","8434.483"
"1269","8460.878"
"1270","8466.55"
"1271","8461.536"
"1272","8455.549"
"1273","8451.554"
"1274","8446.977"
"1275","8439.194"
"1276","8430.249"
"1277","8428.354"
"1278","8442.107"
"1279","8472.066"
"1280","8501.563"
"1281","8511.69"
"1282","8490.246"
"1283","8448.911"
"1284","8404.684"
"1285","8372.327"
"1286","8353.154"
"1287","8343.499"
"1288","8339.99"
"1289","8342.439"
"1290","8352.545"
"1291","8371.894"
"1292","8399.237"
"1293","8430.725"
"1294","8462.404"
"1295","8490.386"
"1296","8510.856"
"1297","8520.031"
"1298","8517.566"
"1299","8510.576"
"1300","8507.155"
"1301","8513.386"
"1302","8528.539"
"1303","8550.437"
"1304","8576.419"
"1305","8601.25"
"1306","8618.831"
"1307","8623.197"
"1308","8609.624"
"1309","8574.004"
"1310","8513.5"
"1311","8443.579"
"1312","8393.541"
"1313","8391.974"
"1314","8438.111"
"1315","8499.002"
"1316","8540.304"
"1317","8545.61"
"1318","8526.938"
"1319","8498.819"
"1320","8472.843"
"1321","8453.808"
"1322","8445.559"
"1323","8449.312"
"1324","8457.352"
"1325","8460.074"
"1326","8450.186"
"1327","8431.938"
"1328","8413.194"
"1329","8400.822"
"1330","8394.362"
"1331","8390.048"
"1332","8384.581"
"1333","8379.986"
"1334","8381.65"
"1335","8394.222"
"1336","8408.22"
"1337","8401.953"
"1338","8354.268"
"1339","8273.639"
"1340","8203.254"
"1341","8187.781"
"1342","8237.943"
"1343","8310.753"
"1344","8358.57"
"1345","8357.049"
"1346","8331.667"
"1347","8314.328"
"1348","8324.692"
"1349","8346.829"
"1350","8358.383"
"1351","8343.52"
"1352","8312.242"
"1353","8280.936"
"1354","8264.164"
"1355","8266.669"
"1356","8289.92"
"1357","8333.389"
"1358","8382.063"
"1359","8414.535"
"1360","8412.058"
"1361","8382.761"
"1362","8350.149"
"1363","8336.175"
"1364","8338.516"
"1365","8337.121"
"1366","8312.878"
"1367","8273.652"
"1368","8252.118"
"1369","8280.524"
"1370","8350.124"
"1371","8405.108"
"1372","8388.12"
"1373","8293.934"
"1374","8191.5"
"1375","8154.925"
"1376","8209.996"
"1377","8297.644"
"1378","8350.326"
"1379","8332.921"
"1380","8280.296"
"1381","8236.444"
"1382","8230.298"
"1383","8250.862"
"1384","8280.593"
"1385","8305.012"
"1386","8319.579"
"1387","8321.767"
"1388","8310.633"
"1389","8291.519"
"1390","8271.316"
"1391","8255.781"
"1392","8245.26"
"1393","8238.49"
"1394","8233.999"
"1395","8229.151"
"1396","8220.885"
"1397","8207.115"
"1398","8192.35"
"1399","8183.846"
"1400","8187.68"
"1401","8200.282"
"1402","8213.427"
"1403","8219.699"
"1404","8219.724"
"1405","8218.595"
"1406","8220.929"
"1407","8225.539"
"1408","8227.589"
"1409","8222.758"
"1410","8214.347"
"1411","8211.043"
"1412","8220.805"
"1413","8238.393"
"1414","8248.199"
"1415","8235.715"
"1416","8211.514"
"1417","8207.952"
"1418","8256.025"
"1419","8342.569"
"1420","8412.495"
"1421","8411.394"
"1422","8342.481"
"1423","8268.352"
"1424","8252.525"
"1425","8307.453"
"1426","8388.973"
"1427","8450.874"
"1428","8476.488"
"1429","8484.095"
"1430","8493.803"
"1431","8517.92"
"1432","8558.985"
"1433","8618.69"
"1434","8689.534"
"1435","8751.906"
"1436","8785.733"
"1437","8787.419"
"1438","8775.978"
"1439","8771.821"
"1440","8782.605"
"1441","8797.873"
"1442","8805.902"
"1443","8800.911"
"1444","8785.758"
"1445","8764.072"
"1446","8743.409"
"1447","8737.166"
"1448","8758.905"
"1449","8805.296"
"1450","8847.77"
"1451","8856.029"
"1452","8819.628"
"1453","8757.802"
"1454","8692.065"
"1455","8634.841"
"1456","8585.071"
"1457","8540.632"
"1458","8500.854"
"1459","8467.201"
"1460","8441.248"
"1461","8421.855"
"1462","8404.014"
"1463","8382.457"
"1464","8354.028"
"1465","8318.479"
"1466","8275.976"
"1467","8234.69"
"1468","8213.43"
"1469","8230.958"
"1470","8276.661"
"1471","8302.742"
"1472","8260.42"
"1473","8148.264"
"1474","8021.53"
"1475","7937.621"
"1476","7917.981"
"1477","7943.632"
"1478","7993.42"
"1479","8045.989"
"1480","8079.78"
"1481","8074.284"
"1482","8032.488"
"1483","7980.086"
"1484","7942.72"
"1485","7927.128"
"1486","7923.295"
"1487","7920.798"
"1488","7912.106"
"1489","7892.022"
"1490","7856.506"
"1491","7816.55"
"1492","7794.069"
"1493","7808.886"
"1494","7853.163"
"1495","7901.135"
"1496","7928.86"
"1497","7933.882"
"1498","7926.088"
"1499","7914.426"
"1500","7898.587"
"1501","7873.609"
"1502","7836.922"
"1503","7803.317"
"1504","7795.163"
"1505","7827.94"
"1506","7875.329"
"1507","7895.41"
"1508","7857.374"
"1509","7786.903"
"1510","7727.497"
"1511","7712.419"
"1512","7731.666"
"1513","7763.834"
"1514","7791.573"
"1515","7811.688"
"1516","7824.053"
"1517","7827.64"
"1518","7818.827"
"1519","7793.55"
"1520","7752.983"
"1521","7710.569"
"1522","7681.469"
"1523","7674.293"
"1524","7685.111"
"1525","7708.525"
"1526","7735.931"
"1527","7753.733"
"1528","7748.224"
"1529","7717.707"
"1530","7675.732"
"1531","7636.579"
"1532","7608.178"
"1533","7591.946"
"1534","7588.409"
"1535","7588.234"
"1536","7573.964"
"1537","7530.85"
"1538","7478.973"
"1539","7461.145"
"1540","7513.826"
"1541","7615.053"
"1542","7713.018"
"1543","7761.68"
"1544","7753.63"
"1545","7696.631"
"1546","7603.702"
"1547","7512.564"
"1548","7468.311"
"1549","7496.876"
"1550","7556.57"
"1551","7590.813"
"1552","7570.487"
"1553","7538.274"
"1554","7548.181"
"1555","7618.226"
"1556","7696.405"
"1557","7723.435"
"1558","7682.666"
"1559","7619.395"
"1560","7582.454"
"1561","7583.404"
"1562","7593.357"
"1563","7583.142"
"1564","7552.062"
"1565","7522.354"
"1566","7514.889"
"1567","7529.45"
"1568","7553.365"
"1569","7575.118"
"1570","7592.428"
"1571","7606.92"
"1572","7617.167"
"1573","7607.126"
"1574","7556.401"
"1575","7461.172"
"1576","7371.69"
"1577","7349.11"
"1578","7415.733"
"1579","7506.378"
"1580","7544.63"
"1581","7504.473"
"1582","7439.075"
"1583","7407.216"
"1584","7429.44"
"1585","7484.168"
"1586","7547.996"
"1587","7603.088"
"1588","7635.889"
"1589","7635.152"
"1590","7609.567"
"1591","7578.371"
"1592","7557.925"
"1593","7547.614"
"1594","7540.833"
"1595","7533.954"
"1596","7534.312"
"1597","7551.711"
"1598","7584.299"
"1599","7602.634"
"1600","7573.74"
"1601","7495.473"
"1602","7413.823"
"1603","7377.489"
"1604","7397.503"
"1605","7445.747"
"1606","7493.426"
"1607","7526.706"
"1608","7542.031"
"1609","7537.983"
"1610","7527.308"
"1611","7529.057"
"1612","7555.604"
"1613","7589.633"
"1614","7605.633"
"1615","7588.726"
"1616","7552.792"
"1617","7516.471"
"1618","7494.508"
"1619","7495.048"
"1620","7524.893"
"1621","7572.073"
"1622","7604.537"
"1623","7592.045"
"1624","7539.568"
"1625","7475.892"
"1626","7428.866"
"1627","7416.614"
"1628","7453.239"
"1629","7541.461"
"1630","7639.467"
"1631","7694.585"
"1632","7677.757"
"1633","7614.092"
"1634","7536.166"
"1635","7471.118"
"1636","7438.542"
"1637","7455.943"
"1638","7513.758"
"1639","7579.626"
"1640","7624.067"
"1641","7648.448"
"1642","7669.685"
"1643","7699.602"
"1644","7725.869"
"1645","7729.208"
"1646","7702.797"
"1647","7671.855"
"1648","7666.321"
"1649","7694.487"
"1650","7732.571"
"1651","7755.602"
"1652","7764.729"
"1653","7783.822"
"1654","7832.917"
"1655","7893.108"
"1656","7925.922"
"1657","7903.551"
"1658","7845.92"
"1659","7786.057"
"1660","7743.169"
"1661","7703.772"
"1662","7650.164"
"1663","7585.269"
"1664","7539.243"
"1665","7541.425"
"1666","7582.138"
"1667","7622.567"
"1668","7628.284"
"1669","7599.279"
"1670","7549.659"
"1671","7494.579"
"1672","7452.533"
"1673","7442.566"
"1674","7466.131"
"1675","7493.188"
"1676","7491.456"
"1677","7452.458"
"1678","7391.03"
"1679","7322.5"
"1680","7257.661"
"1681","7204.905"
"1682","7171.582"
"1683","7160.544"
"1684","7173.402"
"1685","7205.908"
"1686","7241.11"
"1687","7260.722"
"1688","7256.962"
"1689","7234.044"
"1690","7197.219"
"1691","7155.755"
"1692","7121.351"
"1693","7103.081"
"1694","7097.092"
"1695","7095.637"
"1696","7093.595"
"1697","7091.998"
"1698","7092.867"
"1699","7101.754"
"1700","7128.409"
"1701","7179.982"
"1702","7232.949"
"1703","7245.086"
"1704","7188.251"
"1705","7102.423"
"1706","7047.631"
"1707","7055.476"
"1708","7094.553"
"1709","7125.838"
"1710","7134.32"
"1711","7131.352"
"1712","7128.55"
"1713","7127.267"
"1714","7123.25"
"1715","7112.187"
"1716","7089.796"
"1717","7051.882"
"1718","7003.506"
"1719","6966.967"
"1720","6965.349"
"1721","6999.773"
"1722","7051.434"
"1723","7101.454"
"1724","7135.811"
"1725","7142.561"
"1726","7115.238"
"1727","7064.108"
"1728","7002.759"
"1729","6950.168"
"1730","6932.851"
"1731","6973.765"
"1732","7045.271"
"1733","7085.975"
"1734","7051.627"
"1735","6983.39"
"1736","6947.785"
"1737","6976.887"
"1738","7031.802"
"1739","7066.58"
"1740","7072.212"
"1741","7074.717"
"1742","7094.902"
"1743","7106.721"
"1744","7063.949"
"1745","6952.351"
"1746","6849.976"
"1747","6849.338"
"1748","6963.012"
"1749","7102.543"
"1750","7179.942"
"1751","7177.62"
"1752","7118.1"
"1753","7026.896"
"1754","6938.938"
"1755","6891.06"
"1756","6894.913"
"1757","6922.203"
"1758","6942.492"
"1759","6944.461"
"1760","6930.2"
"1761","6904.676"
"1762","6884.967"
"1763","6891.557"
"1764","6927.016"
"1765","6960.366"
"1766","6958.853"
"1767","6921.679"
"1768","6873.892"
"1769","6838.265"
"1770","6821.135"
"1771","6823.31"
"1772","6839.256"
"1773","6850.28"
"1774","6837.402"
"1775","6807.104"
"1776","6788.122"
"1777","6803.505"
"1778","6839.019"
"1779","6867.171"
"1780","6872.032"
"1781","6862.715"
"1782","6851.509"
"1783","6848.476"
"1784","6861.71"
"1785","6895.767"
"1786","6935.299"
"1787","6957.958"
"1788","6954.225"
"1789","6941.611"
"1790","6939.72"
"1791","6944.717"
"1792","6932.881"
"1793","6887.495"
"1794","6832.322"
"1795","6804.287"
"1796","6817.005"
"1797","6839.353"
"1798","6837.942"
"1799","6821.457"
"1800","6830.585"
"1801","6891.495"
"1802","6960.342"
"1803","6973.916"
"1804","6914.141"
"1805","6837.109"
"1806","6801.268"
"1807","6811.419"
"1808","6838.004"
"1809","6855.63"
"1810","6856.428"
"1811","6836.854"
"1812","6806.931"
"1813","6794.679"
"1814","6824.113"
"1815","6874.194"
"1816","6901.158"
"1817","6876.829"
"1818","6816.736"
"1819","6744.159"
"1820","6687.919"
"1821","6682.446"
"1822","6750.451"
"1823","6843.108"
"1824","6885.485"
"1825","6847.843"
"1826","6789.762"
"1827","6776.211"
"1828","6800.894"
"1829","6805.812"
"1830","6752.086"
"1831","6681.441"
"1832","6654.47"
"1833","6682.482"
"1834","6710.475"
"1835","6687.388"
"1836","6632.799"
"1837","6600.422"
"1838","6620.257"
"1839","6662.521"
"1840","6690.042"
"1841","6699.138"
"1842","6715.358"
"1843","6756.204"
"1844","6796.411"
"1845","6798.464"
"1846","6746.591"
"1847","6658.024"
"1848","6554.884"
"1849","6477.921"
"1850","6477.749"
"1851","6571.578"
"1852","6688.269"
"1853","6745.775"
"1854","6730.948"
"1855","6691.891"
"1856","6668.406"
"1857","6651.526"
"1858","6618.662"
"1859","6571.877"
"1860","6548.827"
"1861","6582.996"
"1862","6650.765"
"1863","6700.833"
"1864","6705.774"
"1865","6694.284"
"1866","6700.567"
"1867","6721.22"
"1868","6723.98"
"1869","6689.275"
"1870","6648.256"
"1871","6642.798"
"1872","6674.99"
"1873","6700.554"
"1874","6682.423"
"1875","6643.328"
"1876","6627.94"
"1877","6651.549"
"1878","6678.353"
"1879","6672.233"
"1880","6643.907"
"1881","6630.232"
"1882","6649.443"
"1883","6671.315"
"1884","6660.052"
"1885","6613.971"
"1886","6558.687"
"1887","6517.326"
"1888","6500.604"
"1889","6515.827"
"1890","6555.462"
"1891","6595.53"
"1892","6612.45"
"1893","6589.769"
"1894","6514.05"
"1895","6408.454"
"1896","6351.031"
"1897","6409.198"
"1898","6533.604"
"1899","6621.583"
"1900","6622.959"
"1901","6593.126"
"1902","6594.276"
"1903","6625.871"
"1904","6649.502"
"1905","6642.216"
"1906","6622.918"
"1907","6615.936"
"1908","6625.083"
"1909","6638.404"
"1910","6647.448"
"1911","6656.965"
"1912","6673.677"
"1913","6687.627"
"1914","6673.014"
"1915","6614.022"
"1916","6539.647"
"1917","6489.975"
"1918","6482.169"
"1919","6507.192"
"1920","6551.522"
"1921","6586.179"
"1922","6577.853"
"1923","6522.354"
"1924","6454.592"
"1925","6408.655"
"1926","6396.223"
"1927","6420.437"
"1928","6476.531"
"1929","6547.634"
"1930","6615.258"
"1931","6657.284"
"1932","6650.242"
"1933","6592.632"
"1934","6520.797"
"1935","6471.138"
"1936","6449.87"
"1937","6448.766"
"1938","6455.788"
"1939","6451.952"
"1940","6421.876"
"1941","6388.618"
"1942","6394.866"
"1943","6452.011"
"1944","6508.533"
"1945","6512.693"
"1946","6481.42"
"1947","6468.622"
"1948","6498.417"
"1949","6532.339"
"1950","6528.651"
"1951","6489.615"
"1952","6441.808"
"1953","6406.723"
"1954","6394.573"
"1955","6412.207"
"1956","6447.75"
"1957","6479.043"
"1958","6493.789"
"1959","6500.271"
"1960","6508.032"
"1961","6514.786"
"1962","6511.932"
"1963","6494.266"
"1964","6463.417"
"1965","6423.332"
"1966","6390.776"
"1967","6388.824"
"1968","6417.664"
"1969","6435.276"
"1970","6403.546"
"1971","6350.589"
"1972","6334.877"
"1973","6369.863"
"1974","6393.197"
"1975","6349.97"
"1976","6286.564"
"1977","6290.471"
"1978","6377.061"
"1979","6453.926"
"1980","6440.794"
"1981","6381.667"
"1982","6364.19"
"1983","6411.743"
"1984","6464.33"
"1985","6466.979"
"1986","6417.558"
"1987","6330.919"
"1988","6242.999"
"1989","6212.901"
"1990","6273.569"
"1991","6347.594"
"1992","6334.877"
"1993","6238.377"
"1994","6155.022"
"1995","6154.963"
"1996","6211.023"
"1997","6277.791"
"1998","6327.872"
"1999","6347.127"
"2000","6331.087"
"2001","6298.66"
"2002","6271.083"
"2003","6256.239"
"2004","6254.217"
"2005","6256.359"
"2006","6237.494"
"2007","6178.701"
"2008","6120.159"
"2009","6126.875"
"2010","6198.881"
"2011","6242.135"
"2012","6183.384"
"2013","6095.897"
"2014","6096.155"
"2015","6191.585"
"2016","6272.509"
"2017","6255.043"
"2018","6170.588"
"2019","6075.975"
"2020","6016.25"
"2021","6027.247"
"2022","6110.989"
"2023","6185.636"
"2024","6170.996"
"2025","6125.898"
"2026","6184.074"
"2027","6362.581"
"2028","6477.19"
"2029","6370.251"
"2030","6164.017"
"2031","6078.856"
"2032","6158.778"
"2033","6241.897"
"2034","6203.488"
"2035","6105.506"
"2036","6049.261"
"2037","6057.487"
"2038","6091.733"
"2039","6117.711"
"2040","6115.169"
"2041","6070.896"
"2042","6014.511"
"2043","5996.491"
"2044","6025.768"
"2045","6048.323"
"2046","6018.006"
"2047","5953.891"
"2048","5893.995"
"2049","5852.17"
"2050","5819.348"
"2051","5790.492"
"2052","5774.777"
"2053","5782.68"
"2054","5811.876"
"2055","5852.485"
"2056","5886.438"
"2057","5882.093"
"2058","5819.279"
"2059","5747.335"
"2060","5736.043"
"2061","5784.17"
"2062","5819.556"
"2063","5799.131"
"2064","5774.815"
"2065","5806.93"
"2066","5864.328"
"2067","5863.967"
"2068","5786.653"
"2069","5718.104"
"2070","5730.676"
"2071","5780.284"
"2072","5789.691"
"2073","5747.835"
"2074","5703.805"
"2075","5688.012"
"2076","5677.032"
"2077","5646.178"
"2078","5630.948"
"2079","5694.728"
"2080","5822.089"
"2081","5890.634"
"2082","5814.862"
"2083","5685.872"
"2084","5629.615"
"2085","5651.037"
"2086","5668.67"
"2087","5641.509"
"2088","5610.612"
"2089","5615.665"
"2090","5633.62"
"2091","5620.604"
"2092","5570.832"
"2093","5515.889"
"2094","5479.399"
"2095","5459.485"
"2096","5450.71"
"2097","5452.678"
"2098","5467.393"
"2099","5495.468"
"2100","5535.724"
"2101","5580.606"
"2102","5600.835"
"2103","5567.032"
"2104","5501.53"
"2105","5457.992"
"2106","5458.872"
"2107","5476.543"
"2108","5486.758"
"2109","5499.562"
"2110","5531.764"
"2111","5563.387"
"2112","5547.7"
"2113","5474.567"
"2114","5403.258"
"2115","5386.152"
"2116","5400.18"
"2117","5400.429"
"2118","5384.244"
"2119","5384.211"
"2120","5413.713"
"2121","5443.581"
"2122","5444.855"
"2123","5421.128"
"2124","5387.284"
"2125","5351.635"
"2126","5316.581"
"2127","5287.32"
"2128","5275.72"
"2129","5291.699"
"2130","5327.616"
"2131","5368.467"
"2132","5384.41"
"2133","5331.958"
"2134","5205.022"
"2135","5083.281"
"2136","5044.903"
"2137","5086.072"
"2138","5171.524"
"2139","5249.21"
"2140","5252.12"
"2141","5170.295"
"2142","5118.874"
"2143","5197.643"
"2144","5324.857"
"2145","5361.553"
"2146","5286.892"
"2147","5180.162"
"2148","5103.175"
"2149","5076.522"
"2150","5107.552"
"2151","5161.207"
"2152","5191.193"
"2153","5182.544"
"2154","5143.942"
"2155","5092.975"
"2156","5061.496"
"2157","5069.78"
"2158","5083.137"
"2159","5057.38"
"2160","5006.069"
"2161","4978.487"
"2162","4980.523"
"2163","4955.414"
"2164","4875.555"
"2165","4827.257"
"2166","4902.347"
"2167","5034.022"
"2168","5078.592"
"2169","4999.261"
"2170","4880.516"
"2171","4799.71"
"2172","4798.977"
"2173","4897.563"
"2174","5006.641"
"2175","5003.727"
"2176","4904.333"
"2177","4841.056"
"2178","4875.738"
"2179","4931.948"
"2180","4937.57"
"2181","4904.326"
"2182","4865.109"
"2183","4838.008"
"2184","4831.535"
"2185","4832.583"
"2186","4800.063"
"2187","4716.283"
"2188","4635.898"
"2189","4616.124"
"2190","4643.825"
"2191","4677.471"
"2192","4687.098"
"2193","4653.305"
"2194","4586.34"
"2195","4550.423"
"2196","4592.205"
"2197","4661.666"
"2198","4690.913"
"2199","4681.412"
"2200","4672.767"
"2201","4672.197"
"2202","4648.817"
"2203","4595.396"
"2204","4567.224"
"2205","4608.409"
"2206","4652.077"
"2207","4601.821"
"2208","4465.282"
"2209","4323.177"
"2210","4241.944"
"2211","4265.441"
"2212","4394.044"
"2213","4505.516"
"2214","4480.975"
"2215","4370.574"
"2216","4287.57"
"2217","4277.46"
"2218","4330.674"
"2219","4410.92"
"2220","4442.116"
"2221","4376.784"
"2222","4272.521"
"2223","4200.459"
"2224","4175.351"
"2225","4187.065"
"2226","4212.588"
"2227","4218.362"
"2228","4193.267"
"2229","4163.495"
"2230","4153.645"
"2231","4171.412"
"2232","4213.704"
"2233","4226.632"
"2234","4140.531"
"2235","3984.293"
"2236","3866.983"
"2237","3837.25"
"2238","3845.998"
"2239","3855.365"
"2240","3887.563"
"2241","3962.586"
"2242","4015.679"
"2243","3958.029"
"2244","3822.888"
"2245","3731.841"
"2246","3738.902"
"2247","3803.185"
"2248","3867.411"
"2249","3850.077"
"2250","3698.343"
"2251","3526.282"
"2252","3485.924"
"2253","3563.281"
"2254","3646.042"
"2255","3683.688"
"2256","3695.273"
"2257","3694.238"
"2258","3675.558"
"2259","3629.397"
"2260","3536.108"
"2261","3383.371"
"2262","3232.086"
"2263","3171.695"
"2264","3207.157"
"2265","3273.644"
"2266","3308.218"
"2267","3254.017"
"2268","3104.377"
"2269","2984.064"
"2270","3004.255"
"2271","3099.347"
"2272","3157.922"
"2273","3160.792"
"2274","3139.545"
"2275","3093.203"
"2276","2988.549"
"2277","2835.423"
"2278","2719.71"
"2279","2696.919"
"2280","2706.11"
"2281","2675.432"
"2282","2598.24"
"2283","2493.172"
"2284","2405.057"
"2285","2392.71"
"2286","2457.107"
"2287","2538.171"
"2288","2570.185"
"2289","2482.897"
"2290","2261.844"
"2291","2067.226"
"2292","2050.047"
"2293","2118.75"
"2294","2114.677"
"2295","2059.677"
"2296","2076.63"
"2297","2139.298"
"2298","2074.549"
"2299","1841.984"
"2300","1628.042"
