,"Scan 01124"
"400","14348.64"
"401","14309.39"
"402","14267.93"
"403","14222.27"
"404","14177.92"
"405","14142.77"
"406","14124.63"
"407","14129.65"
"408","14150.92"
"409","14175.28"
"410","14189.59"
"411","14182.01"
"412","14155.75"
"413","14124.51"
"414","14102.11"
"415","14101.73"
"416","14124.55"
"417","14160.03"
"418","14197.24"
"419","14225.47"
"420","14241.54"
"421","14252.3"
"422","14265.31"
"423","14287.96"
"424","14321.88"
"425","14358"
"426","14386.18"
"427","14396.38"
"428","14383.41"
"429","14354.09"
"430","14317.09"
"431","14280.99"
"432","14253.1"
"433","14236.54"
"434","14233.52"
"435","14246.25"
"436","14275.06"
"437","14311.87"
"438","14346.27"
"439","14367.94"
"440","14368.62"
"441","14352.18"
"442","14326.93"
"443","14301.1"
"444","14282.2"
"445","14272.35"
"446","14271.17"
"447","14278.23"
"448","14292.65"
"449","14308.59"
"450","14317.35"
"451","14310.29"
"452","14279.83"
"453","14232.3"
"454","14183.7"
"455","14150.13"
"456","14146.54"
"457","14169.95"
"458","14202.46"
"459","14225.85"
"460","14222.68"
"461","14190.44"
"462","14141.2"
"463","14087.51"
"464","14041.6"
"465","14008.29"
"466","13984.09"
"467","13965.14"
"468","13947.64"
"469","13930.64"
"470","13916.71"
"471","13908.68"
"472","13909.24"
"473","13917.24"
"474","13926.09"
"475","13928.83"
"476","13918.67"
"477","13895.4"
"478","13869.09"
"479","13850.62"
"480","13850.67"
"481","13870.45"
"482","13895.34"
"483","13909.31"
"484","13896.53"
"485","13852.77"
"486","13794.32"
"487","13739.49"
"488","13706.41"
"489","13702.82"
"490","13717.25"
"491","13736.17"
"492","13746.17"
"493","13739.84"
"494","13721.2"
"495","13695.52"
"496","13668.04"
"497","13641.54"
"498","13614"
"499","13582.87"
"500","13545.63"
"501","13501.77"
"502","13454.64"
"503","13408.04"
"504","13365.71"
"505","13329.19"
"506","13295.78"
"507","13262.28"
"508","13225.58"
"509","13184.49"
"510","13141.47"
"511","13099.33"
"512","13060.88"
"513","13027.21"
"514","12996.5"
"515","12966.63"
"516","12935.52"
"517","12903.87"
"518","12876.92"
"519","12860.31"
"520","12859.55"
"521","12873.34"
"522","12890.1"
"523","12897.42"
"524","12883.17"
"525","12845.1"
"526","12794.65"
"527","12744.22"
"528","12705.9"
"529","12683.84"
"530","12672.23"
"531","12664.71"
"532","12655.07"
"533","12641.23"
"534","12625.67"
"535","12611.08"
"536","12600.12"
"537","12595.08"
"538","12597.89"
"539","12610.45"
"540","12634.19"
"541","12662.63"
"542","12682.81"
"543","12681.6"
"544","12647.4"
"545","12587.47"
"546","12522.31"
"547","12472.55"
"548","12456.6"
"549","12470.67"
"550","12498.07"
"551","12522.01"
"552","12527.53"
"553","12513.4"
"554","12484.93"
"555","12447.46"
"556","12406.37"
"557","12367.64"
"558","12337.42"
"559","12321.84"
"560","12325.03"
"561","12341.71"
"562","12363.81"
"563","12383.34"
"564","12394.1"
"565","12396.53"
"566","12392.5"
"567","12383.9"
"568","12372.54"
"569","12360.02"
"570","12347.91"
"571","12337.76"
"572","12330.08"
"573","12323.19"
"574","12315.18"
"575","12304.18"
"576","12289.87"
"577","12274.34"
"578","12259.89"
"579","12248.78"
"580","12242.5"
"581","12241.69"
"582","12246.91"
"583","12258.66"
"584","12275.94"
"585","12296.46"
"586","12317.94"
"587","12338.14"
"588","12355.48"
"589","12368.81"
"590","12376.96"
"591","12378.8"
"592","12373.36"
"593","12359.75"
"594","12337.07"
"595","12304.77"
"596","12263.97"
"597","12216.24"
"598","12163.15"
"599","12109.31"
"600","12068.76"
"601","12057.3"
"602","12090.58"
"603","12169.46"
"604","12264.33"
"605","12341.92"
"606","12369.57"
"607","12336.65"
"608","12262.91"
"609","12170.27"
"610","12080.28"
"611","12008.29"
"612","11963.94"
"613","11956.59"
"614","11993.63"
"615","12060.85"
"616","12130.91"
"617","12176.39"
"618","12175.03"
"619","12136.88"
"620","12084.56"
"621","12040.63"
"622","12022.12"
"623","12025.08"
"624","12040.65"
"625","12059.98"
"626","12075.37"
"627","12081.78"
"628","12074.53"
"629","12049.1"
"630","12007.91"
"631","11963.24"
"632","11928.05"
"633","11914.67"
"634","11924.52"
"635","11949.35"
"636","11980.65"
"637","12010.36"
"638","12034.38"
"639","12050.77"
"640","12057.59"
"641","12053.68"
"642","12041.73"
"643","12025.58"
"644","12009.07"
"645","11994.39"
"646","11979.22"
"647","11960.43"
"648","11935.01"
"649","11905.88"
"650","11885.3"
"651","11886.37"
"652","11921.2"
"653","11983.89"
"654","12051.93"
"655","12102.27"
"656","12114.87"
"657","12096.12"
"658","12066.32"
"659","12045.84"
"660","12050.71"
"661","12077.51"
"662","12117.28"
"663","12161.12"
"664","12200.12"
"665","12225.4"
"666","12228.11"
"667","12199.73"
"668","12143.42"
"669","12077.48"
"670","12021.14"
"671","11992.36"
"672","11992.63"
"673","12011.7"
"674","12039.14"
"675","12065.14"
"676","12083.8"
"677","12090.65"
"678","12081.24"
"679","12054.18"
"680","12017.06"
"681","11979.13"
"682","11949.54"
"683","11934.35"
"684","11934.97"
"685","11952.42"
"686","11987.18"
"687","12031.28"
"688","12070.08"
"689","12088.82"
"690","12076.19"
"691","12043.26"
"692","12009.99"
"693","11996.3"
"694","12013.95"
"695","12050.26"
"696","12088.08"
"697","12110.45"
"698","12110.54"
"699","12096.18"
"700","12076.35"
"701","12059.51"
"702","12047.37"
"703","12036.74"
"704","12024.31"
"705","12007.77"
"706","11990.41"
"707","11977.47"
"708","11974.14"
"709","11983.21"
"710","12001.44"
"711","12024.67"
"712","12048.84"
"713","12071.84"
"714","12093.87"
"715","12115.25"
"716","12136.11"
"717","12154.53"
"718","12167.42"
"719","12171.73"
"720","12166.03"
"721","12155.5"
"722","12146.91"
"723","12146.96"
"724","12156.79"
"725","12168.03"
"726","12171.34"
"727","12158.21"
"728","12132.46"
"729","12107.75"
"730","12098"
"731","12113.82"
"732","12147.26"
"733","12183.86"
"734","12209.18"
"735","12215.16"
"736","12208.52"
"737","12198.05"
"738","12192.33"
"739","12194.76"
"740","12203.44"
"741","12216.24"
"742","12230.68"
"743","12241.57"
"744","12242.59"
"745","12227.39"
"746","12194.84"
"747","12158.69"
"748","12135.33"
"749","12140.67"
"750","12175.83"
"751","12224.21"
"752","12268.17"
"753","12291.71"
"754","12292.91"
"755","12277.06"
"756","12249.49"
"757","12216.66"
"758","12188.56"
"759","12175.89"
"760","12189.04"
"761","12226.31"
"762","12270.52"
"763","12303.5"
"764","12309.45"
"765","12293.91"
"766","12273.86"
"767","12266.33"
"768","12281.84"
"769","12309.89"
"770","12335.75"
"771","12345.07"
"772","12336"
"773","12322.42"
"774","12319.18"
"775","12339.16"
"776","12378.42"
"777","12424.51"
"778","12464.92"
"779","12491.21"
"780","12506.97"
"781","12517.98"
"782","12529.89"
"783","12545.08"
"784","12562.22"
"785","12579.8"
"786","12596.22"
"787","12609.36"
"788","12616.89"
"789","12616.46"
"790","12607.61"
"791","12594.44"
"792","12581.73"
"793","12574.2"
"794","12575.04"
"795","12585.97"
"796","12608.7"
"797","12643.56"
"798","12683.34"
"799","12718.2"
"800","12738.39"
"801","12739.42"
"802","12726.78"
"803","12707.08"
"804","12686.8"
"805","12671.04"
"806","12663.93"
"807","12669.55"
"808","12689.88"
"809","12718.55"
"810","12747.19"
"811","12767.53"
"812","12777.37"
"813","12782.62"
"814","12789.75"
"815","12804.35"
"816","12824.68"
"817","12845.38"
"818","12861.08"
"819","12867.03"
"820","12860.11"
"821","12837.44"
"822","12796.74"
"823","12747.08"
"824","12707.73"
"825","12698.31"
"826","12731.99"
"827","12790.08"
"828","12844.22"
"829","12866.32"
"830","12846.56"
"831","12803.86"
"832","12759.69"
"833","12734.09"
"834","12733.96"
"835","12758.89"
"836","12808.45"
"837","12877.51"
"838","12948.23"
"839","13000.6"
"840","13015.58"
"841","12993.93"
"842","12954.67"
"843","12917.48"
"844","12898.39"
"845","12895.85"
"846","12903.02"
"847","12913.1"
"848","12921.92"
"849","12929.2"
"850","12934.96"
"851","12939.6"
"852","12946.53"
"853","12960.66"
"854","12986.91"
"855","13025.25"
"856","13063.95"
"857","13089.63"
"858","13089.77"
"859","13065.13"
"860","13026.74"
"861","12985.89"
"862","12953.58"
"863","12939.7"
"864","12953.88"
"865","13005.18"
"866","13086.1"
"867","13170"
"868","13229.22"
"869","13241.78"
"870","13218.99"
"871","13184.24"
"872","13160.78"
"873","13162.39"
"874","13187.01"
"875","13231.06"
"876","13290.05"
"877","13351.07"
"878","13396.79"
"879","13409.84"
"880","13383.52"
"881","13336.45"
"882","13290.94"
"883","13268.12"
"884","13272.03"
"885","13294.18"
"886","13325.76"
"887","13358.39"
"888","13385.14"
"889","13399.38"
"890","13395.01"
"891","13378.04"
"892","13366.44"
"893","13378.73"
"894","13427.57"
"895","13498.66"
"896","13569.88"
"897","13619.43"
"898","13638.96"
"899","13637.52"
"900","13625.3"
"901","13611.5"
"902","13599.06"
"903","13588.51"
"904","13580.37"
"905","13575.55"
"906","13575.55"
"907","13581.95"
"908","13595.98"
"909","13616.06"
"910","13639.25"
"911","13662.61"
"912","13684.35"
"913","13705.09"
"914","13725.76"
"915","13746.94"
"916","13765.53"
"917","13776.19"
"918","13773.6"
"919","13755.2"
"920","13725.56"
"921","13690.33"
"922","13655.15"
"923","13625.59"
"924","13607.11"
"925","13605.19"
"926","13623.68"
"927","13661.6"
"928","13717.02"
"929","13787.45"
"930","13860.75"
"931","13916.68"
"932","13934.73"
"933","13904.25"
"934","13849.37"
"935","13801.91"
"936","13792.37"
"937","13823.05"
"938","13869.45"
"939","13905.99"
"940","13913.4"
"941","13897.76"
"942","13871.51"
"943","13846.93"
"944","13832.28"
"945","13831.64"
"946","13848.86"
"947","13884.27"
"948","13922.49"
"949","13943.77"
"950","13929.04"
"951","13879.74"
"952","13820.66"
"953","13777.83"
"954","13771.35"
"955","13792.69"
"956","13824.73"
"957","13850.59"
"958","13862.11"
"959","13861.62"
"960","13852.07"
"961","13836.27"
"962","13816.31"
"963","13794.09"
"964","13771.55"
"965","13752.96"
"966","13745.48"
"967","13756.47"
"968","13790.73"
"969","13839.95"
"970","13891.54"
"971","13933.08"
"972","13958.71"
"973","13970.81"
"974","13972.32"
"975","13965.75"
"976","13951.55"
"977","13929.49"
"978","13899.44"
"979","13865.16"
"980","13835.19"
"981","13818.4"
"982","13821.57"
"983","13840.97"
"984","13869.48"
"985","13899.98"
"986","13924.58"
"987","13934.48"
"988","13920.82"
"989","13879.51"
"990","13829.82"
"991","13798.11"
"992","13810.02"
"993","13867.27"
"994","13943.97"
"995","14012.63"
"996","14051.16"
"997","14062.07"
"998","14054.87"
"999","14038.99"
"1000","14020.8"
"1001","14003.37"
"1002","13989.59"
"1003","13982.6"
"1004","13986.57"
"1005","14005.92"
"1006","14045.07"
"1007","14101.4"
"1008","14154.6"
"1009","14181.64"
"1010","14162.34"
"1011","14106.5"
"1012","14041.61"
"1013","13995.29"
"1014","13984.51"
"1015","14005.23"
"1016","14050.95"
"1017","14113.94"
"1018","14177.23"
"1019","14219.67"
"1020","14220.4"
"1021","14179.25"
"1022","14126.85"
"1023","14096.4"
"1024","14113.75"
"1025","14165.53"
"1026","14225.28"
"1027","14267.17"
"1028","14283.74"
"1029","14287.74"
"1030","14293.01"
"1031","14310.26"
"1032","14338.72"
"1033","14375"
"1034","14415.37"
"1035","14451.61"
"1036","14471.92"
"1037","14464.44"
"1038","14427.88"
"1039","14387.11"
"1040","14370.97"
"1041","14403.86"
"1042","14470.01"
"1043","14532.22"
"1044","14553.46"
"1045","14521.8"
"1046","14466.13"
"1047","14419.07"
"1048","14407.96"
"1049","14431.17"
"1050","14477.22"
"1051","14534.52"
"1052","14589.49"
"1053","14626.38"
"1054","14629.36"
"1055","14592.92"
"1056","14545.05"
"1057","14520.56"
"1058","14550.73"
"1059","14625.07"
"1060","14705.86"
"1061","14755.01"
"1062","14754.58"
"1063","14724.82"
"1064","14690.26"
"1065","14672.34"
"1066","14673.25"
"1067","14687.8"
"1068","14710.77"
"1069","14736.06"
"1070","14756.55"
"1071","14765.09"
"1072","14758.1"
"1073","14743.8"
"1074","14732.85"
"1075","14734.77"
"1076","14746.43"
"1077","14756.71"
"1078","14754.46"
"1079","14737.84"
"1080","14721.25"
"1081","14720.74"
"1082","14748.16"
"1083","14792.85"
"1084","14836.7"
"1085","14862.23"
"1086","14865.78"
"1087","14856.57"
"1088","14844.32"
"1089","14836.11"
"1090","14832.09"
"1091","14831.35"
"1092","14832.85"
"1093","14834.58"
"1094","14834.07"
"1095","14828.9"
"1096","14818.98"
"1097","14807.19"
"1098","14796.58"
"1099","14788.16"
"1100","14775.65"
"1101","14751.14"
"1102","14708.45"
"1103","14660.45"
"1104","14631.93"
"1105","14647.48"
"1106","14707.53"
"1107","14773.64"
"1108","14803.88"
"1109","14768.92"
"1110","14695.5"
"1111","14625.95"
"1112","14600.26"
"1113","14624.71"
"1114","14680.5"
"1115","14748.25"
"1116","14810.49"
"1117","14853.26"
"1118","14863"
"1119","14831.47"
"1120","14777.46"
"1121","14728.35"
"1122","14709.93"
"1123","14721.88"
"1124","14742.6"
"1125","14749.96"
"1126","14734.58"
"1127","14712.4"
"1128","14702.38"
"1129","14718.73"
"1130","14750.39"
"1131","14777.97"
"1132","14783.16"
"1133","14765.51"
"1134","14739.19"
"1135","14718.8"
"1136","14714.09"
"1137","14725.35"
"1138","14751.81"
"1139","14791.45"
"1140","14836.04"
"1141","14875.4"
"1142","14899.5"
"1143","14900.47"
"1144","14872.08"
"1145","14808.32"
"1146","14717.48"
"1147","14632.98"
"1148","14590.83"
"1149","14616.09"
"1150","14686.35"
"1151","14766.34"
"1152","14823.13"
"1153","14851.62"
"1154","14864.8"
"1155","14875.84"
"1156","14890.41"
"1157","14903.25"
"1158","14908.26"
"1159","14902.69"
"1160","14895.38"
"1161","14897.59"
"1162","14918.74"
"1163","14952.38"
"1164","14983.93"
"1165","14999.24"
"1166","14998.13"
"1167","14996.1"
"1168","15009.44"
"1169","15043.23"
"1170","15074.9"
"1171","15077.67"
"1172","15032.34"
"1173","14963.99"
"1174","14913.76"
"1175","14919.98"
"1176","14975.4"
"1177","15036.7"
"1178","15059.9"
"1179","15029.26"
"1180","14976.11"
"1181","14936.3"
"1182","14935.5"
"1183","14961.78"
"1184","14994.53"
"1185","15015.46"
"1186","15026.43"
"1187","15039.68"
"1188","15067.11"
"1189","15109.93"
"1190","15157.99"
"1191","15200.62"
"1192","15230.83"
"1193","15249.64"
"1194","15259.13"
"1195","15262.23"
"1196","15265.89"
"1197","15278.28"
"1198","15306.05"
"1199","15339.28"
"1200","15357.73"
"1201","15341.65"
"1202","15293.48"
"1203","15242.86"
"1204","15221.05"
"1205","15242.21"
"1206","15278.51"
"1207","15295.77"
"1208","15268.53"
"1209","15216.46"
"1210","15173.8"
"1211","15171.74"
"1212","15205.54"
"1213","15247.2"
"1214","15268.94"
"1215","15264.59"
"1216","15254.59"
"1217","15260.99"
"1218","15292.9"
"1219","15328.7"
"1220","15342.29"
"1221","15316.02"
"1222","15272.8"
"1223","15247.75"
"1224","15271.65"
"1225","15331.56"
"1226","15388.96"
"1227","15406.18"
"1228","15376.17"
"1229","15324.83"
"1230","15279.61"
"1231","15257.97"
"1232","15257.5"
"1233","15273.47"
"1234","15302.08"
"1235","15342.91"
"1236","15396.37"
"1237","15461.14"
"1238","15522.87"
"1239","15561.36"
"1240","15558"
"1241","15521.34"
"1242","15482.06"
"1243","15471.06"
"1244","15497.03"
"1245","15536.83"
"1246","15564.84"
"1247","15564.82"
"1248","15544.52"
"1249","15515.52"
"1250","15489.34"
"1251","15477.34"
"1252","15490.8"
"1253","15538.46"
"1254","15605.89"
"1255","15666.3"
"1256","15693.98"
"1257","15687.55"
"1258","15667.82"
"1259","15656.21"
"1260","15662.75"
"1261","15679.88"
"1262","15698.57"
"1263","15712.34"
"1264","15721.58"
"1265","15727.79"
"1266","15732.36"
"1267","15736.37"
"1268","15740.78"
"1269","15746.21"
"1270","15750.37"
"1271","15749.55"
"1272","15740.28"
"1273","15723.61"
"1274","15704.3"
"1275","15687.17"
"1276","15674.12"
"1277","15663.2"
"1278","15652.24"
"1279","15641.23"
"1280","15634.91"
"1281","15638.6"
"1282","15654.8"
"1283","15675.85"
"1284","15691.83"
"1285","15694.37"
"1286","15684.42"
"1287","15666.37"
"1288","15644.74"
"1289","15625.15"
"1290","15613.88"
"1291","15616.67"
"1292","15628.87"
"1293","15636.16"
"1294","15624.27"
"1295","15596.02"
"1296","15578.29"
"1297","15599.69"
"1298","15670.41"
"1299","15760.79"
"1300","15835.9"
"1301","15869.85"
"1302","15867.2"
"1303","15839.01"
"1304","15796.67"
"1305","15753.37"
"1306","15722.91"
"1307","15717.84"
"1308","15739.94"
"1309","15785.46"
"1310","15849.88"
"1311","15917.62"
"1312","15964.81"
"1313","15968.2"
"1314","15927.5"
"1315","15867.64"
"1316","15814.7"
"1317","15783.14"
"1318","15769.07"
"1319","15766.99"
"1320","15772.77"
"1321","15785.59"
"1322","15805.06"
"1323","15828.98"
"1324","15849.01"
"1325","15855.52"
"1326","15841.39"
"1327","15812.21"
"1328","15777.47"
"1329","15746.98"
"1330","15732.46"
"1331","15746.53"
"1332","15798.94"
"1333","15867.38"
"1334","15909.35"
"1335","15884.5"
"1336","15797.47"
"1337","15691.69"
"1338","15610.93"
"1339","15568.48"
"1340","15541.88"
"1341","15506.95"
"1342","15458.25"
"1343","15420.13"
"1344","15419.46"
"1345","15467.6"
"1346","15542.75"
"1347","15618.8"
"1348","15676.9"
"1349","15719.27"
"1350","15751.93"
"1351","15780.31"
"1352","15807.44"
"1353","15835.78"
"1354","15867.55"
"1355","15903.77"
"1356","15945.03"
"1357","15989.35"
"1358","16015.78"
"1359","15995.04"
"1360","15903.17"
"1361","15769.97"
"1362","15655.94"
"1363","15617.68"
"1364","15651.62"
"1365","15710.29"
"1366","15747.06"
"1367","15752.5"
"1368","15751.36"
"1369","15768.87"
"1370","15804.87"
"1371","15830.05"
"1372","15814.09"
"1373","15754.77"
"1374","15689.86"
"1375","15659.95"
"1376","15681.23"
"1377","15727.09"
"1378","15766.61"
"1379","15780.67"
"1380","15775.59"
"1381","15761.03"
"1382","15743.88"
"1383","15723.73"
"1384","15698.97"
"1385","15670.73"
"1386","15649.04"
"1387","15645.76"
"1388","15666.41"
"1389","15691.64"
"1390","15695.98"
"1391","15662.57"
"1392","15615.95"
"1393","15592.91"
"1394","15621.12"
"1395","15676.12"
"1396","15714.93"
"1397","15702.41"
"1398","15656.74"
"1399","15618.31"
"1400","15621.44"
"1401","15650.74"
"1402","15666.83"
"1403","15635.29"
"1404","15570.63"
"1405","15514.52"
"1406","15505.26"
"1407","15539.95"
"1408","15589.77"
"1409","15626.59"
"1410","15636.68"
"1411","15616.45"
"1412","15563.88"
"1413","15497.24"
"1414","15450.82"
"1415","15457.3"
"1416","15511.75"
"1417","15576.66"
"1418","15614.69"
"1419","15615.48"
"1420","15594.26"
"1421","15567.04"
"1422","15543.46"
"1423","15526.54"
"1424","15519.08"
"1425","15525.54"
"1426","15552.21"
"1427","15605"
"1428","15674.74"
"1429","15734.4"
"1430","15756.63"
"1431","15739.32"
"1432","15712.05"
"1433","15705.96"
"1434","15732.57"
"1435","15777.55"
"1436","15824.92"
"1437","15862.61"
"1438","15883.95"
"1439","15882.9"
"1440","15863.41"
"1441","15843.69"
"1442","15842.75"
"1443","15865.25"
"1444","15894.89"
"1445","15913.95"
"1446","15915.95"
"1447","15911.14"
"1448","15910.99"
"1449","15919.85"
"1450","15931.47"
"1451","15938.7"
"1452","15934.83"
"1453","15913.77"
"1454","15869.66"
"1455","15807.16"
"1456","15746.53"
"1457","15708.93"
"1458","15698.31"
"1459","15693.36"
"1460","15671.16"
"1461","15629"
"1462","15592.95"
"1463","15590.59"
"1464","15618.26"
"1465","15629.08"
"1466","15574.17"
"1467","15453.8"
"1468","15333.52"
"1469","15281.9"
"1470","15309.77"
"1471","15354.94"
"1472","15351.89"
"1473","15283.32"
"1474","15189.58"
"1475","15113.64"
"1476","15074.7"
"1477","15065.2"
"1478","15076.06"
"1479","15095.16"
"1480","15107.27"
"1481","15097.66"
"1482","15066.58"
"1483","15028.74"
"1484","14999.14"
"1485","14985.95"
"1486","14991.37"
"1487","15016.42"
"1488","15046.75"
"1489","15055.61"
"1490","15018.53"
"1491","14947.91"
"1492","14882.92"
"1493","14860.39"
"1494","14882.33"
"1495","14928.21"
"1496","14977.21"
"1497","15009.82"
"1498","15007.27"
"1499","14955.38"
"1500","14878.82"
"1501","14821.83"
"1502","14820.7"
"1503","14853.57"
"1504","14873.22"
"1505","14843.09"
"1506","14791.8"
"1507","14772.29"
"1508","14821.77"
"1509","14897.67"
"1510","14932.21"
"1511","14879.63"
"1512","14787.15"
"1513","14726.5"
"1514","14745.21"
"1515","14806.58"
"1516","14855.58"
"1517","14857.66"
"1518","14836.94"
"1519","14827.93"
"1520","14846.03"
"1521","14861.71"
"1522","14839.25"
"1523","14769.45"
"1524","14694.01"
"1525","14659.83"
"1526","14679.78"
"1527","14713.62"
"1528","14717.27"
"1529","14677.23"
"1530","14618.75"
"1531","14568.7"
"1532","14532.13"
"1533","14491.77"
"1534","14430.97"
"1535","14360.91"
"1536","14315.62"
"1537","14326.08"
"1538","14378.81"
"1539","14431.37"
"1540","14446.58"
"1541","14437.55"
"1542","14443.07"
"1543","14493.21"
"1544","14561"
"1545","14597.07"
"1546","14566.78"
"1547","14506.23"
"1548","14472.52"
"1549","14501.36"
"1550","14553.01"
"1551","14571.11"
"1552","14528.15"
"1553","14471.95"
"1554","14462.29"
"1555","14522.72"
"1556","14606.43"
"1557","14659.1"
"1558","14658.41"
"1559","14628.65"
"1560","14597.18"
"1561","14575.73"
"1562","14558.97"
"1563","14540.99"
"1564","14519.45"
"1565","14494.95"
"1566","14468.39"
"1567","14443.27"
"1568","14424.61"
"1569","14416.6"
"1570","14417.68"
"1571","14423.79"
"1572","14430.05"
"1573","14427.54"
"1574","14406.18"
"1575","14362.88"
"1576","14317.55"
"1577","14294.73"
"1578","14306.81"
"1579","14338.82"
"1580","14372.1"
"1581","14392.01"
"1582","14390.22"
"1583","14359.75"
"1584","14315.16"
"1585","14294.82"
"1586","14334.68"
"1587","14415.95"
"1588","14477.71"
"1589","14466.81"
"1590","14410.45"
"1591","14378.31"
"1592","14423.97"
"1593","14506.95"
"1594","14553.57"
"1595","14512.64"
"1596","14415.67"
"1597","14313.06"
"1598","14243.49"
"1599","14217.74"
"1600","14242.27"
"1601","14304.77"
"1602","14363.67"
"1603","14376.63"
"1604","14346.27"
"1605","14321.93"
"1606","14350.09"
"1607","14412.47"
"1608","14446.28"
"1609","14400.58"
"1610","14317.81"
"1611","14281.89"
"1612","14350.17"
"1613","14461.32"
"1614","14521.25"
"1615","14476.41"
"1616","14382.84"
"1617","14314.46"
"1618","14310.45"
"1619","14351.27"
"1620","14411.79"
"1621","14467.74"
"1622","14495.85"
"1623","14475.64"
"1624","14421.47"
"1625","14371.23"
"1626","14357.46"
"1627","14372.94"
"1628","14393.88"
"1629","14402.14"
"1630","14401.87"
"1631","14402.67"
"1632","14407.92"
"1633","14406.75"
"1634","14386.6"
"1635","14348.18"
"1636","14310.58"
"1637","14293.11"
"1638","14294.7"
"1639","14297.15"
"1640","14284.54"
"1641","14264.79"
"1642","14257.82"
"1643","14277.84"
"1644","14311.93"
"1645","14339.38"
"1646","14347.24"
"1647","14342.62"
"1648","14335.74"
"1649","14332.88"
"1650","14334.45"
"1651","14340.45"
"1652","14351.98"
"1653","14371.1"
"1654","14398.84"
"1655","14427.41"
"1656","14444.56"
"1657","14441.27"
"1658","14422.95"
"1659","14398.94"
"1660","14373.74"
"1661","14340.36"
"1662","14290.43"
"1663","14227.01"
"1664","14168.25"
"1665","14131.97"
"1666","14116.68"
"1667","14106.43"
"1668","14087.14"
"1669","14059.58"
"1670","14030.64"
"1671","14007.91"
"1672","14001.39"
"1673","14021.42"
"1674","14063.25"
"1675","14095.11"
"1676","14083.95"
"1677","14032.29"
"1678","13977.44"
"1679","13953.6"
"1680","13953.52"
"1681","13947.92"
"1682","13915.75"
"1683","13872.56"
"1684","13843.75"
"1685","13839.8"
"1686","13838.76"
"1687","13815.11"
"1688","13764.74"
"1689","13707.97"
"1690","13665.49"
"1691","13647.38"
"1692","13657.33"
"1693","13694.41"
"1694","13735.92"
"1695","13752.53"
"1696","13725.68"
"1697","13661.88"
"1698","13571.67"
"1699","13481.09"
"1700","13434.44"
"1701","13470.79"
"1702","13560.29"
"1703","13631.09"
"1704","13627.76"
"1705","13575.77"
"1706","13524.47"
"1707","13508.59"
"1708","13530.48"
"1709","13587.44"
"1710","13657.34"
"1711","13696.73"
"1712","13667.22"
"1713","13588.7"
"1714","13512.91"
"1715","13479.46"
"1716","13477.08"
"1717","13481.74"
"1718","13482.64"
"1719","13493.67"
"1720","13529.82"
"1721","13575.15"
"1722","13585.63"
"1723","13526.8"
"1724","13439.72"
"1725","13398.18"
"1726","13442.38"
"1727","13509.4"
"1728","13517.99"
"1729","13450.72"
"1730","13379.71"
"1731","13377.31"
"1732","13435.9"
"1733","13494.54"
"1734","13504.5"
"1735","13480.74"
"1736","13457.13"
"1737","13453.54"
"1738","13460.94"
"1739","13467.04"
"1740","13465.85"
"1741","13457.31"
"1742","13442.08"
"1743","13423.78"
"1744","13407.33"
"1745","13399.1"
"1746","13409.49"
"1747","13449.03"
"1748","13506.24"
"1749","13541.8"
"1750","13519.79"
"1751","13456.14"
"1752","13396.41"
"1753","13377.36"
"1754","13400.88"
"1755","13460.29"
"1756","13529.01"
"1757","13549.04"
"1758","13466.64"
"1759","13322.13"
"1760","13221.9"
"1761","13245.74"
"1762","13341.95"
"1763","13420.68"
"1764","13432.46"
"1765","13403.58"
"1766","13367.16"
"1767","13331.41"
"1768","13284.41"
"1769","13219.14"
"1770","13158.29"
"1771","13134.37"
"1772","13161.85"
"1773","13217.57"
"1774","13274.13"
"1775","13313.27"
"1776","13324.66"
"1777","13301.75"
"1778","13258.04"
"1779","13214.23"
"1780","13187.36"
"1781","13186.59"
"1782","13219.13"
"1783","13275.11"
"1784","13329.44"
"1785","13359.4"
"1786","13358.84"
"1787","13327.55"
"1788","13278.25"
"1789","13250.79"
"1790","13284.73"
"1791","13353.53"
"1792","13374.69"
"1793","13287.43"
"1794","13156.09"
"1795","13085.77"
"1796","13121.65"
"1797","13193.92"
"1798","13224.35"
"1799","13204.58"
"1800","13179.41"
"1801","13182.23"
"1802","13188.36"
"1803","13157.06"
"1804","13085.26"
"1805","13031.77"
"1806","13055.03"
"1807","13141.72"
"1808","13232.52"
"1809","13281.01"
"1810","13291.13"
"1811","13278.32"
"1812","13256.59"
"1813","13238.03"
"1814","13231.47"
"1815","13218.81"
"1816","13168.41"
"1817","13069.52"
"1818","12969.5"
"1819","12924.17"
"1820","12952.42"
"1821","13035.7"
"1822","13150.05"
"1823","13249.4"
"1824","13279.68"
"1825","13222.86"
"1826","13131.99"
"1827","13065.78"
"1828","13044.75"
"1829","13061.73"
"1830","13104.1"
"1831","13140.26"
"1832","13134.58"
"1833","13082.22"
"1834","13019.8"
"1835","12983.25"
"1836","12978.87"
"1837","12998.59"
"1838","13032.29"
"1839","13064.89"
"1840","13081.21"
"1841","13078.71"
"1842","13065.89"
"1843","13051.56"
"1844","13044.18"
"1845","13051.92"
"1846","13069.63"
"1847","13072.03"
"1848","13036.95"
"1849","12985.63"
"1850","12962.31"
"1851","12993.19"
"1852","13056.19"
"1853","13121.49"
"1854","13162.19"
"1855","13154"
"1856","13084.76"
"1857","12998.2"
"1858","12953.52"
"1859","12968.64"
"1860","13001.83"
"1861","13011.25"
"1862","12992.74"
"1863","12960.38"
"1864","12930.28"
"1865","12922.77"
"1866","12956.21"
"1867","13009.77"
"1868","13032.54"
"1869","12989.21"
"1870","12906.5"
"1871","12825.57"
"1872","12779.66"
"1873","12792.77"
"1874","12877.69"
"1875","12982.44"
"1876","13031.43"
"1877","12997.14"
"1878","12935.65"
"1879","12906.45"
"1880","12920.15"
"1881","12960.08"
"1882","13006.22"
"1883","13030.9"
"1884","13008.11"
"1885","12959.13"
"1886","12943.03"
"1887","12995.03"
"1888","13056.55"
"1889","13049.52"
"1890","12969.61"
"1891","12894.26"
"1892","12886.11"
"1893","12904.43"
"1894","12874.96"
"1895","12790.03"
"1896","12741.95"
"1897","12812.99"
"1898","12944.48"
"1899","13013.42"
"1900","12962.19"
"1901","12864.6"
"1902","12803.58"
"1903","12790.85"
"1904","12795.12"
"1905","12795.64"
"1906","12800.91"
"1907","12822.95"
"1908","12856.05"
"1909","12880.9"
"1910","12884.68"
"1911","12877.66"
"1912","12874.51"
"1913","12880.2"
"1914","12890.5"
"1915","12898.11"
"1916","12884.61"
"1917","12829.71"
"1918","12747.73"
"1919","12692.47"
"1920","12705.91"
"1921","12757.56"
"1922","12794.52"
"1923","12798.81"
"1924","12799.36"
"1925","12820.18"
"1926","12834.91"
"1927","12798.76"
"1928","12701.73"
"1929","12587.51"
"1930","12501.54"
"1931","12468.56"
"1932","12504.1"
"1933","12597.27"
"1934","12691.82"
"1935","12733.92"
"1936","12726.37"
"1937","12698.96"
"1938","12675.29"
"1939","12666.96"
"1940","12679.91"
"1941","12681.85"
"1942","12621.09"
"1943","12494.67"
"1944","12397.29"
"1945","12421.68"
"1946","12532.39"
"1947","12624.86"
"1948","12639.03"
"1949","12608.9"
"1950","12577.58"
"1951","12563.06"
"1952","12569.48"
"1953","12596.59"
"1954","12635.3"
"1955","12674.85"
"1956","12699.21"
"1957","12689.55"
"1958","12641.75"
"1959","12581.91"
"1960","12538.39"
"1961","12524.82"
"1962","12546.84"
"1963","12588.82"
"1964","12593.55"
"1965","12510.81"
"1966","12393.25"
"1967","12345.02"
"1968","12403.54"
"1969","12482.49"
"1970","12494.59"
"1971","12450.42"
"1972","12405.83"
"1973","12388.38"
"1974","12377.72"
"1975","12354.06"
"1976","12333.14"
"1977","12344.93"
"1978","12383.32"
"1979","12388.38"
"1980","12313.33"
"1981","12215.22"
"1982","12186.94"
"1983","12241.97"
"1984","12290.76"
"1985","12259.41"
"1986","12185.63"
"1987","12139.86"
"1988","12146.77"
"1989","12180.64"
"1990","12216.17"
"1991","12240.38"
"1992","12243.76"
"1993","12224.64"
"1994","12188.57"
"1995","12145.61"
"1996","12119.47"
"1997","12134.12"
"1998","12178.05"
"1999","12213.63"
"2000","12210.79"
"2001","12160.1"
"2002","12060.23"
"2003","11959.75"
"2004","11935.66"
"2005","11999.96"
"2006","12039.63"
"2007","11952.27"
"2008","11816.69"
"2009","11789.26"
"2010","11905.39"
"2011","12025.07"
"2012","12025.58"
"2013","11946.58"
"2014","11877.95"
"2015","11854.3"
"2016","11850.89"
"2017","11842.05"
"2018","11809.69"
"2019","11740.08"
"2020","11660.93"
"2021","11632.22"
"2022","11686.02"
"2023","11782.41"
"2024","11867.58"
"2025","11862.86"
"2026","11677.33"
"2027","11344.68"
"2028","11112.19"
"2029","11193.35"
"2030","11470.05"
"2031","11705.77"
"2032","11802.85"
"2033","11825.92"
"2034","11829.72"
"2035","11796.28"
"2036","11694.53"
"2037","11557.82"
"2038","11469.57"
"2039","11473.56"
"2040","11515.46"
"2041","11534.35"
"2042","11536.61"
"2043","11561.63"
"2044","11603.76"
"2045","11589.01"
"2046","11466.45"
"2047","11327.19"
"2048","11300.08"
"2049","11384.07"
"2050","11454.83"
"2051","11428.63"
"2052","11352.88"
"2053","11293.87"
"2054","11270.6"
"2055","11274.53"
"2056","11289.87"
"2057","11289.29"
"2058","11253.69"
"2059","11215.06"
"2060","11220.15"
"2061","11257.99"
"2062","11259.98"
"2063","11193.11"
"2064","11136.75"
"2065","11178.04"
"2066","11273.9"
"2067","11306.96"
"2068","11225.79"
"2069","11087.8"
"2070","10957.76"
"2071","10886.13"
"2072","10915.02"
"2073","11006.53"
"2074","11050.12"
"2075","10986.74"
"2076","10896.76"
"2077","10870.57"
"2078","10896.37"
"2079","10912.92"
"2080","10894.65"
"2081","10864.89"
"2082","10843.83"
"2083","10825.35"
"2084","10798.1"
"2085","10767.52"
"2086","10751.03"
"2087","10752.99"
"2088","10751.97"
"2089","10727.58"
"2090","10683.05"
"2091","10630.18"
"2092","10583.86"
"2093","10561.93"
"2094","10573.95"
"2095","10607.01"
"2096","10646.62"
"2097","10695.49"
"2098","10763.64"
"2099","10824.68"
"2100","10805.71"
"2101","10665.57"
"2102","10484.9"
"2103","10364.98"
"2104","10338.95"
"2105","10397.73"
"2106","10506.49"
"2107","10590.77"
"2108","10591.45"
"2109","10532.59"
"2110","10459.41"
"2111","10394.24"
"2112","10342.51"
"2113","10301.57"
"2114","10254.46"
"2115","10192.35"
"2116","10156.49"
"2117","10198.97"
"2118","10280.37"
"2119","10285.14"
"2120","10177.47"
"2121","10093.55"
"2122","10155.9"
"2123","10281.67"
"2124","10320.79"
"2125","10245.68"
"2126","10139.45"
"2127","10061.65"
"2128","10009.96"
"2129","9974.513"
"2130","9950.293"
"2131","9934.104"
"2132","9922.759"
"2133","9913.079"
"2134","9902.48"
"2135","9889.701"
"2136","9874.091"
"2137","9857.531"
"2138","9842.524"
"2139","9825.302"
"2140","9796.377"
"2141","9746.36"
"2142","9666.61"
"2143","9561.252"
"2144","9505.815"
"2145","9592.946"
"2146","9772.571"
"2147","9874.137"
"2148","9814.219"
"2149","9689.987"
"2150","9600.505"
"2151","9546.227"
"2152","9498.677"
"2153","9456.38"
"2154","9438.021"
"2155","9451.245"
"2156","9483.829"
"2157","9517.465"
"2158","9516.824"
"2159","9450.016"
"2160","9376.235"
"2161","9410.122"
"2162","9549.514"
"2163","9624.57"
"2164","9516.872"
"2165","9324.443"
"2166","9180.824"
"2167","9133.14"
"2168","9183.206"
"2169","9285.337"
"2170","9340.775"
"2171","9293.147"
"2172","9201.39"
"2173","9133.023"
"2174","9095.94"
"2175","9075.216"
"2176","9053.96"
"2177","9013.838"
"2178","8957.896"
"2179","8928.815"
"2180","8955.62"
"2181","8989.765"
"2182","8968.236"
"2183","8898.812"
"2184","8831.827"
"2185","8788.15"
"2186","8749.374"
"2187","8697.434"
"2188","8622.943"
"2189","8525.226"
"2190","8451.91"
"2191","8466.256"
"2192","8549.929"
"2193","8613.042"
"2194","8614.59"
"2195","8608.427"
"2196","8637.731"
"2197","8659.412"
"2198","8616.475"
"2199","8533.489"
"2200","8479.37"
"2201","8467.132"
"2202","8444.215"
"2203","8377.581"
"2204","8290.655"
"2205","8214.229"
"2206","8173.178"
"2207","8186.149"
"2208","8215.226"
"2209","8184.32"
"2210","8101.125"
"2211","8092.956"
"2212","8219.664"
"2213","8316.059"
"2214","8216.933"
"2215","8025.648"
"2216","7940.609"
"2217","7968.056"
"2218","7960.822"
"2219","7869.379"
"2220","7806.08"
"2221","7846.451"
"2222","7898.966"
"2223","7860.742"
"2224","7789.493"
"2225","7803.972"
"2226","7883.278"
"2227","7889.282"
"2228","7779.608"
"2229","7674.795"
"2230","7666.92"
"2231","7703.954"
"2232","7712.913"
"2233","7682.112"
"2234","7626.523"
"2235","7572.561"
"2236","7555.263"
"2237","7565.729"
"2238","7526.435"
"2239","7396.804"
"2240","7266.986"
"2241","7227.714"
"2242","7217.48"
"2243","7125.345"
"2244","6970.222"
"2245","6864.842"
"2246","6843.641"
"2247","6831.535"
"2248","6783.549"
"2249","6752.517"
"2250","6784.99"
"2251","6815.807"
"2252","6753.997"
"2253","6614.808"
"2254","6476.452"
"2255","6378.683"
"2256","6317.853"
"2257","6285.864"
"2258","6270.134"
"2259","6253.69"
"2260","6205.142"
"2261","6097.604"
"2262","5965.052"
"2263","5866.813"
"2264","5819.982"
"2265","5806.45"
"2266","5795.256"
"2267","5738.354"
"2268","5626.088"
"2269","5553.823"
"2270","5596.093"
"2271","5636.799"
"2272","5518.974"
"2273","5270.205"
"2274","5020.36"
"2275","4844.06"
"2276","4759.669"
"2277","4747.738"
"2278","4728.178"
"2279","4651.193"
"2280","4578.542"
"2281","4572.989"
"2282","4581.676"
"2283","4519.3"
"2284","4392.319"
"2285","4262.014"
"2286","4140.624"
"2287","3988.606"
"2288","3817.376"
"2289","3733.207"
"2290","3780.86"
"2291","3783.687"
"2292","3576.366"
"2293","3298.494"
"2294","3171.471"
"2295","3162.158"
"2296","3092.941"
"2297","2952.048"
"2298","2892.09"
"2299","2959.231"
"2300","3014.455"
