,"Scan 01179"
"400","9606.764"
"401","9607.534"
"402","9585.467"
"403","9535.093"
"404","9466.041"
"405","9392.737"
"406","9329.495"
"407","9288.937"
"408","9270.737"
"409","9268.344"
"410","9275.209"
"411","9285.156"
"412","9296.285"
"413","9309.657"
"414","9326.393"
"415","9347.513"
"416","9372.084"
"417","9397.271"
"418","9420.172"
"419","9437.979"
"420","9450.645"
"421","9461.836"
"422","9475.459"
"423","9495.352"
"424","9521.161"
"425","9544.866"
"426","9557.665"
"427","9550.841"
"428","9522.144"
"429","9485.406"
"430","9456.843"
"431","9452.555"
"432","9481.626"
"433","9529.696"
"434","9577.551"
"435","9606.115"
"436","9601.332"
"437","9571.391"
"438","9530.693"
"439","9493.548"
"440","9472.091"
"441","9466.046"
"442","9470.575"
"443","9480.87"
"444","9492.379"
"445","9502.368"
"446","9508.953"
"447","9510.273"
"448","9504.628"
"449","9491.956"
"450","9473.122"
"451","9449.002"
"452","9420.65"
"453","9391.538"
"454","9366.827"
"455","9351.677"
"456","9350.781"
"457","9361.411"
"458","9374.666"
"459","9381.519"
"460","9373.376"
"461","9350.125"
"462","9319.881"
"463","9291.053"
"464","9271.75"
"465","9262.82"
"466","9257.033"
"467","9246.775"
"468","9224.71"
"469","9191.949"
"470","9160.301"
"471","9142.182"
"472","9149.682"
"473","9182.766"
"474","9224.342"
"475","9256.119"
"476","9260.169"
"477","9232.773"
"478","9192.194"
"479","9158.474"
"480","9151.332"
"481","9175.664"
"482","9211.617"
"483","9237.096"
"484","9230.301"
"485","9184.931"
"486","9122.181"
"487","9065.969"
"488","9039.921"
"489","9052.229"
"490","9082.349"
"491","9106.721"
"492","9102.047"
"493","9059.102"
"494","8995.646"
"495","8932.411"
"496","8889.9"
"497","8876.236"
"498","8875.463"
"499","8868.933"
"500","8838.203"
"501","8777.488"
"502","8705.561"
"503","8643.926"
"504","8613.834"
"505","8621.382"
"506","8643.761"
"507","8655.019"
"508","8629.528"
"509","8559.623"
"510","8470.765"
"511","8391.871"
"512","8351.477"
"513","8358.784"
"514","8389.066"
"515","8414.268"
"516","8406.725"
"517","8355.581"
"518","8277.649"
"519","8192.244"
"520","8118.441"
"521","8067.693"
"522","8039.875"
"523","8033.885"
"524","8048.539"
"525","8078.247"
"526","8111.31"
"527","8135.64"
"528","8139.481"
"529","8120.738"
"530","8089.331"
"531","8055.889"
"532","8030.766"
"533","8018.135"
"534","8015.366"
"535","8019.49"
"536","8027.478"
"537","8034.547"
"538","8034.243"
"539","8020.074"
"540","7986.128"
"541","7935.779"
"542","7880.079"
"543","7830.251"
"544","7796.712"
"545","7779.892"
"546","7773.245"
"547","7770.104"
"548","7764.417"
"549","7755.998"
"550","7748.103"
"551","7744.004"
"552","7746.38"
"553","7753.297"
"554","7760.626"
"555","7764.244"
"556","7761.075"
"557","7754.356"
"558","7749.729"
"559","7752.804"
"560","7767.59"
"561","7790.601"
"562","7816.129"
"563","7838.507"
"564","7852.458"
"565","7854.095"
"566","7839.854"
"567","7806.195"
"568","7755.263"
"569","7704.693"
"570","7674.668"
"571","7685.174"
"572","7740.811"
"573","7814.715"
"574","7876.287"
"575","7895.429"
"576","7863.771"
"577","7806.202"
"578","7750.338"
"579","7722.978"
"580","7730.167"
"581","7754.289"
"582","7776.508"
"583","7779.017"
"584","7760.491"
"585","7733.458"
"586","7710.826"
"587","7704.325"
"588","7713.504"
"589","7730.502"
"590","7747.386"
"591","7757.097"
"592","7758.545"
"593","7753.206"
"594","7742.558"
"595","7728.227"
"596","7712.566"
"597","7698.129"
"598","7687.464"
"599","7682.16"
"600","7680.86"
"601","7681.645"
"602","7682.6"
"603","7681.878"
"604","7677.752"
"605","7668.514"
"606","7652.531"
"607","7631.32"
"608","7610.742"
"609","7596.958"
"610","7595.748"
"611","7605.656"
"612","7618.512"
"613","7625.921"
"614","7620.392"
"615","7603.834"
"616","7583.928"
"617","7568.394"
"618","7563.599"
"619","7567.443"
"620","7574.52"
"621","7579.445"
"622","7578.034"
"623","7570.625"
"624","7558.642"
"625","7543.495"
"626","7527.05"
"627","7512.208"
"628","7502.01"
"629","7499.394"
"630","7502.966"
"631","7505.182"
"632","7498.056"
"633","7474.274"
"634","7438.476"
"635","7405.808"
"636","7391.728"
"637","7409.519"
"638","7452.982"
"639","7505.517"
"640","7550.479"
"641","7574.576"
"642","7581.022"
"643","7578.135"
"644","7574.207"
"645","7573.848"
"646","7571.541"
"647","7560.042"
"648","7532.274"
"649","7490.733"
"650","7453.03"
"651","7438.072"
"652","7463.494"
"653","7522.666"
"654","7586.64"
"655","7625.713"
"656","7614.043"
"657","7559.666"
"658","7488.412"
"659","7426.198"
"660","7394.5"
"661","7394.843"
"662","7423.096"
"663","7475.114"
"664","7542.068"
"665","7603.933"
"666","7639.104"
"667","7626.663"
"668","7569.842"
"669","7503.105"
"670","7462.907"
"671","7482.419"
"672","7552.418"
"673","7633.586"
"674","7686.07"
"675","7677.579"
"676","7621.083"
"677","7546.442"
"678","7483.456"
"679","7453.069"
"680","7450.173"
"681","7464.881"
"682","7487.373"
"683","7510.175"
"684","7529.341"
"685","7541.219"
"686","7542.438"
"687","7533.848"
"688","7519.625"
"689","7504.022"
"690","7491.209"
"691","7484.878"
"692","7488.525"
"693","7505.64"
"694","7536.307"
"695","7570.44"
"696","7596.082"
"697","7601.503"
"698","7585.401"
"699","7561.648"
"700","7545.278"
"701","7550.126"
"702","7573.929"
"703","7602.709"
"704","7622.254"
"705","7621.392"
"706","7605.812"
"707","7587.034"
"708","7576.557"
"709","7581.269"
"710","7596.646"
"711","7616.436"
"712","7634.514"
"713","7648.522"
"714","7660.514"
"715","7672.792"
"716","7687.081"
"717","7699.629"
"718","7703.626"
"719","7692.231"
"720","7662.598"
"721","7627.565"
"722","7603.826"
"723","7607.875"
"724","7643.217"
"725","7690.968"
"726","7730.063"
"727","7740.733"
"728","7723.121"
"729","7693.203"
"730","7667.378"
"731","7658.845"
"732","7662.821"
"733","7668.185"
"734","7663.861"
"735","7646.001"
"736","7627.539"
"737","7623.762"
"738","7649.174"
"739","7699.953"
"740","7753.508"
"741","7786.442"
"742","7779.495"
"743","7743.805"
"744","7704.12"
"745","7685.202"
"746","7701.865"
"747","7740.561"
"748","7782.719"
"749","7810.179"
"750","7817.408"
"751","7814.008"
"752","7810.466"
"753","7815.711"
"754","7825.269"
"755","7827.782"
"756","7811.866"
"757","7773.518"
"758","7732.302"
"759","7712.446"
"760","7737.531"
"761","7807.789"
"762","7893.473"
"763","7962.907"
"764","7987.834"
"765","7970.857"
"766","7931.055"
"767","7887.634"
"768","7855.738"
"769","7837.469"
"770","7832.3"
"771","7839.702"
"772","7858.643"
"773","7887.479"
"774","7924.53"
"775","7967.479"
"776","8008.547"
"777","8037.197"
"778","8042.888"
"779","8021.893"
"780","7990.559"
"781","7968.896"
"782","7976.317"
"783","8015.564"
"784","8070.543"
"785","8124.168"
"786","8161.507"
"787","8183.051"
"788","8196.061"
"789","8207.798"
"790","8220.69"
"791","8225.275"
"792","8210.294"
"793","8165.509"
"794","8101.117"
"795","8046.37"
"796","8031.222"
"797","8077.011"
"798","8157.341"
"799","8229.363"
"800","8250.509"
"801","8205.792"
"802","8132.368"
"803","8073.161"
"804","8067.958"
"805","8115.455"
"806","8185.243"
"807","8246.327"
"808","8275.211"
"809","8277.799"
"810","8267.177"
"811","8256.355"
"812","8255.035"
"813","8268.459"
"814","8301.554"
"815","8357.024"
"816","8419.327"
"817","8463.952"
"818","8466.384"
"819","8417.372"
"820","8346.66"
"821","8290.118"
"822","8281.735"
"823","8319.912"
"824","8371.044"
"825","8400.398"
"826","8382.153"
"827","8334.102"
"828","8287.381"
"829","8272.784"
"830","8300.405"
"831","8347.716"
"832","8389.327"
"833","8402.602"
"834","8390.781"
"835","8371.376"
"836","8362.021"
"837","8373.442"
"838","8397.35"
"839","8422.216"
"840","8436.915"
"841","8438.314"
"842","8430.662"
"843","8418.479"
"844","8406.132"
"845","8397.269"
"846","8395.316"
"847","8403.642"
"848","8422.228"
"849","8446.043"
"850","8469.646"
"851","8488.009"
"852","8499.581"
"853","8504.544"
"854","8503.09"
"855","8497.443"
"856","8494.613"
"857","8502.303"
"858","8527.336"
"859","8563.313"
"860","8593.612"
"861","8601.351"
"862","8576.956"
"863","8538.319"
"864","8509.772"
"865","8514.928"
"866","8555.777"
"867","8609.434"
"868","8651.646"
"869","8662.818"
"870","8650.568"
"871","8632.384"
"872","8625.645"
"873","8639.097"
"874","8667.093"
"875","8702.608"
"876","8738.813"
"877","8770.539"
"878","8793.491"
"879","8803.407"
"880","8799.592"
"881","8789.886"
"882","8783.375"
"883","8788.612"
"884","8806.743"
"885","8833.44"
"886","8864.247"
"887","8894.821"
"888","8921.202"
"889","8939.508"
"890","8946.098"
"891","8942.834"
"892","8937.036"
"893","8936.26"
"894","8946.562"
"895","8967.077"
"896","8994.933"
"897","9027.236"
"898","9060.492"
"899","9090.426"
"900","9112.702"
"901","9123.586"
"902","9123.063"
"903","9112.549"
"904","9093.485"
"905","9069.056"
"906","9045.327"
"907","9028.632"
"908","9024.681"
"909","9034.047"
"910","9054.787"
"911","9084.921"
"912","9121.676"
"913","9160.594"
"914","9197.017"
"915","9226.311"
"916","9244.169"
"917","9246.47"
"918","9229.111"
"919","9192.113"
"920","9145.929"
"921","9102.635"
"922","9073.896"
"923","9065.769"
"924","9080.263"
"925","9119.294"
"926","9180.858"
"927","9251.128"
"928","9314.039"
"929","9354.149"
"930","9366.63"
"931","9355.57"
"932","9325.335"
"933","9282.448"
"934","9241.056"
"935","9216.985"
"936","9225.133"
"937","9260.781"
"938","9300.549"
"939","9320.302"
"940","9303.847"
"941","9266.892"
"942","9233.156"
"943","9225.643"
"944","9249.015"
"945","9288.638"
"946","9328.96"
"947","9356.711"
"948","9368.861"
"949","9365.217"
"950","9345.746"
"951","9315.078"
"952","9283.145"
"953","9260.173"
"954","9254.042"
"955","9261.372"
"956","9275.4"
"957","9289.452"
"958","9299.856"
"959","9306.556"
"960","9309.711"
"961","9309.303"
"962","9304.418"
"963","9293.855"
"964","9276.565"
"965","9256.81"
"966","9245.464"
"967","9253.813"
"968","9289.143"
"969","9337.91"
"970","9379.822"
"971","9395.021"
"972","9379.895"
"973","9351.292"
"974","9327.376"
"975","9322.876"
"976","9334.616"
"977","9353.6"
"978","9370.869"
"979","9378.983"
"980","9372.4"
"981","9345.697"
"982","9297.267"
"983","9244.977"
"984","9212.896"
"985","9224.388"
"986","9278.556"
"987","9345.052"
"988","9391.726"
"989","9394.702"
"990","9370.543"
"991","9348.13"
"992","9355.55"
"993","9395.966"
"994","9443.672"
"995","9471.329"
"996","9459.797"
"997","9427.451"
"998","9403.388"
"999","9415.751"
"1000","9466.714"
"1001","9530.287"
"1002","9579.059"
"1003","9592.529"
"1004","9579.239"
"1005","9555.349"
"1006","9537.011"
"1007","9535.15"
"1008","9547.514"
"1009","9569.819"
"1010","9597.203"
"1011","9618.876"
"1012","9620.539"
"1013","9587.965"
"1014","9522.178"
"1015","9454.229"
"1016","9418.691"
"1017","9444.233"
"1018","9514.955"
"1019","9594.646"
"1020","9647.353"
"1021","9658.021"
"1022","9642.838"
"1023","9620.554"
"1024","9607.332"
"1025","9605.424"
"1026","9612.44"
"1027","9626.088"
"1028","9646.73"
"1029","9677.65"
"1030","9722.298"
"1031","9780.148"
"1032","9836.07"
"1033","9871.538"
"1034","9869.471"
"1035","9835.019"
"1036","9790.744"
"1037","9759.675"
"1038","9756.012"
"1039","9772.156"
"1040","9797.203"
"1041","9821.163"
"1042","9842.474"
"1043","9864.054"
"1044","9888.822"
"1045","9917.075"
"1046","9944.85"
"1047","9967.791"
"1048","9981.855"
"1049","9984.748"
"1050","9974.764"
"1051","9950.492"
"1052","9917.956"
"1053","9890.978"
"1054","9883.747"
"1055","9904.022"
"1056","9938.663"
"1057","9970.292"
"1058","9983.017"
"1059","9978.599"
"1060","9970.313"
"1061","9971.567"
"1062","9986.909"
"1063","10004.03"
"1064","10008.73"
"1065","9990.948"
"1066","9966.235"
"1067","9959.915"
"1068","9996.316"
"1069","10070.64"
"1070","10145.73"
"1071","10182.69"
"1072","10157.8"
"1073","10097.18"
"1074","10037.23"
"1075","10011.49"
"1076","10021.01"
"1077","10046.39"
"1078","10067.99"
"1079","10076.18"
"1080","10078.81"
"1081","10085.48"
"1082","10103.16"
"1083","10124.72"
"1084","10138.33"
"1085","10132.75"
"1086","10109.51"
"1087","10082.02"
"1088","10064.17"
"1089","10064.75"
"1090","10079.43"
"1091","10101.82"
"1092","10125.7"
"1093","10146.61"
"1094","10160.91"
"1095","10165.05"
"1096","10159.67"
"1097","10150.65"
"1098","10144.27"
"1099","10143.75"
"1100","10141.68"
"1101","10128.26"
"1102","10095.44"
"1103","10054.5"
"1104","10028.78"
"1105","10041.47"
"1106","10093.43"
"1107","10149.67"
"1108","10171.94"
"1109","10134.59"
"1110","10067.95"
"1111","10017.93"
"1112","10027.02"
"1113","10088.67"
"1114","10159.92"
"1115","10197.14"
"1116","10180.81"
"1117","10136.37"
"1118","10094.18"
"1119","10078.84"
"1120","10085.53"
"1121","10100.11"
"1122","10109.35"
"1123","10114.98"
"1124","10130.87"
"1125","10171.16"
"1126","10236.02"
"1127","10297.78"
"1128","10325.47"
"1129","10295.88"
"1130","10226.98"
"1131","10150.32"
"1132","10096.15"
"1133","10072.67"
"1134","10070.02"
"1135","10077.83"
"1136","10088.19"
"1137","10098.07"
"1138","10104.98"
"1139","10107.93"
"1140","10113.36"
"1141","10130.06"
"1142","10165.77"
"1143","10212.55"
"1144","10250.53"
"1145","10259.71"
"1146","10234.85"
"1147","10196.65"
"1148","10168.44"
"1149","10168.07"
"1150","10189.54"
"1151","10220.37"
"1152","10248.87"
"1153","10272.2"
"1154","10293.3"
"1155","10315.15"
"1156","10337.27"
"1157","10354.14"
"1158","10359.87"
"1159","10352.14"
"1160","10341.03"
"1161","10339.23"
"1162","10357.48"
"1163","10389.7"
"1164","10421.22"
"1165","10437.77"
"1166","10438.37"
"1167","10436.94"
"1168","10448.16"
"1169","10477.12"
"1170","10505.16"
"1171","10510.04"
"1172","10475.36"
"1173","10418.92"
"1174","10370.92"
"1175","10359.74"
"1176","10384.53"
"1177","10421.24"
"1178","10445.38"
"1179","10446.01"
"1180","10434.93"
"1181","10426.07"
"1182","10429.46"
"1183","10440.52"
"1184","10451.35"
"1185","10454.84"
"1186","10451.03"
"1187","10443.61"
"1188","10436.38"
"1189","10434.57"
"1190","10444.9"
"1191","10474.17"
"1192","10522.1"
"1193","10573.04"
"1194","10609.33"
"1195","10618.53"
"1196","10613.17"
"1197","10613.19"
"1198","10635.96"
"1199","10670.81"
"1200","10689.65"
"1201","10664.99"
"1202","10600.37"
"1203","10537.33"
"1204","10519.69"
"1205","10568.19"
"1206","10646.86"
"1207","10711.2"
"1208","10725.58"
"1209","10700.34"
"1210","10660.69"
"1211","10630.48"
"1212","10617.62"
"1213","10619.7"
"1214","10634.07"
"1215","10655.93"
"1216","10677.81"
"1217","10692.09"
"1218","10695.94"
"1219","10697.89"
"1220","10708.16"
"1221","10733.98"
"1222","10768.48"
"1223","10800.57"
"1224","10819.89"
"1225","10823.93"
"1226","10814.72"
"1227","10794.47"
"1228","10768.02"
"1229","10743.04"
"1230","10727.33"
"1231","10725.92"
"1232","10738.39"
"1233","10763.67"
"1234","10799.19"
"1235","10836.6"
"1236","10866.24"
"1237","10879.63"
"1238","10877.42"
"1239","10864.42"
"1240","10845.64"
"1241","10829.57"
"1242","10827.5"
"1243","10850.54"
"1244","10895.46"
"1245","10938.51"
"1246","10954.38"
"1247","10932.34"
"1248","10899.06"
"1249","10887.18"
"1250","10919.61"
"1251","10973.21"
"1252","11011.09"
"1253","11000.81"
"1254","10950.41"
"1255","10889.56"
"1256","10847.32"
"1257","10836.41"
"1258","10854.67"
"1259","10899.28"
"1260","10961.29"
"1261","11022.35"
"1262","11063.33"
"1263","11072.97"
"1264","11060.82"
"1265","11039.84"
"1266","11021.7"
"1267","11012.19"
"1268","11015.35"
"1269","11033.49"
"1270","11054.25"
"1271","11057.91"
"1272","11026.44"
"1273","10970.39"
"1274","10923.77"
"1275","10920.64"
"1276","10965.87"
"1277","11025.77"
"1278","11064.1"
"1279","11062.03"
"1280","11038.13"
"1281","11015.83"
"1282","11011.61"
"1283","11017.22"
"1284","11018.95"
"1285","11005.33"
"1286","10978.63"
"1287","10946.21"
"1288","10915.39"
"1289","10893.13"
"1290","10886.13"
"1291","10900.61"
"1292","10932.46"
"1293","10968.09"
"1294","10993.77"
"1295","11006.26"
"1296","11017.02"
"1297","11038.59"
"1298","11075.49"
"1299","11114.86"
"1300","11141.54"
"1301","11145.01"
"1302","11130.36"
"1303","11105.98"
"1304","11079.21"
"1305","11051.64"
"1306","11022.95"
"1307","10993.69"
"1308","10972.02"
"1309","10970.01"
"1310","10998.33"
"1311","11047.1"
"1312","11090.9"
"1313","11104.88"
"1314","11090.21"
"1315","11076.6"
"1316","11094.87"
"1317","11150.71"
"1318","11210"
"1319","11235.14"
"1320","11209.05"
"1321","11161.85"
"1322","11130.3"
"1323","11139.41"
"1324","11174.35"
"1325","11211.87"
"1326","11231.39"
"1327","11225.98"
"1328","11192.89"
"1329","11132.57"
"1330","11068.71"
"1331","11035.51"
"1332","11063.19"
"1333","11136.77"
"1334","11212.86"
"1335","11249.31"
"1336","11234.99"
"1337","11185.58"
"1338","11117.75"
"1339","11050.78"
"1340","11007.03"
"1341","11008.75"
"1342","11057.04"
"1343","11119.64"
"1344","11161.41"
"1345","11164.48"
"1346","11147.96"
"1347","11135.75"
"1348","11142.75"
"1349","11157.74"
"1350","11164.8"
"1351","11153.79"
"1352","11137.48"
"1353","11134.31"
"1354","11158.43"
"1355","11200.9"
"1356","11245.09"
"1357","11276.21"
"1358","11292.86"
"1359","11299.58"
"1360","11300.17"
"1361","11290.86"
"1362","11263.59"
"1363","11211.76"
"1364","11150.03"
"1365","11108.58"
"1366","11116.26"
"1367","11168.52"
"1368","11230"
"1369","11264.93"
"1370","11259.65"
"1371","11225.84"
"1372","11176.64"
"1373","11125.73"
"1374","11087.61"
"1375","11076.7"
"1376","11094.51"
"1377","11119.84"
"1378","11129.27"
"1379","11114.07"
"1380","11097.18"
"1381","11105.67"
"1382","11150.68"
"1383","11201.1"
"1384","11218.87"
"1385","11181.68"
"1386","11118.14"
"1387","11067.19"
"1388","11056.64"
"1389","11070.15"
"1390","11080.52"
"1391","11067.85"
"1392","11046.93"
"1393","11042.89"
"1394","11074.19"
"1395","11121.12"
"1396","11150.48"
"1397","11135.45"
"1398","11092.84"
"1399","11057.63"
"1400","11059.65"
"1401","11086.71"
"1402","11106.27"
"1403","11089.98"
"1404","11050.73"
"1405","11024.27"
"1406","11042.61"
"1407","11092.75"
"1408","11133.39"
"1409","11126.08"
"1410","11076.27"
"1411","11020.37"
"1412","10993.61"
"1413","11002.05"
"1414","11028.84"
"1415","11057.04"
"1416","11079.97"
"1417","11099.84"
"1418","11118.92"
"1419","11135.31"
"1420","11143.09"
"1421","11136.48"
"1422","11116.46"
"1423","11091"
"1424","11068.42"
"1425","11057.15"
"1426","11065.79"
"1427","11102.38"
"1428","11157.04"
"1429","11198.68"
"1430","11195.86"
"1431","11150.12"
"1432","11104.24"
"1433","11102.73"
"1434","11150.54"
"1435","11200.65"
"1436","11203.34"
"1437","11149.56"
"1438","11086.1"
"1439","11063.13"
"1440","11098.09"
"1441","11161.96"
"1442","11222.38"
"1443","11258.24"
"1444","11264.84"
"1445","11239.08"
"1446","11194.13"
"1447","11167.22"
"1448","11196.92"
"1449","11286.36"
"1450","11385.76"
"1451","11441.53"
"1452","11430.38"
"1453","11374.31"
"1454","11299.03"
"1455","11227.57"
"1456","11179.04"
"1457","11171.8"
"1458","11203.45"
"1459","11241.27"
"1460","11250.6"
"1461","11222.86"
"1462","11186.69"
"1463","11172.94"
"1464","11184.82"
"1465","11187.31"
"1466","11143.39"
"1467","11051.7"
"1468","10958.18"
"1469","10911.05"
"1470","10919.85"
"1471","10945.19"
"1472","10945.37"
"1473","10907.61"
"1474","10853.79"
"1475","10807.44"
"1476","10780.75"
"1477","10773.23"
"1478","10783.26"
"1479","10799.14"
"1480","10798.58"
"1481","10760.1"
"1482","10690.96"
"1483","10626.25"
"1484","10600.65"
"1485","10619.4"
"1486","10661.65"
"1487","10705.95"
"1488","10735.66"
"1489","10738.03"
"1490","10702.07"
"1491","10639.44"
"1492","10578.25"
"1493","10545.16"
"1494","10545.58"
"1495","10571.09"
"1496","10612.35"
"1497","10653.33"
"1498","10674.13"
"1499","10658.39"
"1500","10619.96"
"1501","10587.9"
"1502","10586.48"
"1503","10604.68"
"1504","10616.08"
"1505","10599.41"
"1506","10564.89"
"1507","10534.51"
"1508","10524.79"
"1509","10524.43"
"1510","10513.38"
"1511","10479.5"
"1512","10444.11"
"1513","10437.32"
"1514","10478.05"
"1515","10546.07"
"1516","10612.65"
"1517","10654.78"
"1518","10665.85"
"1519","10642.21"
"1520","10588.46"
"1521","10528.63"
"1522","10489.4"
"1523","10483.83"
"1524","10498.83"
"1525","10518.41"
"1526","10531.39"
"1527","10534.04"
"1528","10523.37"
"1529","10498.63"
"1530","10462"
"1531","10415.9"
"1532","10364.49"
"1533","10313.67"
"1534","10269.33"
"1535","10234.91"
"1536","10211.89"
"1537","10201.43"
"1538","10201.51"
"1539","10208.08"
"1540","10218.21"
"1541","10239.21"
"1542","10283.63"
"1543","10358.45"
"1544","10434.98"
"1545","10470.45"
"1546","10434.89"
"1547","10359.38"
"1548","10293.14"
"1549","10272.75"
"1550","10290.06"
"1551","10327.08"
"1552","10368.39"
"1553","10405.42"
"1554","10430.7"
"1555","10440.76"
"1556","10439.88"
"1557","10433.25"
"1558","10425.87"
"1559","10422.4"
"1560","10427.22"
"1561","10437.45"
"1562","10442.32"
"1563","10431.35"
"1564","10405.08"
"1565","10372.99"
"1566","10344.22"
"1567","10322.23"
"1568","10307.1"
"1569","10298.7"
"1570","10295.98"
"1571","10297.5"
"1572","10301.37"
"1573","10303.81"
"1574","10300.43"
"1575","10289.33"
"1576","10276.67"
"1577","10270.27"
"1578","10271.78"
"1579","10269.14"
"1580","10248.63"
"1581","10211.95"
"1582","10185.11"
"1583","10195.24"
"1584","10241.55"
"1585","10292.52"
"1586","10316.86"
"1587","10311.38"
"1588","10294.49"
"1589","10284.2"
"1590","10289.59"
"1591","10315.07"
"1592","10360.47"
"1593","10399.92"
"1594","10398.44"
"1595","10337.47"
"1596","10258.59"
"1597","10217.05"
"1598","10240.76"
"1599","10292.81"
"1600","10327.25"
"1601","10324.39"
"1602","10305.53"
"1603","10294.86"
"1604","10299.35"
"1605","10308.05"
"1606","10310.06"
"1607","10305.89"
"1608","10303.86"
"1609","10311.76"
"1610","10332.15"
"1611","10365.27"
"1612","10407.99"
"1613","10442.25"
"1614","10445.91"
"1615","10408.21"
"1616","10349.31"
"1617","10294.44"
"1618","10263.24"
"1619","10265.83"
"1620","10310.32"
"1621","10374.93"
"1622","10405.92"
"1623","10354.09"
"1624","10246.69"
"1625","10162.68"
"1626","10169.01"
"1627","10243.92"
"1628","10328.74"
"1629","10376.99"
"1630","10390.51"
"1631","10383.01"
"1632","10368.58"
"1633","10362.15"
"1634","10378.42"
"1635","10415.08"
"1636","10446.34"
"1637","10446.06"
"1638","10412.25"
"1639","10363.22"
"1640","10317.57"
"1641","10290.48"
"1642","10295.47"
"1643","10338.12"
"1644","10387.62"
"1645","10402.64"
"1646","10364.38"
"1647","10312.01"
"1648","10293.28"
"1649","10319.3"
"1650","10346.9"
"1651","10331.19"
"1652","10276.45"
"1653","10229.76"
"1654","10232.74"
"1655","10268.33"
"1656","10290.07"
"1657","10265.79"
"1658","10227.65"
"1659","10225.37"
"1660","10275.3"
"1661","10314.87"
"1662","10271.8"
"1663","10144.84"
"1664","10026.53"
"1665","10008.99"
"1666","10085.17"
"1667","10173.87"
"1668","10204.29"
"1669","10187.68"
"1670","10168.97"
"1671","10178.66"
"1672","10197.71"
"1673","10196.7"
"1674","10163.7"
"1675","10118.06"
"1676","10081.78"
"1677","10063.04"
"1678","10056.46"
"1679","10056.12"
"1680","10056.56"
"1681","10052.5"
"1682","10039.65"
"1683","10017.9"
"1684","9988.284"
"1685","9951.76"
"1686","9909.175"
"1687","9861.66"
"1688","9819.245"
"1689","9802.113"
"1690","9827.271"
"1691","9871.789"
"1692","9888.62"
"1693","9844.344"
"1694","9773.37"
"1695","9730.544"
"1696","9740.515"
"1697","9757.492"
"1698","9727.228"
"1699","9647.819"
"1700","9579.438"
"1701","9579.554"
"1702","9636.852"
"1703","9698.108"
"1704","9720.205"
"1705","9710.971"
"1706","9693.263"
"1707","9681.743"
"1708","9672.904"
"1709","9661.188"
"1710","9651.722"
"1711","9661.361"
"1712","9703.868"
"1713","9758.307"
"1714","9784.759"
"1715","9757.734"
"1716","9711.17"
"1717","9693.782"
"1718","9719.062"
"1719","9734.85"
"1720","9685.377"
"1721","9585.71"
"1722","9515.134"
"1723","9540.411"
"1724","9622.132"
"1725","9674.924"
"1726","9645.978"
"1727","9582.745"
"1728","9550.926"
"1729","9573.354"
"1730","9612.739"
"1731","9629.893"
"1732","9618.007"
"1733","9591.841"
"1734","9565.562"
"1735","9548.464"
"1736","9548.346"
"1737","9564.138"
"1738","9576.521"
"1739","9565.106"
"1740","9534.926"
"1741","9515.113"
"1742","9529.525"
"1743","9557.65"
"1744","9559.877"
"1745","9515.962"
"1746","9461.709"
"1747","9441.95"
"1748","9462.756"
"1749","9481.198"
"1750","9457.41"
"1751","9413.513"
"1752","9406.989"
"1753","9473.31"
"1754","9562.559"
"1755","9605.123"
"1756","9573.885"
"1757","9509.126"
"1758","9455.102"
"1759","9428.738"
"1760","9427.787"
"1761","9446.369"
"1762","9463.491"
"1763","9453.87"
"1764","9409.672"
"1765","9355.783"
"1766","9319.67"
"1767","9311.586"
"1768","9327.88"
"1769","9361.565"
"1770","9390.015"
"1771","9385.455"
"1772","9343.055"
"1773","9305.661"
"1774","9319.351"
"1775","9379.018"
"1776","9434.812"
"1777","9445.128"
"1778","9424.887"
"1779","9409.091"
"1780","9414.95"
"1781","9421.147"
"1782","9403.058"
"1783","9368.949"
"1784","9356.315"
"1785","9392.569"
"1786","9441.449"
"1787","9444.295"
"1788","9383.939"
"1789","9330.467"
"1790","9359.971"
"1791","9458.714"
"1792","9536.791"
"1793","9521.333"
"1794","9443.13"
"1795","9366.919"
"1796","9333.412"
"1797","9337.11"
"1798","9366.337"
"1799","9395.569"
"1800","9388.718"
"1801","9324.649"
"1802","9251.69"
"1803","9237.291"
"1804","9296.583"
"1805","9358.749"
"1806","9352.585"
"1807","9296.215"
"1808","9265"
"1809","9308.82"
"1810","9380.426"
"1811","9411.381"
"1812","9379.627"
"1813","9324.663"
"1814","9286.19"
"1815","9268.898"
"1816","9259.822"
"1817","9251.2"
"1818","9250.047"
"1819","9265.485"
"1820","9296.546"
"1821","9332.05"
"1822","9360.885"
"1823","9375.176"
"1824","9368.281"
"1825","9339.721"
"1826","9301.182"
"1827","9265.581"
"1828","9242.741"
"1829","9240.245"
"1830","9260.279"
"1831","9283.837"
"1832","9287.075"
"1833","9264.989"
"1834","9237.938"
"1835","9226.403"
"1836","9237.003"
"1837","9269.637"
"1838","9316.24"
"1839","9349.08"
"1840","9339.548"
"1841","9299.435"
"1842","9275.814"
"1843","9301.739"
"1844","9338.238"
"1845","9325.964"
"1846","9256.176"
"1847","9196.908"
"1848","9212.064"
"1849","9269.452"
"1850","9286.081"
"1851","9220.224"
"1852","9140.292"
"1853","9128.559"
"1854","9187.464"
"1855","9248.479"
"1856","9258.604"
"1857","9248.785"
"1858","9273.343"
"1859","9337.962"
"1860","9378.056"
"1861","9333.564"
"1862","9226.734"
"1863","9119.753"
"1864","9054.46"
"1865","9024.529"
"1866","9017.241"
"1867","9026.601"
"1868","9051.77"
"1869","9088.378"
"1870","9118.312"
"1871","9120.902"
"1872","9097.988"
"1873","9077.638"
"1874","9083.475"
"1875","9103.125"
"1876","9110.979"
"1877","9098.439"
"1878","9086.454"
"1879","9096.785"
"1880","9130.103"
"1881","9175.295"
"1882","9219.286"
"1883","9244.398"
"1884","9233.893"
"1885","9198.196"
"1886","9169.491"
"1887","9169.331"
"1888","9176.953"
"1889","9162.639"
"1890","9124.837"
"1891","9093.254"
"1892","9091.996"
"1893","9105.961"
"1894","9107.215"
"1895","9085.906"
"1896","9059.374"
"1897","9044.233"
"1898","9034.119"
"1899","9012.232"
"1900","8978.093"
"1901","8963.888"
"1902","9000.77"
"1903","9066.546"
"1904","9106.804"
"1905","9088.014"
"1906","9032.553"
"1907","8971.545"
"1908","8931.083"
"1909","8933.42"
"1910","8987.787"
"1911","9060.024"
"1912","9107.739"
"1913","9108.741"
"1914","9060.021"
"1915","8969.868"
"1916","8890.773"
"1917","8885.005"
"1918","8955.479"
"1919","9037.316"
"1920","9074.47"
"1921","9076.196"
"1922","9072.211"
"1923","9073.431"
"1924","9065.525"
"1925","9038.049"
"1926","9015.189"
"1927","9033.562"
"1928","9088.97"
"1929","9114.409"
"1930","9052.761"
"1931","8955.665"
"1932","8920.903"
"1933","8978.142"
"1934","9039.423"
"1935","9018.541"
"1936","8937.845"
"1937","8871.267"
"1938","8857.822"
"1939","8870.146"
"1940","8877.295"
"1941","8881.5"
"1942","8901.951"
"1943","8937.854"
"1944","8948.209"
"1945","8895.466"
"1946","8819.178"
"1947","8800.372"
"1948","8868.775"
"1949","8946.847"
"1950","8953.658"
"1951","8904.946"
"1952","8869.779"
"1953","8885.68"
"1954","8922.794"
"1955","8945.605"
"1956","8945.889"
"1957","8930.448"
"1958","8907.754"
"1959","8889.311"
"1960","8884.948"
"1961","8885.516"
"1962","8871.769"
"1963","8838.03"
"1964","8805.551"
"1965","8795.152"
"1966","8796.553"
"1967","8783.896"
"1968","8750.45"
"1969","8724.949"
"1970","8735.445"
"1971","8774.525"
"1972","8818.342"
"1973","8852.352"
"1974","8877.803"
"1975","8896.555"
"1976","8904.347"
"1977","8894.349"
"1978","8859.688"
"1979","8793.449"
"1980","8697.677"
"1981","8626.858"
"1982","8652.384"
"1983","8755.438"
"1984","8800.357"
"1985","8687.801"
"1986","8536.865"
"1987","8527.994"
"1988","8675.098"
"1989","8808.879"
"1990","8799.642"
"1991","8716.187"
"1992","8672.557"
"1993","8688.701"
"1994","8698.79"
"1995","8653.984"
"1996","8570.293"
"1997","8477.924"
"1998","8423.625"
"1999","8466.278"
"2000","8612.965"
"2001","8740.856"
"2002","8723.769"
"2003","8606.531"
"2004","8532.436"
"2005","8567.577"
"2006","8627.755"
"2007","8625.304"
"2008","8572.018"
"2009","8522.923"
"2010","8504.371"
"2011","8500.97"
"2012","8494.956"
"2013","8473.529"
"2014","8426.885"
"2015","8383.031"
"2016","8410.565"
"2017","8540.431"
"2018","8659.667"
"2019","8632.107"
"2020","8470.165"
"2021","8301.974"
"2022","8224.515"
"2023","8248.572"
"2024","8364.512"
"2025","8494.998"
"2026","8526.376"
"2027","8423.959"
"2028","8289.192"
"2029","8221.902"
"2030","8230.416"
"2031","8289.017"
"2032","8363.915"
"2033","8412.027"
"2034","8399.386"
"2035","8329.178"
"2036","8215.652"
"2037","8106.646"
"2038","8076.094"
"2039","8154.131"
"2040","8264.459"
"2041","8323.092"
"2042","8315.031"
"2043","8259.964"
"2044","8181.032"
"2045","8106.132"
"2046","8062.882"
"2047","8074.946"
"2048","8161.679"
"2049","8276.197"
"2050","8308.793"
"2051","8206.288"
"2052","8085.337"
"2053","8076.676"
"2054","8143.122"
"2055","8151.029"
"2056","8054.821"
"2057","7959.658"
"2058","7958.893"
"2059","8002.077"
"2060","7994.036"
"2061","7926.281"
"2062","7876.947"
"2063","7900.442"
"2064","7969.882"
"2065","8043.535"
"2066","8081.025"
"2067","8043.368"
"2068","7939.773"
"2069","7857.767"
"2070","7870.087"
"2071","7937.97"
"2072","7989.831"
"2073","7996.123"
"2074","7965.558"
"2075","7909.83"
"2076","7844.658"
"2077","7786.315"
"2078","7749.712"
"2079","7748.656"
"2080","7776.102"
"2081","7796.799"
"2082","7786.397"
"2083","7771.737"
"2084","7789.035"
"2085","7829.568"
"2086","7852.594"
"2087","7841.753"
"2088","7829.268"
"2089","7841.001"
"2090","7833.569"
"2091","7742.407"
"2092","7586.185"
"2093","7465.194"
"2094","7446.539"
"2095","7499.53"
"2096","7577.01"
"2097","7629.484"
"2098","7607.917"
"2099","7528.076"
"2100","7488.295"
"2101","7551.931"
"2102","7640.716"
"2103","7655.176"
"2104","7604.437"
"2105","7563.593"
"2106","7558.141"
"2107","7533.668"
"2108","7451.845"
"2109","7375.779"
"2110","7387.98"
"2111","7452.175"
"2112","7445.354"
"2113","7326.227"
"2114","7209.668"
"2115","7200.914"
"2116","7265.753"
"2117","7328.641"
"2118","7374.638"
"2119","7439.339"
"2120","7529.03"
"2121","7585.381"
"2122","7554.953"
"2123","7460.29"
"2124","7351.167"
"2125","7277.627"
"2126","7289.752"
"2127","7390.182"
"2128","7475.565"
"2129","7451.815"
"2130","7370.154"
"2131","7331.667"
"2132","7340.869"
"2133","7312.609"
"2134","7214.667"
"2135","7142.391"
"2136","7182.787"
"2137","7265.158"
"2138","7265.672"
"2139","7175.366"
"2140","7089.703"
"2141","7064.89"
"2142","7063.319"
"2143","7044.176"
"2144","7018.661"
"2145","7014.638"
"2146","7031.628"
"2147","7045.15"
"2148","7037.5"
"2149","7006.007"
"2150","6949.871"
"2151","6868.862"
"2152","6766.028"
"2153","6688.598"
"2154","6716.114"
"2155","6848.69"
"2156","6948.455"
"2157","6909.99"
"2158","6823.327"
"2159","6818.584"
"2160","6893.981"
"2161","6964.719"
"2162","6976.779"
"2163","6922.008"
"2164","6812.116"
"2165","6713.48"
"2166","6693.849"
"2167","6732.944"
"2168","6767.092"
"2169","6769.08"
"2170","6753.246"
"2171","6730.449"
"2172","6697.042"
"2173","6649.792"
"2174","6602.043"
"2175","6573.019"
"2176","6573.336"
"2177","6606.096"
"2178","6657.346"
"2179","6682.065"
"2180","6646.951"
"2181","6584.038"
"2182","6539.827"
"2183","6526.187"
"2184","6533.596"
"2185","6543.74"
"2186","6527.265"
"2187","6468.202"
"2188","6391.073"
"2189","6324.925"
"2190","6280.306"
"2191","6260.053"
"2192","6264.416"
"2193","6291.238"
"2194","6323.278"
"2195","6315.716"
"2196","6245.285"
"2197","6189.664"
"2198","6237.979"
"2199","6335.868"
"2200","6351.403"
"2201","6265.384"
"2202","6190.672"
"2203","6194.291"
"2204","6213.782"
"2205","6184.639"
"2206","6135.948"
"2207","6123.05"
"2208","6132.997"
"2209","6105.793"
"2210","6034.99"
"2211","5991.285"
"2212","6017.571"
"2213","6057.613"
"2214","6047.86"
"2215","5995.68"
"2216","5935.898"
"2217","5891.573"
"2218","5875.843"
"2219","5875.352"
"2220","5835.237"
"2221","5727.819"
"2222","5626.051"
"2223","5608.916"
"2224","5652.298"
"2225","5689.967"
"2226","5694.008"
"2227","5669.282"
"2228","5633.823"
"2229","5625.462"
"2230","5659.849"
"2231","5673.441"
"2232","5603.569"
"2233","5507.848"
"2234","5487.979"
"2235","5527.686"
"2236","5514.765"
"2237","5414.966"
"2238","5319.723"
"2239","5304.651"
"2240","5363.588"
"2241","5467.539"
"2242","5542.128"
"2243","5502.882"
"2244","5371.63"
"2245","5247.499"
"2246","5187.422"
"2247","5188.305"
"2248","5229.065"
"2249","5253.566"
"2250","5212.632"
"2251","5122.071"
"2252","5018.149"
"2253","4934.212"
"2254","4900.77"
"2255","4916.936"
"2256","4947.333"
"2257","4965.813"
"2258","4968.467"
"2259","4951.802"
"2260","4903.886"
"2261","4813.494"
"2262","4690.274"
"2263","4554.487"
"2264","4443.426"
"2265","4407.365"
"2266","4442.113"
"2267","4463.468"
"2268","4408.194"
"2269","4285.752"
"2270","4131.383"
"2271","4049.124"
"2272","4138.925"
"2273","4247.986"
"2274","4093.976"
"2275","3712.343"
"2276","3452.165"
"2277","3487.65"
"2278","3669.701"
"2279","3832.882"
"2280","3860.455"
"2281","3682.798"
"2282","3446.544"
"2283","3354.638"
"2284","3388.549"
"2285","3396.271"
"2286","3315.944"
"2287","3182.702"
"2288","3052.691"
"2289","3011"
"2290","3085.758"
"2291","3118.89"
"2292","2962.96"
"2293","2733.447"
"2294","2617.413"
"2295","2593.531"
"2296","2522.491"
"2297","2406.891"
"2298","2389.555"
"2299","2498.16"
"2300","2562.791"
