,"Scan 01152"
"400","10147.76"
"401","10163.62"
"402","10172.99"
"403","10167.83"
"404","10150.82"
"405","10128.04"
"406","10105.56"
"407","10088.72"
"408","10077.43"
"409","10069.04"
"410","10060.85"
"411","10050.46"
"412","10038.7"
"413","10028.61"
"414","10023.29"
"415","10025.66"
"416","10035.7"
"417","10050.53"
"418","10067.13"
"419","10082.58"
"420","10094.74"
"421","10102.63"
"422","10105.32"
"423","10101.93"
"424","10093.29"
"425","10083.39"
"426","10076.52"
"427","10076.94"
"428","10085.62"
"429","10095.31"
"430","10097.55"
"431","10083.95"
"432","10050.33"
"433","10006.68"
"434","9965.861"
"435","9940.683"
"436","9940.233"
"437","9957.156"
"438","9979.507"
"439","9995.432"
"440","9995.102"
"441","9980.444"
"442","9957.69"
"443","9933.038"
"444","9912.207"
"445","9897.581"
"446","9889.965"
"447","9890.156"
"448","9898.528"
"449","9911.278"
"450","9922.195"
"451","9925.084"
"452","9914.283"
"453","9890.705"
"454","9859.852"
"455","9827.284"
"456","9798.307"
"457","9774.397"
"458","9753.846"
"459","9734.856"
"460","9715.729"
"461","9696.488"
"462","9678.835"
"463","9664.533"
"464","9655.211"
"465","9648.978"
"466","9640.009"
"467","9622.307"
"468","9590.15"
"469","9546.492"
"470","9505.255"
"471","9480.986"
"472","9487.844"
"473","9525.658"
"474","9574.109"
"475","9611.466"
"476","9616.396"
"477","9583.174"
"478","9530.187"
"479","9477.777"
"480","9446.024"
"481","9443.732"
"482","9460.93"
"483","9485.908"
"484","9507.087"
"485","9518.108"
"486","9521.857"
"487","9522.157"
"488","9522.783"
"489","9524.617"
"490","9523.173"
"491","9513.396"
"492","9490.294"
"493","9452.437"
"494","9405.228"
"495","9354.815"
"496","9307.301"
"497","9267.417"
"498","9237.245"
"499","9218.555"
"500","9213.07"
"501","9217.643"
"502","9219.657"
"503","9205.469"
"504","9161.604"
"505","9085.718"
"506","8996.685"
"507","8915.67"
"508","8863.601"
"509","8848.128"
"510","8852.46"
"511","8857.249"
"512","8843.399"
"513","8804.939"
"514","8758.941"
"515","8724.729"
"516","8721.311"
"517","8751.966"
"518","8794.095"
"519","8822.786"
"520","8813.582"
"521","8760.609"
"522","8686.268"
"523","8615.224"
"524","8571.665"
"525","8563.985"
"526","8578.708"
"527","8600.813"
"528","8615.522"
"529","8614.177"
"530","8595.698"
"531","8559.497"
"532","8505.269"
"533","8440.439"
"534","8380.993"
"535","8343.259"
"536","8342.758"
"537","8379.012"
"538","8436.172"
"539","8497.842"
"540","8548.052"
"541","8576.754"
"542","8578.796"
"543","8549.201"
"544","8484.256"
"545","8396.493"
"546","8309.812"
"547","8248.222"
"548","8233.05"
"549","8259.223"
"550","8306.308"
"551","8353.78"
"552","8383.389"
"553","8394.25"
"554","8393.747"
"555","8389.274"
"556","8386.86"
"557","8384.244"
"558","8376.036"
"559","8356.863"
"560","8323.824"
"561","8285.703"
"562","8254.708"
"563","8242.989"
"564","8257.167"
"565","8283.967"
"566","8305.663"
"567","8304.637"
"568","8271.946"
"569","8222.234"
"570","8174.065"
"571","8145.857"
"572","8147.156"
"573","8169.392"
"574","8201.814"
"575","8233.771"
"576","8257.346"
"577","8268.802"
"578","8264.776"
"579","8242.118"
"580","8203.721"
"581","8159.374"
"582","8119.198"
"583","8092.888"
"584","8083.465"
"585","8088.337"
"586","8104.745"
"587","8129.696"
"588","8157.561"
"589","8181.108"
"590","8193.118"
"591","8187.712"
"592","8168.3"
"593","8142.264"
"594","8116.981"
"595","8098.671"
"596","8088.326"
"597","8085.4"
"598","8089.352"
"599","8099.264"
"600","8113.05"
"601","8128.41"
"602","8143.043"
"603","8154.062"
"604","8157.346"
"605","8148.634"
"606","8123.831"
"607","8085.446"
"608","8045.122"
"609","8015.128"
"610","8007.128"
"611","8021.355"
"612","8047.449"
"613","8074.686"
"614","8093.118"
"615","8100.788"
"616","8100.628"
"617","8095.626"
"618","8088.601"
"619","8081.288"
"620","8075.008"
"621","8071.071"
"622","8069.477"
"623","8065.208"
"624","8052.077"
"625","8023.943"
"626","7980.809"
"627","7936.796"
"628","7907.954"
"629","7909.986"
"630","7944.151"
"631","7991.255"
"632","8030.611"
"633","8042.688"
"634","8028.109"
"635","8005.219"
"636","7992.914"
"637","8007.465"
"638","8041.724"
"639","8076.032"
"640","8090.67"
"641","8070.673"
"642","8024.491"
"643","7967.802"
"644","7916.242"
"645","7881.13"
"646","7861.937"
"647","7856.105"
"648","7861.086"
"649","7874.45"
"650","7893.957"
"651","7917.389"
"652","7942.535"
"653","7967.272"
"654","7989.542"
"655","8007.297"
"656","8018.612"
"657","8022.541"
"658","8018.662"
"659","8006.556"
"660","7986.992"
"661","7966.111"
"662","7951.575"
"663","7951"
"664","7966.88"
"665","7989.525"
"666","8007.498"
"667","8009.632"
"668","7994.023"
"669","7970.751"
"670","7950.656"
"671","7943.854"
"672","7951.113"
"673","7966.562"
"674","7984.208"
"675","7998.514"
"676","8006.64"
"677","8006.764"
"678","7997.067"
"679","7978.719"
"680","7961.707"
"681","7957.623"
"682","7977.819"
"683","8021.883"
"684","8071.707"
"685","8107.755"
"686","8111.79"
"687","8085.018"
"688","8043.97"
"689","8005.551"
"690","7984.053"
"691","7977.036"
"692","7975.406"
"693","7970.079"
"694","7955.533"
"695","7936.891"
"696","7921.257"
"697","7915.591"
"698","7920.819"
"699","7929.093"
"700","7931.877"
"701","7921.548"
"702","7902.615"
"703","7888.424"
"704","7892.492"
"705","7923.962"
"706","7967.669"
"707","8000.031"
"708","7997.55"
"709","7951.214"
"710","7887.941"
"711","7840.087"
"712","7839.006"
"713","7886.728"
"714","7950.9"
"715","7997.266"
"716","7995.449"
"717","7951.903"
"718","7893.671"
"719","7847.962"
"720","7835.966"
"721","7855.235"
"722","7897.502"
"723","7954.489"
"724","8015.415"
"725","8065.171"
"726","8088.251"
"727","8070.525"
"728","8019.296"
"729","7958.907"
"730","7914.133"
"731","7905.211"
"732","7926.797"
"733","7964.542"
"734","8004.132"
"735","8034.875"
"736","8054.481"
"737","8061.854"
"738","8056.088"
"739","8040.994"
"740","8025.189"
"741","8017.503"
"742","8025.404"
"743","8046.359"
"744","8073.37"
"745","8099.425"
"746","8118.628"
"747","8128.238"
"748","8126.084"
"749","8110.206"
"750","8085.708"
"751","8066.163"
"752","8065.622"
"753","8095.673"
"754","8146.647"
"755","8197.969"
"756","8229.012"
"757","8227.045"
"758","8204.499"
"759","8178.795"
"760","8166.997"
"761","8173.513"
"762","8186.494"
"763","8193.05"
"764","8182.05"
"765","8158.373"
"766","8135.437"
"767","8126.72"
"768","8140.67"
"769","8169.551"
"770","8202.383"
"771","8228.38"
"772","8243.393"
"773","8251.609"
"774","8257.742"
"775","8266.06"
"776","8277.043"
"777","8289.259"
"778","8301.257"
"779","8311.703"
"780","8319.595"
"781","8323.984"
"782","8323.99"
"783","8320.422"
"784","8316.01"
"785","8313.575"
"786","8315.697"
"787","8323.157"
"788","8335.951"
"789","8354.069"
"790","8375.338"
"791","8392.264"
"792","8396.564"
"793","8380.544"
"794","8348.414"
"795","8315.486"
"796","8297.492"
"797","8306.803"
"798","8337.271"
"799","8376.36"
"800","8411.579"
"801","8434.96"
"802","8447.063"
"803","8449.4"
"804","8443.603"
"805","8432.915"
"806","8421.719"
"807","8414.424"
"808","8414.084"
"809","8418.491"
"810","8424.138"
"811","8427.619"
"812","8429.475"
"813","8435.574"
"814","8452.17"
"815","8484.224"
"816","8526.182"
"817","8567.328"
"818","8596.922"
"819","8607.645"
"820","8600.911"
"821","8579.508"
"822","8546.467"
"823","8509.55"
"824","8480.774"
"825","8472.3"
"826","8492.216"
"827","8528.647"
"828","8563.615"
"829","8579.322"
"830","8568.688"
"831","8541.531"
"832","8509.149"
"833","8482.273"
"834","8466.377"
"835","8464.02"
"836","8477.731"
"837","8507.189"
"838","8544.239"
"839","8579.39"
"840","8603.592"
"841","8616.575"
"842","8626.172"
"843","8640.514"
"844","8664.699"
"845","8689.231"
"846","8700.223"
"847","8684.088"
"848","8643.071"
"849","8602.977"
"850","8591.512"
"851","8631.419"
"852","8704.044"
"853","8770.119"
"854","8790.322"
"855","8747.036"
"856","8674.039"
"857","8612.545"
"858","8601.132"
"859","8638.823"
"860","8694.072"
"861","8734.549"
"862","8737.74"
"863","8718.043"
"864","8698.515"
"865","8701.596"
"866","8731.321"
"867","8770.553"
"868","8800.986"
"869","8807.865"
"870","8797.159"
"871","8782.359"
"872","8776.86"
"873","8786.801"
"874","8806.209"
"875","8827.958"
"876","8845.334"
"877","8855.354"
"878","8857.004"
"879","8849.303"
"880","8834.505"
"881","8822.595"
"882","8824.688"
"883","8850.71"
"884","8893.896"
"885","8935.164"
"886","8955.146"
"887","8942.018"
"888","8909.321"
"889","8875.927"
"890","8860.263"
"891","8870.896"
"892","8906.597"
"893","8965.723"
"894","9043.537"
"895","9120.954"
"896","9174.729"
"897","9182.194"
"898","9142.865"
"899","9085.024"
"900","9038.865"
"901","9029.497"
"902","9050.324"
"903","9082.536"
"904","9107.454"
"905","9117.239"
"906","9121.995"
"907","9133.508"
"908","9161.642"
"909","9200.484"
"910","9236.373"
"911","9255.628"
"912","9251.046"
"913","9228.791"
"914","9196.681"
"915","9162.425"
"916","9132.584"
"917","9113.018"
"918","9109.57"
"919","9123.326"
"920","9143.366"
"921","9156.902"
"922","9152.206"
"923","9132.012"
"924","9109.518"
"925","9098.149"
"926","9106.625"
"927","9129.434"
"928","9158.385"
"929","9185.51"
"930","9206.706"
"931","9221.104"
"932","9227.945"
"933","9227.409"
"934","9223.036"
"935","9219.095"
"936","9219.772"
"937","9227.406"
"938","9242.567"
"939","9265.759"
"940","9295.578"
"941","9322.977"
"942","9336.979"
"943","9327.118"
"944","9295.792"
"945","9258.939"
"946","9233.151"
"947","9230.374"
"948","9241.897"
"949","9253.254"
"950","9250.389"
"951","9231.221"
"952","9207.308"
"953","9190.948"
"954","9191.483"
"955","9204.018"
"956","9219.382"
"957","9228.638"
"958","9230.528"
"959","9233.037"
"960","9244.702"
"961","9271.037"
"962","9302.229"
"963","9323.63"
"964","9320.96"
"965","9293.104"
"966","9255.334"
"967","9223.953"
"968","9212.342"
"969","9218.648"
"970","9236.093"
"971","9257.938"
"972","9279.292"
"973","9297.599"
"974","9310.448"
"975","9315.145"
"976","9307.533"
"977","9282.983"
"978","9237.189"
"979","9177.562"
"980","9126.146"
"981","9105.92"
"982","9133.188"
"983","9190.152"
"984","9248.173"
"985","9279.194"
"986","9275.597"
"987","9254.593"
"988","9234.893"
"989","9231.628"
"990","9242.369"
"991","9259.345"
"992","9274.98"
"993","9287.96"
"994","9304.22"
"995","9330.101"
"996","9368.932"
"997","9410.228"
"998","9439.561"
"999","9442.959"
"1000","9419.108"
"1001","9380.397"
"1002","9339.92"
"1003","9308.956"
"1004","9291.208"
"1005","9288.398"
"1006","9302.228"
"1007","9330.176"
"1008","9359.074"
"1009","9374.104"
"1010","9362.275"
"1011","9329.566"
"1012","9293.15"
"1013","9270.301"
"1014","9270.784"
"1015","9289.599"
"1016","9320.021"
"1017","9355.453"
"1018","9390.316"
"1019","9419.502"
"1020","9437.939"
"1021","9443.177"
"1022","9436.671"
"1023","9420.2"
"1024","9396.861"
"1025","9376.819"
"1026","9372.598"
"1027","9396.15"
"1028","9443.561"
"1029","9493.43"
"1030","9523.453"
"1031","9519.096"
"1032","9494.602"
"1033","9470.863"
"1034","9467.776"
"1035","9489.589"
"1036","9528.296"
"1037","9575.571"
"1038","9623.215"
"1039","9663.369"
"1040","9688.226"
"1041","9691.344"
"1042","9678.771"
"1043","9663.189"
"1044","9657.228"
"1045","9665.114"
"1046","9677.417"
"1047","9683.458"
"1048","9674.897"
"1049","9656.266"
"1050","9636.454"
"1051","9624.259"
"1052","9625.84"
"1053","9644.593"
"1054","9683.784"
"1055","9741.698"
"1056","9800.482"
"1057","9839"
"1058","9838.225"
"1059","9804.084"
"1060","9758.802"
"1061","9724.813"
"1062","9714.1"
"1063","9718.778"
"1064","9728.735"
"1065","9735.543"
"1066","9741.24"
"1067","9751.856"
"1068","9773.113"
"1069","9801.932"
"1070","9825.427"
"1071","9830.196"
"1072","9809.043"
"1073","9775.18"
"1074","9746.018"
"1075","9737.733"
"1076","9752.452"
"1077","9783.442"
"1078","9823.819"
"1079","9865.74"
"1080","9899.713"
"1081","9916.06"
"1082","9907.764"
"1083","9881.948"
"1084","9850.428"
"1085","9824.751"
"1086","9810.821"
"1087","9809.251"
"1088","9820.441"
"1089","9841.25"
"1090","9859.41"
"1091","9861.188"
"1092","9835.917"
"1093","9797.409"
"1094","9771.207"
"1095","9782.259"
"1096","9830.047"
"1097","9881.563"
"1098","9901.669"
"1099","9867.653"
"1100","9800.782"
"1101","9732.045"
"1102","9690.218"
"1103","9679.379"
"1104","9688.181"
"1105","9705.088"
"1106","9722.254"
"1107","9737.743"
"1108","9750.15"
"1109","9758.928"
"1110","9767.319"
"1111","9779.622"
"1112","9799.483"
"1113","9821.248"
"1114","9832.352"
"1115","9820.162"
"1116","9783.186"
"1117","9740.679"
"1118","9714.187"
"1119","9719.687"
"1120","9744.831"
"1121","9768.296"
"1122","9769.823"
"1123","9746.953"
"1124","9711.698"
"1125","9676.491"
"1126","9652.577"
"1127","9648.84"
"1128","9673.89"
"1129","9731.585"
"1130","9800.629"
"1131","9851.415"
"1132","9856.258"
"1133","9819.573"
"1134","9772.085"
"1135","9745.184"
"1136","9754.012"
"1137","9782.029"
"1138","9809.027"
"1139","9819.356"
"1140","9820.299"
"1141","9826.315"
"1142","9850.314"
"1143","9882.255"
"1144","9894.607"
"1145","9859.687"
"1146","9775.477"
"1147","9685.009"
"1148","9635.905"
"1149","9661.953"
"1150","9736.896"
"1151","9818.219"
"1152","9866.42"
"1153","9877.751"
"1154","9871.734"
"1155","9868.073"
"1156","9874.759"
"1157","9882.721"
"1158","9881.539"
"1159","9865.895"
"1160","9847.909"
"1161","9843.414"
"1162","9865.623"
"1163","9905.17"
"1164","9941.167"
"1165","9953.244"
"1166","9938.885"
"1167","9915.522"
"1168","9901.633"
"1169","9907.027"
"1170","9920.113"
"1171","9926.052"
"1172","9913.867"
"1173","9895.25"
"1174","9890.105"
"1175","9916.748"
"1176","9968.188"
"1177","10017.36"
"1178","10036.86"
"1179","10016.18"
"1180","9973.033"
"1181","9927.802"
"1182","9897.565"
"1183","9887.075"
"1184","9898.249"
"1185","9931.42"
"1186","9973.163"
"1187","10002.97"
"1188","10001.03"
"1189","9966.852"
"1190","9920.428"
"1191","9882.701"
"1192","9867.541"
"1193","9873.401"
"1194","9896.704"
"1195","9933.388"
"1196","9977.091"
"1197","10020.77"
"1198","10057.48"
"1199","10081.53"
"1200","10087.96"
"1201","10072.18"
"1202","10040.87"
"1203","10014.58"
"1204","10014.68"
"1205","10050.07"
"1206","10099.12"
"1207","10135.6"
"1208","10138.52"
"1209","10114.11"
"1210","10077.39"
"1211","10042.9"
"1212","10019.5"
"1213","10012.34"
"1214","10026.29"
"1215","10058.43"
"1216","10096.25"
"1217","10126.63"
"1218","10140.61"
"1219","10139.05"
"1220","10124.24"
"1221","10099.6"
"1222","10073.95"
"1223","10057.78"
"1224","10060.23"
"1225","10077.09"
"1226","10096.34"
"1227","10106.21"
"1228","10104.46"
"1229","10099.03"
"1230","10098.38"
"1231","10106.67"
"1232","10119.63"
"1233","10131.99"
"1234","10140.9"
"1235","10152.63"
"1236","10175.61"
"1237","10215.74"
"1238","10259.85"
"1239","10286.14"
"1240","10274.41"
"1241","10231.39"
"1242","10185.83"
"1243","10166.7"
"1244","10182.94"
"1245","10214.74"
"1246","10240.07"
"1247","10244.62"
"1248","10233.85"
"1249","10216.38"
"1250","10199.96"
"1251","10188.25"
"1252","10183.72"
"1253","10188.39"
"1254","10200.38"
"1255","10215.72"
"1256","10230.51"
"1257","10242.65"
"1258","10251.69"
"1259","10257.26"
"1260","10261.06"
"1261","10267.96"
"1262","10283.11"
"1263","10306.88"
"1264","10327.04"
"1265","10329.35"
"1266","10304.97"
"1267","10270.51"
"1268","10249.97"
"1269","10263.72"
"1270","10301.63"
"1271","10338.29"
"1272","10349.5"
"1273","10333.19"
"1274","10305.41"
"1275","10282.64"
"1276","10275.48"
"1277","10286.74"
"1278","10318.67"
"1279","10366.56"
"1280","10410.81"
"1281","10429.91"
"1282","10409.95"
"1283","10364.16"
"1284","10311.84"
"1285","10269.77"
"1286","10239.58"
"1287","10217.33"
"1288","10199.46"
"1289","10186.69"
"1290","10182.31"
"1291","10189.37"
"1292","10205.96"
"1293","10225.61"
"1294","10241.75"
"1295","10251.91"
"1296","10259.35"
"1297","10267.77"
"1298","10279.92"
"1299","10296.49"
"1300","10317.88"
"1301","10343.22"
"1302","10367.11"
"1303","10383.23"
"1304","10386.81"
"1305","10381.51"
"1306","10373.79"
"1307","10369.33"
"1308","10367.16"
"1309","10362.87"
"1310","10352.19"
"1311","10333.28"
"1312","10306.18"
"1313","10271.17"
"1314","10235.77"
"1315","10215.34"
"1316","10225.43"
"1317","10266.82"
"1318","10316.92"
"1319","10351.05"
"1320","10354.97"
"1321","10338.29"
"1322","10314.01"
"1323","10293.86"
"1324","10285.23"
"1325","10294.63"
"1326","10324.73"
"1327","10359.24"
"1328","10375.93"
"1329","10356.62"
"1330","10313.23"
"1331","10271.19"
"1332","10254.1"
"1333","10264.05"
"1334","10289.62"
"1335","10319.47"
"1336","10347.9"
"1337","10374.04"
"1338","10397.19"
"1339","10416.76"
"1340","10432.27"
"1341","10443.2"
"1342","10446.47"
"1343","10434.94"
"1344","10401.15"
"1345","10346.21"
"1346","10289.55"
"1347","10252.96"
"1348","10248.84"
"1349","10262.34"
"1350","10273.68"
"1351","10268.77"
"1352","10256.04"
"1353","10249.49"
"1354","10260.16"
"1355","10283.25"
"1356","10308.65"
"1357","10326.74"
"1358","10331.34"
"1359","10317.81"
"1360","10282.8"
"1361","10235.89"
"1362","10194.06"
"1363","10173.47"
"1364","10177.93"
"1365","10202.16"
"1366","10240.34"
"1367","10279.41"
"1368","10299.68"
"1369","10281.89"
"1370","10227.76"
"1371","10163.02"
"1372","10114.52"
"1373","10097.15"
"1374","10108.76"
"1375","10145.8"
"1376","10196.02"
"1377","10231.9"
"1378","10224.48"
"1379","10166.35"
"1380","10096.71"
"1381","10060.79"
"1382","10084.49"
"1383","10142.42"
"1384","10200.79"
"1385","10233.57"
"1386","10240.11"
"1387","10224.84"
"1388","10195.39"
"1389","10171.87"
"1390","10177.48"
"1391","10226.3"
"1392","10288.92"
"1393","10322.98"
"1394","10295.43"
"1395","10226.47"
"1396","10155.14"
"1397","10115.45"
"1398","10106.86"
"1399","10114.5"
"1400","10124.14"
"1401","10127.47"
"1402","10118.99"
"1403","10094.54"
"1404","10062.2"
"1405","10036.85"
"1406","10032.12"
"1407","10046.25"
"1408","10067.83"
"1409","10085.77"
"1410","10095.44"
"1411","10096.71"
"1412","10089.82"
"1413","10078.76"
"1414","10070.5"
"1415","10071.79"
"1416","10084.09"
"1417","10104.25"
"1418","10128.89"
"1419","10153.62"
"1420","10173.03"
"1421","10181.77"
"1422","10176.87"
"1423","10157.83"
"1424","10124.62"
"1425","10087.87"
"1426","10070"
"1427","10093.19"
"1428","10152.06"
"1429","10208.57"
"1430","10223.73"
"1431","10192.13"
"1432","10150.45"
"1433","10137.44"
"1434","10165.51"
"1435","10212.47"
"1436","10253.94"
"1437","10275.99"
"1438","10278.98"
"1439","10264.47"
"1440","10241.42"
"1441","10229.32"
"1442","10248.06"
"1443","10298.21"
"1444","10352.11"
"1445","10380.26"
"1446","10371.81"
"1447","10343.61"
"1448","10314.65"
"1449","10298.41"
"1450","10300.12"
"1451","10324.06"
"1452","10360.7"
"1453","10379.77"
"1454","10349.85"
"1455","10269.09"
"1456","10179.53"
"1457","10126.25"
"1458","10125.77"
"1459","10152.84"
"1460","10179.2"
"1461","10190.22"
"1462","10190.82"
"1463","10187.24"
"1464","10177.83"
"1465","10150.03"
"1466","10091.04"
"1467","10010.81"
"1468","9949.436"
"1469","9947.902"
"1470","10001.62"
"1471","10048.27"
"1472","10023.54"
"1473","9920.788"
"1474","9802.42"
"1475","9733.364"
"1476","9732.391"
"1477","9766.396"
"1478","9800.041"
"1479","9812.215"
"1480","9796.683"
"1481","9748.749"
"1482","9682.058"
"1483","9627.972"
"1484","9617.128"
"1485","9652.402"
"1486","9712.073"
"1487","9773.758"
"1488","9818.399"
"1489","9829.623"
"1490","9793.284"
"1491","9725.035"
"1492","9662.163"
"1493","9639.41"
"1494","9655.579"
"1495","9686.157"
"1496","9707.831"
"1497","9713.301"
"1498","9704.472"
"1499","9683.492"
"1500","9653.679"
"1501","9618.923"
"1502","9583.255"
"1503","9551.553"
"1504","9529.077"
"1505","9520.616"
"1506","9528.109"
"1507","9552.429"
"1508","9591.03"
"1509","9624.126"
"1510","9626.478"
"1511","9584.41"
"1512","9533.023"
"1513","9520.278"
"1514","9572.916"
"1515","9643.728"
"1516","9669.417"
"1517","9617.132"
"1518","9541.203"
"1519","9511.37"
"1520","9559.038"
"1521","9625.714"
"1522","9640.377"
"1523","9575.291"
"1524","9485.663"
"1525","9435.462"
"1526","9448.072"
"1527","9483.517"
"1528","9497.069"
"1529","9473.165"
"1530","9433.231"
"1531","9400.634"
"1532","9387.561"
"1533","9394.74"
"1534","9421.654"
"1535","9455.748"
"1536","9474.558"
"1537","9458.282"
"1538","9422.129"
"1539","9404.166"
"1540","9437.265"
"1541","9505.942"
"1542","9570.009"
"1543","9593.857"
"1544","9572.656"
"1545","9513.648"
"1546","9429.129"
"1547","9355.107"
"1548","9334.683"
"1549","9391.186"
"1550","9478.221"
"1551","9534.024"
"1552","9523.279"
"1553","9479.808"
"1554","9448.432"
"1555","9451.795"
"1556","9469.37"
"1557","9475.855"
"1558","9456.924"
"1559","9414.213"
"1560","9351.114"
"1561","9284.302"
"1562","9244.86"
"1563","9261.801"
"1564","9318.716"
"1565","9362.62"
"1566","9345.165"
"1567","9277.273"
"1568","9204.861"
"1569","9168.56"
"1570","9168.825"
"1571","9189.08"
"1572","9214.788"
"1573","9241.48"
"1574","9267.671"
"1575","9290.982"
"1576","9306.109"
"1577","9307.159"
"1578","9291.252"
"1579","9262.294"
"1580","9225.149"
"1581","9185.975"
"1582","9152.951"
"1583","9134.252"
"1584","9132.418"
"1585","9143.797"
"1586","9164.071"
"1587","9183.902"
"1588","9190.083"
"1589","9172.774"
"1590","9153.389"
"1591","9169.878"
"1592","9247.909"
"1593","9342.3"
"1594","9382.809"
"1595","9324.168"
"1596","9212.766"
"1597","9115.914"
"1598","9079.463"
"1599","9098.319"
"1600","9159.832"
"1601","9240.778"
"1602","9301.453"
"1603","9302.397"
"1604","9247"
"1605","9183.173"
"1606","9157.405"
"1607","9171.227"
"1608","9195.255"
"1609","9203.399"
"1610","9198.264"
"1611","9195.195"
"1612","9205.713"
"1613","9224.115"
"1614","9239.943"
"1615","9247.088"
"1616","9251.197"
"1617","9259.798"
"1618","9274.153"
"1619","9284.953"
"1620","9282.196"
"1621","9264.627"
"1622","9240.348"
"1623","9217.537"
"1624","9199.455"
"1625","9186.037"
"1626","9177.572"
"1627","9177.155"
"1628","9189.051"
"1629","9215.684"
"1630","9252.24"
"1631","9292.126"
"1632","9325.58"
"1633","9335.645"
"1634","9304.918"
"1635","9242.448"
"1636","9193.809"
"1637","9204.068"
"1638","9262.488"
"1639","9311.329"
"1640","9298.947"
"1641","9238.511"
"1642","9175.869"
"1643","9148.07"
"1644","9150.102"
"1645","9164.835"
"1646","9181.351"
"1647","9204.721"
"1648","9242.315"
"1649","9288.148"
"1650","9316.461"
"1651","9302.006"
"1652","9258.452"
"1653","9233.334"
"1654","9267.856"
"1655","9339.813"
"1656","9395.156"
"1657","9393.698"
"1658","9357.563"
"1659","9325.979"
"1660","9322.088"
"1661","9330.975"
"1662","9332.607"
"1663","9322.779"
"1664","9318.169"
"1665","9335.081"
"1666","9363.66"
"1667","9374.512"
"1668","9343.729"
"1669","9287.541"
"1670","9238.654"
"1671","9219.55"
"1672","9217.642"
"1673","9212.992"
"1674","9195.833"
"1675","9174.646"
"1676","9159.303"
"1677","9148.412"
"1678","9129.548"
"1679","9092.375"
"1680","9049.702"
"1681","9026.622"
"1682","9039.262"
"1683","9064.274"
"1684","9067.675"
"1685","9031.197"
"1686","8970.728"
"1687","8906.475"
"1688","8853.211"
"1689","8819.509"
"1690","8812.145"
"1691","8822.27"
"1692","8831.603"
"1693","8826.665"
"1694","8817.996"
"1695","8823.345"
"1696","8846.097"
"1697","8856.155"
"1698","8819.888"
"1699","8744.519"
"1700","8685.697"
"1701","8695.194"
"1702","8751.821"
"1703","8789.932"
"1704","8761.261"
"1705","8703.164"
"1706","8678.188"
"1707","8716.926"
"1708","8779.158"
"1709","8816.225"
"1710","8810.02"
"1711","8775.978"
"1712","8731.404"
"1713","8694.821"
"1714","8685.433"
"1715","8713.169"
"1716","8750.298"
"1717","8759.718"
"1718","8728.569"
"1719","8689.172"
"1720","8677.131"
"1721","8695.061"
"1722","8715.659"
"1723","8714.221"
"1724","8692.487"
"1725","8663.631"
"1726","8637.804"
"1727","8615.721"
"1728","8596.327"
"1729","8579.71"
"1730","8567.54"
"1731","8561.521"
"1732","8562.316"
"1733","8569.894"
"1734","8582.745"
"1735","8592.428"
"1736","8588.47"
"1737","8571.173"
"1738","8563.011"
"1739","8587.872"
"1740","8641.301"
"1741","8691.947"
"1742","8711.514"
"1743","8701.087"
"1744","8674.415"
"1745","8645.035"
"1746","8625.683"
"1747","8628.517"
"1748","8648.941"
"1749","8661.188"
"1750","8641.869"
"1751","8604.979"
"1752","8585.855"
"1753","8607.691"
"1754","8646.494"
"1755","8667.311"
"1756","8653.021"
"1757","8614.811"
"1758","8566.921"
"1759","8530.353"
"1760","8530.877"
"1761","8584.18"
"1762","8658.128"
"1763","8706.776"
"1764","8707.039"
"1765","8678.741"
"1766","8645.72"
"1767","8619.971"
"1768","8603.915"
"1769","8598.021"
"1770","8593.729"
"1771","8579.521"
"1772","8554.1"
"1773","8537.464"
"1774","8550.644"
"1775","8584.475"
"1776","8603.389"
"1777","8579.67"
"1778","8536.143"
"1779","8513.578"
"1780","8532.206"
"1781","8567.769"
"1782","8591.196"
"1783","8592.787"
"1784","8580.043"
"1785","8560.533"
"1786","8538.723"
"1787","8517.98"
"1788","8501.495"
"1789","8492.059"
"1790","8492.168"
"1791","8499.877"
"1792","8509.476"
"1793","8516.347"
"1794","8522.315"
"1795","8531.313"
"1796","8544.63"
"1797","8558.498"
"1798","8568.688"
"1799","8572.727"
"1800","8569.471"
"1801","8557.206"
"1802","8531.467"
"1803","8487.191"
"1804","8432.994"
"1805","8399.934"
"1806","8417.431"
"1807","8471.266"
"1808","8519.244"
"1809","8530.389"
"1810","8516.727"
"1811","8499.879"
"1812","8490.313"
"1813","8483.701"
"1814","8474.676"
"1815","8457.829"
"1816","8427.746"
"1817","8387.526"
"1818","8363.778"
"1819","8385.701"
"1820","8447.595"
"1821","8508.46"
"1822","8533.082"
"1823","8530.501"
"1824","8525.974"
"1825","8531.435"
"1826","8532.484"
"1827","8513.147"
"1828","8478.596"
"1829","8449.343"
"1830","8440.558"
"1831","8444.738"
"1832","8448.733"
"1833","8438.451"
"1834","8398.551"
"1835","8318.904"
"1836","8232.403"
"1837","8192.742"
"1838","8227.918"
"1839","8301.435"
"1840","8368.283"
"1841","8410.013"
"1842","8431.357"
"1843","8435.682"
"1844","8416.215"
"1845","8363.635"
"1846","8293.379"
"1847","8258.397"
"1848","8305.303"
"1849","8394.496"
"1850","8440.796"
"1851","8401.311"
"1852","8345.89"
"1853","8357.743"
"1854","8423.137"
"1855","8442.124"
"1856","8345.921"
"1857","8224.669"
"1858","8212.575"
"1859","8338.009"
"1860","8476.442"
"1861","8508.27"
"1862","8453.003"
"1863","8397.608"
"1864","8393.25"
"1865","8406.493"
"1866","8394.919"
"1867","8362.215"
"1868","8347.449"
"1869","8376.675"
"1870","8423.315"
"1871","8449.054"
"1872","8437.979"
"1873","8400.302"
"1874","8350.158"
"1875","8316.254"
"1876","8332.383"
"1877","8399.065"
"1878","8459.098"
"1879","8456.725"
"1880","8407.04"
"1881","8364.685"
"1882","8363.651"
"1883","8383.832"
"1884","8397.415"
"1885","8390.61"
"1886","8360.835"
"1887","8314.174"
"1888","8287.932"
"1889","8324.768"
"1890","8409.813"
"1891","8464.408"
"1892","8426.313"
"1893","8340.521"
"1894","8287.18"
"1895","8298.085"
"1896","8332.311"
"1897","8348.426"
"1898","8347.415"
"1899","8349.659"
"1900","8364.954"
"1901","8381.702"
"1902","8386.891"
"1903","8379.702"
"1904","8366.689"
"1905","8351.482"
"1906","8329.802"
"1907","8296.874"
"1908","8259.624"
"1909","8233.989"
"1910","8230.291"
"1911","8239.169"
"1912","8247.628"
"1913","8253.35"
"1914","8264.158"
"1915","8285.805"
"1916","8313.578"
"1917","8339.816"
"1918","8351.532"
"1919","8329.658"
"1920","8263.35"
"1921","8185.823"
"1922","8143.848"
"1923","8157.129"
"1924","8209.013"
"1925","8278.235"
"1926","8331.358"
"1927","8330.89"
"1928","8276.167"
"1929","8223.19"
"1930","8223.16"
"1931","8258.226"
"1932","8281.028"
"1933","8267.685"
"1934","8234.993"
"1935","8202.729"
"1936","8181.961"
"1937","8179.49"
"1938","8187.797"
"1939","8172.534"
"1940","8103.887"
"1941","8018.043"
"1942","7984.985"
"1943","8033.446"
"1944","8109.019"
"1945","8153.665"
"1946","8168.729"
"1947","8187.509"
"1948","8218.732"
"1949","8219.526"
"1950","8149.178"
"1951","8049.514"
"1952","8007.798"
"1953","8057.667"
"1954","8119.391"
"1955","8110.311"
"1956","8056.979"
"1957","8045.925"
"1958","8116.87"
"1959","8211.784"
"1960","8265.149"
"1961","8254.667"
"1962","8181.298"
"1963","8067.977"
"1964","7980.425"
"1965","7979.314"
"1966","8037.911"
"1967","8085.476"
"1968","8083.982"
"1969","8056.424"
"1970","8029.808"
"1971","8010.951"
"1972","7997.27"
"1973","7986.348"
"1974","7976.132"
"1975","7965.667"
"1976","7961.295"
"1977","7972.061"
"1978","7987.599"
"1979","7968.616"
"1980","7885.488"
"1981","7779.721"
"1982","7717.684"
"1983","7722.367"
"1984","7760.473"
"1985","7800.369"
"1986","7837.502"
"1987","7875.452"
"1988","7913.323"
"1989","7945.308"
"1990","7962.098"
"1991","7941.484"
"1992","7860.691"
"1993","7750.735"
"1994","7691.677"
"1995","7731.772"
"1996","7811.346"
"1997","7853.361"
"1998","7842.351"
"1999","7808.182"
"2000","7770.843"
"2001","7722.936"
"2002","7655.986"
"2003","7593.088"
"2004","7575.345"
"2005","7607.458"
"2006","7624.04"
"2007","7567.061"
"2008","7490.262"
"2009","7495.084"
"2010","7601.122"
"2011","7709.296"
"2012","7731.511"
"2013","7685.75"
"2014","7623.389"
"2015","7575.046"
"2016","7549.027"
"2017","7547.376"
"2018","7553.364"
"2019","7547.693"
"2020","7537.435"
"2021","7550.161"
"2022","7590.984"
"2023","7607.533"
"2024","7551.685"
"2025","7499.444"
"2026","7593.361"
"2027","7840"
"2028","8011.751"
"2029","7911.688"
"2030","7667.517"
"2031","7521.848"
"2032","7547.726"
"2033","7620.187"
"2034","7632.783"
"2035","7593.071"
"2036","7534.796"
"2037","7478.369"
"2038","7433.821"
"2039","7408.077"
"2040","7401.215"
"2041","7411.299"
"2042","7427.884"
"2043","7436.438"
"2044","7435.157"
"2045","7441.489"
"2046","7467.447"
"2047","7490.293"
"2048","7478.041"
"2049","7430.344"
"2050","7376.891"
"2051","7340.044"
"2052","7317.559"
"2053","7302.227"
"2054","7281.22"
"2055","7238.586"
"2056","7172.203"
"2057","7103.341"
"2058","7053.811"
"2059","7035.673"
"2060","7056.649"
"2061","7098.945"
"2062","7119.32"
"2063","7094.542"
"2064","7063.72"
"2065","7071.944"
"2066","7108.674"
"2067","7131.621"
"2068","7123.082"
"2069","7106.029"
"2070","7103.388"
"2071","7118.799"
"2072","7149.028"
"2073","7174.243"
"2074","7159.545"
"2075","7091.37"
"2076","7012.437"
"2077","6969.989"
"2078","6973.682"
"2079","7014.296"
"2080","7065.959"
"2081","7080.472"
"2082","7027.851"
"2083","6956.611"
"2084","6930.712"
"2085","6959.167"
"2086","7011.585"
"2087","7054.892"
"2088","7052.667"
"2089","6980.97"
"2090","6890.746"
"2091","6856.899"
"2092","6887.035"
"2093","6922.746"
"2094","6922.627"
"2095","6898.12"
"2096","6869.267"
"2097","6855.128"
"2098","6873.498"
"2099","6910.608"
"2100","6912.495"
"2101","6849.827"
"2102","6788.758"
"2103","6805.539"
"2104","6857.122"
"2105","6828.507"
"2106","6696.703"
"2107","6585.705"
"2108","6596.336"
"2109","6670.136"
"2110","6710.27"
"2111","6693.973"
"2112","6652.977"
"2113","6616.507"
"2114","6606.644"
"2115","6633.947"
"2116","6653.383"
"2117","6606.711"
"2118","6517.41"
"2119","6477.016"
"2120","6519.057"
"2121","6551.029"
"2122","6490.267"
"2123","6403.301"
"2124","6404.348"
"2125","6496.174"
"2126","6580.885"
"2127","6596.158"
"2128","6567.619"
"2129","6528.344"
"2130","6483.854"
"2131","6430.358"
"2132","6383.748"
"2133","6378.146"
"2134","6425.002"
"2135","6482.834"
"2136","6505.181"
"2137","6460.514"
"2138","6327.404"
"2139","6174.508"
"2140","6151.979"
"2141","6309.485"
"2142","6471.809"
"2143","6471.941"
"2144","6359.391"
"2145","6256.186"
"2146","6220.671"
"2147","6256.957"
"2148","6344.083"
"2149","6414.932"
"2150","6410.058"
"2151","6336.943"
"2152","6224.84"
"2153","6114.607"
"2154","6055.513"
"2155","6064.649"
"2156","6103.335"
"2157","6133.957"
"2158","6147.14"
"2159","6140.551"
"2160","6108.069"
"2161","6041.781"
"2162","5963.544"
"2163","5937.604"
"2164","5994.117"
"2165","6037.935"
"2166","5967.824"
"2167","5856.941"
"2168","5861.884"
"2169","5990.875"
"2170","6084.149"
"2171","6037.101"
"2172","5908.799"
"2173","5782.8"
"2174","5734.181"
"2175","5827.191"
"2176","5988.512"
"2177","6028.613"
"2178","5880.958"
"2179","5713.978"
"2180","5675.321"
"2181","5711.818"
"2182","5724.34"
"2183","5701.501"
"2184","5684.743"
"2185","5683.824"
"2186","5666.189"
"2187","5612.98"
"2188","5552.706"
"2189","5518.708"
"2190","5519.594"
"2191","5553.307"
"2192","5608.327"
"2193","5664.859"
"2194","5708.368"
"2195","5734.614"
"2196","5735.932"
"2197","5686.254"
"2198","5565.376"
"2199","5456.874"
"2200","5497.63"
"2201","5654.4"
"2202","5695.661"
"2203","5500.654"
"2204","5244.847"
"2205","5115.808"
"2206","5125.951"
"2207","5227.682"
"2208","5355.974"
"2209","5434.218"
"2210","5424.24"
"2211","5342.742"
"2212","5223.728"
"2213","5139.424"
"2214","5150.398"
"2215","5195.271"
"2216","5171.63"
"2217","5098.81"
"2218","5092.917"
"2219","5182.042"
"2220","5250.263"
"2221","5208.929"
"2222","5100.534"
"2223","4992.387"
"2224","4937.883"
"2225","4980.091"
"2226","5083.422"
"2227","5146.4"
"2228","5123.867"
"2229","5066.429"
"2230","5020.663"
"2231","4990.325"
"2232","4969.55"
"2233","4946.572"
"2234","4908.625"
"2235","4868.536"
"2236","4859.626"
"2237","4880.529"
"2238","4875.041"
"2239","4805.071"
"2240","4702.338"
"2241","4609.973"
"2242","4558.933"
"2243","4572.251"
"2244","4626.096"
"2245","4662.701"
"2246","4649.495"
"2247","4589.385"
"2248","4501.01"
"2249","4436.792"
"2250","4436.145"
"2251","4444.02"
"2252","4385.816"
"2253","4300.697"
"2254","4293.375"
"2255","4374.01"
"2256","4447.833"
"2257","4454.547"
"2258","4414.267"
"2259","4343.473"
"2260","4207.979"
"2261","3979.358"
"2262","3764.351"
"2263","3720.904"
"2264","3826.929"
"2265","3913.272"
"2266","3897.67"
"2267","3831.306"
"2268","3759.418"
"2269","3683.418"
"2270","3595.346"
"2271","3476.13"
"2272","3310.697"
"2273","3157.383"
"2274","3111.631"
"2275","3164.109"
"2276","3202.184"
"2277","3173.394"
"2278","3136.135"
"2279","3126.728"
"2280","3080.358"
"2281","2941.105"
"2282","2813.209"
"2283","2837.594"
"2284","2936.691"
"2285","2905.02"
"2286","2723.167"
"2287","2568.257"
"2288","2537.513"
"2289","2569.101"
"2290","2593.853"
"2291","2571.189"
"2292","2477.936"
"2293","2357.981"
"2294","2272.144"
"2295","2213.504"
"2296","2136.808"
"2297","2043.248"
"2298","1979.997"
"2299","1962.62"
"2300","1951.892"
