,"Scan 01136"
"400","11318.89"
"401","11272.06"
"402","11217.93"
"403","11160.74"
"404","11107.48"
"405","11065.97"
"406","11043.95"
"407","11047.42"
"408","11068.47"
"409","11092.53"
"410","11105.1"
"411","11093.02"
"412","11059.32"
"413","11018.27"
"414","10984.26"
"415","10971.13"
"416","10982.64"
"417","11012.78"
"418","11055.13"
"419","11103.37"
"420","11151.75"
"421","11195.34"
"422","11229.32"
"423","11248.9"
"424","11252.5"
"425","11244.44"
"426","11229.6"
"427","11212.85"
"428","11197.78"
"429","11184.9"
"430","11174.26"
"431","11165.89"
"432","11159.33"
"433","11152.4"
"434","11142.6"
"435","11127.43"
"436","11105.69"
"437","11081.89"
"438","11062.12"
"439","11052.46"
"440","11057.59"
"441","11074.38"
"442","11096.77"
"443","11118.77"
"444","11134.8"
"445","11142.29"
"446","11140.07"
"447","11126.99"
"448","11102.36"
"449","11070.15"
"450","11037.02"
"451","11009.6"
"452","10993.94"
"453","10989"
"454","10988.76"
"455","10987.13"
"456","10978.37"
"457","10961.9"
"458","10941.42"
"459","10920.73"
"460","10903.46"
"461","10889.58"
"462","10875.48"
"463","10857.44"
"464","10831.92"
"465","10799.48"
"466","10765.27"
"467","10734.66"
"468","10712.9"
"469","10701.65"
"470","10698.07"
"471","10699.07"
"472","10701.56"
"473","10703.38"
"474","10703.55"
"475","10701.24"
"476","10695.59"
"477","10685.89"
"478","10671.62"
"479","10652.29"
"480","10627.43"
"481","10598.61"
"482","10570.79"
"483","10549.21"
"484","10539.07"
"485","10542.03"
"486","10553.48"
"487","10568.19"
"488","10580.97"
"489","10588.13"
"490","10588.7"
"491","10581.99"
"492","10567.37"
"493","10545.45"
"494","10519.25"
"495","10492.08"
"496","10467.18"
"497","10445.42"
"498","10423.04"
"499","10395.72"
"500","10359.23"
"501","10312.84"
"502","10262.63"
"503","10215.46"
"504","10178.08"
"505","10152.97"
"506","10134.4"
"507","10115.76"
"508","10090.5"
"509","10056.07"
"510","10017.2"
"511","9979.417"
"512","9948.177"
"513","9925.543"
"514","9907.667"
"515","9890.11"
"516","9868.502"
"517","9841.387"
"518","9812.109"
"519","9784.455"
"520","9762.129"
"521","9746.133"
"522","9733.328"
"523","9720.246"
"524","9703.48"
"525","9681.628"
"526","9656.058"
"527","9628.34"
"528","9600.051"
"529","9573.41"
"530","9551.426"
"531","9537.146"
"532","9533.443"
"533","9538.636"
"534","9546.048"
"535","9548.767"
"536","9540.205"
"537","9519.948"
"538","9493.518"
"539","9466.64"
"540","9444.728"
"541","9428.184"
"542","9413.284"
"543","9396.196"
"544","9373.518"
"545","9347.26"
"546","9323.231"
"547","9307.279"
"548","9304.535"
"549","9312.949"
"550","9326.305"
"551","9338.363"
"552","9343.262"
"553","9337.983"
"554","9320.859"
"555","9290.245"
"556","9246.066"
"557","9197.948"
"558","9159.167"
"559","9142.947"
"560","9158.281"
"561","9194.319"
"562","9234.362"
"563","9261.793"
"564","9265.22"
"565","9251.978"
"566","9233.597"
"567","9221.55"
"568","9222.56"
"569","9230.462"
"570","9236.943"
"571","9233.76"
"572","9217.503"
"573","9194.617"
"574","9172.736"
"575","9159.36"
"576","9156.356"
"577","9156.958"
"578","9153.706"
"579","9139.41"
"580","9114.248"
"581","9086.805"
"582","9066.086"
"583","9060.606"
"584","9071.046"
"585","9091.51"
"586","9115.907"
"587","9138.424"
"588","9155.815"
"589","9166.421"
"590","9168.605"
"591","9161.163"
"592","9145.911"
"593","9125.958"
"594","9104.404"
"595","9084.037"
"596","9066.256"
"597","9052.049"
"598","9042.397"
"599","9038.088"
"600","9039.302"
"601","9046.106"
"602","9058.55"
"603","9074.392"
"604","9086.646"
"605","9087.767"
"606","9070.417"
"607","9035.271"
"608","8994.078"
"609","8959.354"
"610","8942.977"
"611","8944.665"
"612","8952.873"
"613","8955.679"
"614","8942.377"
"615","8915.128"
"616","8883.947"
"617","8858.929"
"618","8848.428"
"619","8849.971"
"620","8856.869"
"621","8862.45"
"622","8861.538"
"623","8854.584"
"624","8843.378"
"625","8829.705"
"626","8815.88"
"627","8805.434"
"628","8802.062"
"629","8809.345"
"630","8825.853"
"631","8843.075"
"632","8851.984"
"633","8844.105"
"634","8820.72"
"635","8791.667"
"636","8767.058"
"637","8755.917"
"638","8757.692"
"639","8766.709"
"640","8777.263"
"641","8784.764"
"642","8790.122"
"643","8795.94"
"644","8804.821"
"645","8816.868"
"646","8825.313"
"647","8822.223"
"648","8799.844"
"649","8760.272"
"650","8721.188"
"651","8701.602"
"652","8719.227"
"653","8767.193"
"654","8815.995"
"655","8835.366"
"656","8799.81"
"657","8725.833"
"658","8651.999"
"659","8616.96"
"660","8648.412"
"661","8724.575"
"662","8809.664"
"663","8868.051"
"664","8878.727"
"665","8855.377"
"666","8816.693"
"667","8781.076"
"668","8757.563"
"669","8743.099"
"670","8733.83"
"671","8726.256"
"672","8721.412"
"673","8723.551"
"674","8736.993"
"675","8764.245"
"676","8796.964"
"677","8822.765"
"678","8829.29"
"679","8809.882"
"680","8774.668"
"681","8736.842"
"682","8709.425"
"683","8697.314"
"684","8693.222"
"685","8688.856"
"686","8676.543"
"687","8657.824"
"688","8641.512"
"689","8636.593"
"690","8650.198"
"691","8677.563"
"692","8709.189"
"693","8735.604"
"694","8749.936"
"695","8753.123"
"696","8747.559"
"697","8735.635"
"698","8720.497"
"699","8706.379"
"700","8697.588"
"701","8698.099"
"702","8707.385"
"703","8721.657"
"704","8737.05"
"705","8750.15"
"706","8760.008"
"707","8766.527"
"708","8769.613"
"709","8769.188"
"710","8765.216"
"711","8757.664"
"712","8746.566"
"713","8734.015"
"714","8724.514"
"715","8722.692"
"716","8732.273"
"717","8748.25"
"718","8760.743"
"719","8759.838"
"720","8739.784"
"721","8711.221"
"722","8688.802"
"723","8687.034"
"724","8710.452"
"725","8746.415"
"726","8780.6"
"727","8799.372"
"728","8799.5"
"729","8786.028"
"730","8764.229"
"731","8739.594"
"732","8718.961"
"733","8709.628"
"734","8718.862"
"735","8749.114"
"736","8791.664"
"737","8836.218"
"738","8872.674"
"739","8895.134"
"740","8902.004"
"741","8891.881"
"742","8864.562"
"743","8828.642"
"744","8796.662"
"745","8781.15"
"746","8789.132"
"747","8811.922"
"748","8838.052"
"749","8856.276"
"750","8861.813"
"751","8857.632"
"752","8847.158"
"753","8833.911"
"754","8822.173"
"755","8816.633"
"756","8821.972"
"757","8840.136"
"758","8864.348"
"759","8886.104"
"760","8897.089"
"761","8895.425"
"762","8887.521"
"763","8880.322"
"764","8879.98"
"765","8885.522"
"766","8892.166"
"767","8895.098"
"768","8891.018"
"769","8881.452"
"770","8868.903"
"771","8855.885"
"772","8845.523"
"773","8841.721"
"774","8848.421"
"775","8868.808"
"776","8899.562"
"777","8934.07"
"778","8965.707"
"779","8990.421"
"780","9011.747"
"781","9034.603"
"782","9063.692"
"783","9097.495"
"784","9127.472"
"785","9144.709"
"786","9142.115"
"787","9125.657"
"788","9107.037"
"789","9097.946"
"790","9104.059"
"791","9116.252"
"792","9123.181"
"793","9114.107"
"794","9090.485"
"795","9065.129"
"796","9051.278"
"797","9059.225"
"798","9082.933"
"799","9110.746"
"800","9131.063"
"801","9137.961"
"802","9136.249"
"803","9131.933"
"804","9130.699"
"805","9134.215"
"806","9141.289"
"807","9150.675"
"808","9160.679"
"809","9167.865"
"810","9168.367"
"811","9158.462"
"812","9140.29"
"813","9123.909"
"814","9119.933"
"815","9137.333"
"816","9171.654"
"817","9211.84"
"818","9246.802"
"819","9268.349"
"820","9275.675"
"821","9269.135"
"822","9249.336"
"823","9221.618"
"824","9195.601"
"825","9181.037"
"826","9185.159"
"827","9202.813"
"828","9225.061"
"829","9243.051"
"830","9253.327"
"831","9260.94"
"832","9271.682"
"833","9290.36"
"834","9312.506"
"835","9328.522"
"836","9328.784"
"837","9309.745"
"838","9284.613"
"839","9269.449"
"840","9279.423"
"841","9312.093"
"842","9348.769"
"843","9370.158"
"844","9361.86"
"845","9333.037"
"846","9299.929"
"847","9278.654"
"848","9278.927"
"849","9300.932"
"850","9344.087"
"851","9406.275"
"852","9472.63"
"853","9521.937"
"854","9532.983"
"855","9498.807"
"856","9446.151"
"857","9406.646"
"858","9409.64"
"859","9450.401"
"860","9497.854"
"861","9520.25"
"862","9496.511"
"863","9445.68"
"864","9396.215"
"865","9375.885"
"866","9391.959"
"867","9428.121"
"868","9466.761"
"869","9493.04"
"870","9508.367"
"871","9520.042"
"872","9535.303"
"873","9556.972"
"874","9580.479"
"875","9600.556"
"876","9612.721"
"877","9619.607"
"878","9627.607"
"879","9643.138"
"880","9668.843"
"881","9698.37"
"882","9724.056"
"883","9738.73"
"884","9742.154"
"885","9739.209"
"886","9734.895"
"887","9733.192"
"888","9734.663"
"889","9739.149"
"890","9746.488"
"891","9756.467"
"892","9768.819"
"893","9783.281"
"894","9799.086"
"895","9813.182"
"896","9821.854"
"897","9821.468"
"898","9811.732"
"899","9796.687"
"900","9780.654"
"901","9767.9"
"902","9762.338"
"903","9767.737"
"904","9787.794"
"905","9820.603"
"906","9855.011"
"907","9878.987"
"908","9882.291"
"909","9869.369"
"910","9851.88"
"911","9841.49"
"912","9843.567"
"913","9850.453"
"914","9852.871"
"915","9842.794"
"916","9825.463"
"917","9814.146"
"918","9822.2"
"919","9854.487"
"920","9894.377"
"921","9921.9"
"922","9918.804"
"923","9890.308"
"924","9858.602"
"925","9846.248"
"926","9867.015"
"927","9908.083"
"928","9951.635"
"929","9980.544"
"930","9989.785"
"931","9984.485"
"932","9970.081"
"933","9952.096"
"934","9936.302"
"935","9928.536"
"936","9934.21"
"937","9949.82"
"938","9963.376"
"939","9962.545"
"940","9939.389"
"941","9903.625"
"942","9869.4"
"943","9850.476"
"944","9850.521"
"945","9862.593"
"946","9879.249"
"947","9893.626"
"948","9901.495"
"949","9899.352"
"950","9883.854"
"951","9856.222"
"952","9822.879"
"953","9790.531"
"954","9765.248"
"955","9749.991"
"956","9746.802"
"957","9757.635"
"958","9781.695"
"959","9814.871"
"960","9852.856"
"961","9890.677"
"962","9919.944"
"963","9931.21"
"964","9915.398"
"965","9877.154"
"966","9838.182"
"967","9821.268"
"968","9843.008"
"969","9887.823"
"970","9929.707"
"971","9943.231"
"972","9924.532"
"973","9896.919"
"974","9885.44"
"975","9908.108"
"976","9946.204"
"977","9969.084"
"978","9946.858"
"979","9877.557"
"980","9794.089"
"981","9731.571"
"982","9717.671"
"983","9741.971"
"984","9781.94"
"985","9815.383"
"986","9831.855"
"987","9835.196"
"988","9830.106"
"989","9821.218"
"990","9812.854"
"991","9809.232"
"992","9814.461"
"993","9828.935"
"994","9848.771"
"995","9869.835"
"996","9888.288"
"997","9901.605"
"998","9907.645"
"999","9904.399"
"1000","9893.704"
"1001","9881.545"
"1002","9874.118"
"1003","9876.523"
"1004","9889.212"
"1005","9911.426"
"1006","9942.396"
"1007","9978.35"
"1008","10007.97"
"1009","10018.76"
"1010","9999.955"
"1011","9958.674"
"1012","9912.6"
"1013","9879.508"
"1014","9870.036"
"1015","9880.788"
"1016","9906.725"
"1017","9942.282"
"1018","9978.004"
"1019","10002.65"
"1020","10005.2"
"1021","9987.47"
"1022","9970.464"
"1023","9976.776"
"1024","10022.46"
"1025","10088.59"
"1026","10144.53"
"1027","10160.62"
"1028","10133.78"
"1029","10090.25"
"1030","10057.8"
"1031","10056.49"
"1032","10077.84"
"1033","10106.82"
"1034","10128.9"
"1035","10138.01"
"1036","10134.68"
"1037","10119.61"
"1038","10097.78"
"1039","10084.73"
"1040","10097.57"
"1041","10150.16"
"1042","10226.56"
"1043","10295"
"1044","10323.81"
"1045","10302.76"
"1046","10256.37"
"1047","10212.35"
"1048","10193.54"
"1049","10196.15"
"1050","10207.32"
"1051","10214.54"
"1052","10213.65"
"1053","10209.34"
"1054","10206.69"
"1055","10209.8"
"1056","10219.54"
"1057","10236.13"
"1058","10259.55"
"1059","10287"
"1060","10313.8"
"1061","10335.29"
"1062","10349.88"
"1063","10361.8"
"1064","10375.95"
"1065","10395.98"
"1066","10417.94"
"1067","10434.94"
"1068","10440.27"
"1069","10432.47"
"1070","10415.93"
"1071","10395.3"
"1072","10375.16"
"1073","10359.62"
"1074","10352.76"
"1075","10358.1"
"1076","10373.26"
"1077","10392.11"
"1078","10408.49"
"1079","10419.05"
"1080","10425.33"
"1081","10429.38"
"1082","10432.35"
"1083","10430.72"
"1084","10419.38"
"1085","10393.67"
"1086","10357.54"
"1087","10323.05"
"1088","10302.58"
"1089","10302.47"
"1090","10313.62"
"1091","10324.44"
"1092","10324.9"
"1093","10317.33"
"1094","10309.98"
"1095","10310.94"
"1096","10320.31"
"1097","10327.98"
"1098","10323.19"
"1099","10299.18"
"1100","10263.38"
"1101","10226.35"
"1102","10198.02"
"1103","10181.31"
"1104","10174.73"
"1105","10176.72"
"1106","10184.99"
"1107","10196.04"
"1108","10206.28"
"1109","10212.77"
"1110","10215.31"
"1111","10214.54"
"1112","10211.28"
"1113","10209.64"
"1114","10216.14"
"1115","10237.31"
"1116","10271.48"
"1117","10301.77"
"1118","10309.66"
"1119","10282.12"
"1120","10234.36"
"1121","10190.53"
"1122","10173.5"
"1123","10185.02"
"1124","10209.66"
"1125","10231.54"
"1126","10240.95"
"1127","10240.52"
"1128","10234.36"
"1129","10225.92"
"1130","10215.27"
"1131","10201.34"
"1132","10183.27"
"1133","10163.16"
"1134","10145.62"
"1135","10135.25"
"1136","10133.57"
"1137","10135.98"
"1138","10137.16"
"1139","10133.65"
"1140","10131.17"
"1141","10138.35"
"1142","10162.91"
"1143","10199.51"
"1144","10232.82"
"1145","10247.36"
"1146","10238.01"
"1147","10217.77"
"1148","10201.48"
"1149","10200.36"
"1150","10209.9"
"1151","10221.33"
"1152","10226.66"
"1153","10226.87"
"1154","10228.82"
"1155","10239.33"
"1156","10257.92"
"1157","10273.49"
"1158","10274.1"
"1159","10253.21"
"1160","10222.76"
"1161","10198.6"
"1162","10195.04"
"1163","10212.91"
"1164","10246.21"
"1165","10288.8"
"1166","10333.01"
"1167","10369.4"
"1168","10388.47"
"1169","10383.76"
"1170","10356.33"
"1171","10308.38"
"1172","10244.25"
"1173","10180.62"
"1174","10138.67"
"1175","10138.11"
"1176","10175.4"
"1177","10228.55"
"1178","10275.19"
"1179","10302.83"
"1180","10315.47"
"1181","10318.68"
"1182","10316.68"
"1183","10308.57"
"1184","10292.31"
"1185","10266.7"
"1186","10238.1"
"1187","10216.74"
"1188","10212.59"
"1189","10228.2"
"1190","10258.27"
"1191","10297.09"
"1192","10338.17"
"1193","10373.24"
"1194","10393.79"
"1195","10394.71"
"1196","10386.84"
"1197","10385.77"
"1198","10405.17"
"1199","10437.3"
"1200","10461.13"
"1201","10456"
"1202","10420.27"
"1203","10375.7"
"1204","10345.44"
"1205","10342.42"
"1206","10354.48"
"1207","10365.68"
"1208","10363.61"
"1209","10354.36"
"1210","10349.96"
"1211","10360.97"
"1212","10380.76"
"1213","10391.54"
"1214","10375.87"
"1215","10334.79"
"1216","10292.11"
"1217","10273.03"
"1218","10289.66"
"1219","10323.06"
"1220","10349.81"
"1221","10351.7"
"1222","10335.83"
"1223","10316.85"
"1224","10308.45"
"1225","10314.28"
"1226","10332.16"
"1227","10359.67"
"1228","10390.12"
"1229","10412.19"
"1230","10414.43"
"1231","10394.82"
"1232","10370.09"
"1233","10359.15"
"1234","10375.52"
"1235","10412.28"
"1236","10457.66"
"1237","10500.6"
"1238","10535.27"
"1239","10558.23"
"1240","10566.39"
"1241","10562.04"
"1242","10551.9"
"1243","10542.76"
"1244","10539.13"
"1245","10542.27"
"1246","10553.15"
"1247","10571.37"
"1248","10592.92"
"1249","10613.21"
"1250","10628.59"
"1251","10639.82"
"1252","10648.96"
"1253","10657.81"
"1254","10665.82"
"1255","10671.14"
"1256","10672.15"
"1257","10671.66"
"1258","10676.5"
"1259","10693.57"
"1260","10722.64"
"1261","10752.63"
"1262","10771.53"
"1263","10771.79"
"1264","10757.71"
"1265","10735.54"
"1266","10711.42"
"1267","10691.22"
"1268","10680.73"
"1269","10684.4"
"1270","10695.65"
"1271","10702.37"
"1272","10693.31"
"1273","10672.06"
"1274","10654.45"
"1275","10656.29"
"1276","10679.67"
"1277","10708.42"
"1278","10725.15"
"1279","10719.64"
"1280","10696.98"
"1281","10664.26"
"1282","10628.29"
"1283","10594.88"
"1284","10569.6"
"1285","10557.12"
"1286","10556.57"
"1287","10565.05"
"1288","10579.86"
"1289","10600.64"
"1290","10628.35"
"1291","10663.72"
"1292","10701.54"
"1293","10731.15"
"1294","10741.94"
"1295","10734.72"
"1296","10726.38"
"1297","10734.97"
"1298","10768"
"1299","10810.19"
"1300","10843.26"
"1301","10853.23"
"1302","10840.73"
"1303","10809.48"
"1304","10765.35"
"1305","10725.72"
"1306","10711.84"
"1307","10740.84"
"1308","10794.52"
"1309","10836.65"
"1310","10833.31"
"1311","10786.79"
"1312","10726.76"
"1313","10682.91"
"1314","10666.6"
"1315","10669.12"
"1316","10680.72"
"1317","10692.01"
"1318","10694.1"
"1319","10678.2"
"1320","10643.87"
"1321","10609.98"
"1322","10598.1"
"1323","10619.76"
"1324","10652.52"
"1325","10666.73"
"1326","10640.4"
"1327","10589.85"
"1328","10543.37"
"1329","10525.16"
"1330","10529.23"
"1331","10536.01"
"1332","10527.31"
"1333","10501.25"
"1334","10466.21"
"1335","10430.72"
"1336","10403.31"
"1337","10392.52"
"1338","10406.28"
"1339","10433.33"
"1340","10439.98"
"1341","10391.74"
"1342","10287.21"
"1343","10177.37"
"1344","10117.73"
"1345","10137.53"
"1346","10209.9"
"1347","10300.69"
"1348","10381.06"
"1349","10437.51"
"1350","10459.29"
"1351","10442.5"
"1352","10410.15"
"1353","10391.95"
"1354","10410.5"
"1355","10450.37"
"1356","10483.43"
"1357","10485.06"
"1358","10456.13"
"1359","10408.81"
"1360","10355.17"
"1361","10306.07"
"1362","10271.66"
"1363","10260.97"
"1364","10267.64"
"1365","10274.02"
"1366","10263.31"
"1367","10240.39"
"1368","10230.11"
"1369","10257.08"
"1370","10315.77"
"1371","10366.06"
"1372","10366.66"
"1373","10312.8"
"1374","10251.64"
"1375","10233.96"
"1376","10275.42"
"1377","10330.06"
"1378","10345.79"
"1379","10300.05"
"1380","10234.06"
"1381","10197.31"
"1382","10217.33"
"1383","10263.33"
"1384","10294.99"
"1385","10285.7"
"1386","10253.41"
"1387","10225.1"
"1388","10220.98"
"1389","10234.71"
"1390","10253.37"
"1391","10266.5"
"1392","10275.36"
"1393","10284.7"
"1394","10298.33"
"1395","10314.62"
"1396","10330.02"
"1397","10340.81"
"1398","10342.05"
"1399","10328.25"
"1400","10295.41"
"1401","10251.07"
"1402","10208.38"
"1403","10180.13"
"1404","10175.14"
"1405","10200.06"
"1406","10259.06"
"1407","10329"
"1408","10369.52"
"1409","10343.81"
"1410","10265.86"
"1411","10185.55"
"1412","10150.83"
"1413","10167.59"
"1414","10208.69"
"1415","10246.86"
"1416","10269.63"
"1417","10277.34"
"1418","10270.91"
"1419","10254.27"
"1420","10234.24"
"1421","10217.72"
"1422","10211.38"
"1423","10221.64"
"1424","10254.49"
"1425","10304.7"
"1426","10354.53"
"1427","10386.14"
"1428","10398.8"
"1429","10412.06"
"1430","10446.27"
"1431","10509.03"
"1432","10591.91"
"1433","10685.35"
"1434","10776.24"
"1435","10846.77"
"1436","10879.23"
"1437","10874.85"
"1438","10860.85"
"1439","10865.96"
"1440","10900.07"
"1441","10946.27"
"1442","10985.69"
"1443","11004.46"
"1444","10995.93"
"1445","10954.33"
"1446","10889.29"
"1447","10833.2"
"1448","10819.77"
"1449","10851.66"
"1450","10885.12"
"1451","10873.21"
"1452","10803.37"
"1453","10714.45"
"1454","10649.08"
"1455","10625.57"
"1456","10626.05"
"1457","10629.9"
"1458","10625.25"
"1459","10613.01"
"1460","10595.08"
"1461","10572.66"
"1462","10545.9"
"1463","10514.77"
"1464","10475.37"
"1465","10418.41"
"1466","10334.63"
"1467","10233.61"
"1468","10149.88"
"1469","10118.74"
"1470","10139.3"
"1471","10164.88"
"1472","10146.92"
"1473","10074.35"
"1474","9980.97"
"1475","9902.633"
"1476","9857.919"
"1477","9845.958"
"1478","9864.215"
"1479","9894.209"
"1480","9900.79"
"1481","9850.144"
"1482","9755.379"
"1483","9674.96"
"1484","9666.097"
"1485","9726.826"
"1486","9802.736"
"1487","9840.116"
"1488","9826.43"
"1489","9782.325"
"1490","9729.068"
"1491","9683.197"
"1492","9657.822"
"1493","9663.85"
"1494","9687.112"
"1495","9697.179"
"1496","9667.461"
"1497","9612.688"
"1498","9571.328"
"1499","9576.672"
"1500","9615.612"
"1501","9651.699"
"1502","9653.859"
"1503","9630.956"
"1504","9609.251"
"1505","9609.817"
"1506","9621.876"
"1507","9622.771"
"1508","9597.016"
"1509","9565.588"
"1510","9560.966"
"1511","9603.211"
"1512","9659.969"
"1513","9685.063"
"1514","9650.04"
"1515","9588.184"
"1516","9546.231"
"1517","9553.278"
"1518","9587.913"
"1519","9619.771"
"1520","9629.555"
"1521","9623.914"
"1522","9613.188"
"1523","9602.436"
"1524","9586.61"
"1525","9559.633"
"1526","9521.6"
"1527","9482.263"
"1528","9451.979"
"1529","9431.846"
"1530","9411.255"
"1531","9379.246"
"1532","9335.13"
"1533","9288.726"
"1534","9250.058"
"1535","9224.46"
"1536","9213.412"
"1537","9217.815"
"1538","9233.175"
"1539","9251.468"
"1540","9265.743"
"1541","9278.865"
"1542","9298.721"
"1543","9330.813"
"1544","9365.202"
"1545","9385.862"
"1546","9381.845"
"1547","9366.411"
"1548","9360.029"
"1549","9375.155"
"1550","9395.964"
"1551","9400.41"
"1552","9377.107"
"1553","9342.522"
"1554","9317.556"
"1555","9313.095"
"1556","9320.545"
"1557","9329.137"
"1558","9331.958"
"1559","9327.715"
"1560","9315.765"
"1561","9301.118"
"1562","9294.924"
"1563","9307.718"
"1564","9335.037"
"1565","9360.347"
"1566","9368.106"
"1567","9356.81"
"1568","9333.238"
"1569","9303.822"
"1570","9271.786"
"1571","9238.985"
"1572","9208.338"
"1573","9187.754"
"1574","9186.64"
"1575","9208.653"
"1576","9238.683"
"1577","9257.817"
"1578","9256.176"
"1579","9244.225"
"1580","9235.096"
"1581","9233.41"
"1582","9230.45"
"1583","9216.767"
"1584","9195.694"
"1585","9184.633"
"1586","9200.035"
"1587","9233.086"
"1588","9255.524"
"1589","9243.021"
"1590","9211.354"
"1591","9197.517"
"1592","9228.972"
"1593","9277.749"
"1594","9296.278"
"1595","9254.28"
"1596","9184.918"
"1597","9135.838"
"1598","9135.299"
"1599","9165.625"
"1600","9202.57"
"1601","9229.026"
"1602","9239.046"
"1603","9228.154"
"1604","9204.759"
"1605","9190.646"
"1606","9205.969"
"1607","9242.032"
"1608","9270.297"
"1609","9266.989"
"1610","9246.159"
"1611","9238.659"
"1612","9265.227"
"1613","9301.413"
"1614","9310.297"
"1615","9274.804"
"1616","9231.442"
"1617","9225.287"
"1618","9268.72"
"1619","9318.985"
"1620","9329.486"
"1621","9292.829"
"1622","9243.57"
"1623","9215.77"
"1624","9211.241"
"1625","9210.003"
"1626","9195.895"
"1627","9181.668"
"1628","9192.108"
"1629","9242.708"
"1630","9312.328"
"1631","9370.888"
"1632","9397.668"
"1633","9393.468"
"1634","9362.286"
"1635","9317.161"
"1636","9283.609"
"1637","9286.332"
"1638","9319.662"
"1639","9352.352"
"1640","9356.206"
"1641","9336.022"
"1642","9313.23"
"1643","9307.241"
"1644","9327.341"
"1645","9379.899"
"1646","9460.209"
"1647","9535.087"
"1648","9567.313"
"1649","9547.276"
"1650","9506.314"
"1651","9477.938"
"1652","9474.392"
"1653","9489.417"
"1654","9516.28"
"1655","9549.523"
"1656","9584.324"
"1657","9615.508"
"1658","9636.368"
"1659","9639.767"
"1660","9617.506"
"1661","9558.918"
"1662","9453.697"
"1663","9320.563"
"1664","9216.549"
"1665","9196.93"
"1666","9253.232"
"1667","9329.364"
"1668","9373.874"
"1669","9374.628"
"1670","9335.594"
"1671","9266.646"
"1672","9197.501"
"1673","9161.865"
"1674","9167.8"
"1675","9177.447"
"1676","9150.015"
"1677","9086.782"
"1678","9030.21"
"1679","9018.724"
"1680","9038.225"
"1681","9046.749"
"1682","9014.15"
"1683","8962.754"
"1684","8929.02"
"1685","8928.353"
"1686","8930.427"
"1687","8900.002"
"1688","8835.159"
"1689","8772.009"
"1690","8745.717"
"1691","8758.672"
"1692","8793.481"
"1693","8832.713"
"1694","8860.188"
"1695","8860.121"
"1696","8827.308"
"1697","8781.225"
"1698","8744.393"
"1699","8723.424"
"1700","8706.075"
"1701","8681.325"
"1702","8663.221"
"1703","8681.088"
"1704","8751.186"
"1705","8826.757"
"1706","8842.563"
"1707","8772.656"
"1708","8678.136"
"1709","8630.031"
"1710","8648.637"
"1711","8698.57"
"1712","8743.818"
"1713","8769.69"
"1714","8773.115"
"1715","8753.957"
"1716","8723.475"
"1717","8695.752"
"1718","8675.524"
"1719","8650.143"
"1720","8606.415"
"1721","8558.084"
"1722","8543.308"
"1723","8592.117"
"1724","8670.241"
"1725","8715.552"
"1726","8690.628"
"1727","8634.006"
"1728","8598.099"
"1729","8605.07"
"1730","8634.65"
"1731","8664.505"
"1732","8686.215"
"1733","8700.633"
"1734","8709.082"
"1735","8714.368"
"1736","8719.726"
"1737","8725.951"
"1738","8728.842"
"1739","8723.945"
"1740","8714.721"
"1741","8712.134"
"1742","8724.917"
"1743","8743.859"
"1744","8752.012"
"1745","8739.479"
"1746","8716.805"
"1747","8697.932"
"1748","8686.682"
"1749","8674.097"
"1750","8652.021"
"1751","8628.48"
"1752","8620.735"
"1753","8638.042"
"1754","8658.774"
"1755","8654.295"
"1756","8618.745"
"1757","8582.377"
"1758","8575.678"
"1759","8589.501"
"1760","8586.861"
"1761","8542.195"
"1762","8486.27"
"1763","8466.091"
"1764","8499.162"
"1765","8547.679"
"1766","8569.483"
"1767","8551.624"
"1768","8504.764"
"1769","8441.987"
"1770","8385.621"
"1771","8361.019"
"1772","8377.277"
"1773","8409.676"
"1774","8430.411"
"1775","8433.369"
"1776","8431.389"
"1777","8436.304"
"1778","8450.382"
"1779","8472.475"
"1780","8500.007"
"1781","8527.354"
"1782","8548.561"
"1783","8559.216"
"1784","8556.28"
"1785","8538.667"
"1786","8516.144"
"1787","8502.321"
"1788","8505.21"
"1789","8521.032"
"1790","8543.96"
"1791","8558.759"
"1792","8542.209"
"1793","8480.954"
"1794","8415.271"
"1795","8402.798"
"1796","8460.172"
"1797","8525.369"
"1798","8532.214"
"1799","8486.188"
"1800","8447.292"
"1801","8459.696"
"1802","8488.86"
"1803","8478.372"
"1804","8413.25"
"1805","8346.587"
"1806","8332.892"
"1807","8368.873"
"1808","8414.204"
"1809","8436.829"
"1810","8437.494"
"1811","8424.492"
"1812","8408.281"
"1813","8402.176"
"1814","8416.66"
"1815","8436.321"
"1816","8432.681"
"1817","8391.618"
"1818","8339.006"
"1819","8306.728"
"1820","8305.813"
"1821","8326.195"
"1822","8356.1"
"1823","8379.325"
"1824","8378.101"
"1825","8347.717"
"1826","8309.252"
"1827","8285.727"
"1828","8284.731"
"1829","8302.666"
"1830","8331.72"
"1831","8348.472"
"1832","8326.223"
"1833","8265.674"
"1834","8204.378"
"1835","8178.371"
"1836","8189.765"
"1837","8224.255"
"1838","8268.022"
"1839","8308.788"
"1840","8334.896"
"1841","8342.506"
"1842","8334.585"
"1843","8315.527"
"1844","8295.257"
"1845","8285.229"
"1846","8289.981"
"1847","8303.531"
"1848","8319.106"
"1849","8330.808"
"1850","8333.197"
"1851","8324.62"
"1852","8313.386"
"1853","8308.645"
"1854","8304.547"
"1855","8281.906"
"1856","8229.89"
"1857","8178.622"
"1858","8169.471"
"1859","8210.024"
"1860","8259.066"
"1861","8276.222"
"1862","8259.616"
"1863","8226.071"
"1864","8192.731"
"1865","8177.113"
"1866","8194.537"
"1867","8226.07"
"1868","8226.491"
"1869","8167.742"
"1870","8089.199"
"1871","8045.107"
"1872","8055.852"
"1873","8102.324"
"1874","8163.268"
"1875","8218.243"
"1876","8247.266"
"1877","8246.931"
"1878","8242.624"
"1879","8259.65"
"1880","8294.321"
"1881","8326.76"
"1882","8340.346"
"1883","8327.35"
"1884","8282.772"
"1885","8222.953"
"1886","8181.324"
"1887","8182.271"
"1888","8214.249"
"1889","8257.373"
"1890","8294.881"
"1891","8313.481"
"1892","8302.63"
"1893","8265.789"
"1894","8211.358"
"1895","8159.648"
"1896","8148.837"
"1897","8207.774"
"1898","8282.625"
"1899","8281.953"
"1900","8178.65"
"1901","8074.512"
"1902","8074.837"
"1903","8156.097"
"1904","8216.971"
"1905","8197.751"
"1906","8150.564"
"1907","8141.071"
"1908","8165.836"
"1909","8168.298"
"1910","8115.768"
"1911","8060.431"
"1912","8069.179"
"1913","8141.539"
"1914","8213.056"
"1915","8231.848"
"1916","8210.175"
"1917","8176.742"
"1918","8147.05"
"1919","8121.514"
"1920","8101.077"
"1921","8093.577"
"1922","8108.708"
"1923","8140.139"
"1924","8160.055"
"1925","8146.372"
"1926","8121.594"
"1927","8124.479"
"1928","8157.408"
"1929","8166.785"
"1930","8106.811"
"1931","8021.416"
"1932","7992.554"
"1933","8042.073"
"1934","8088.072"
"1935","8053.02"
"1936","7977.573"
"1937","7958.358"
"1938","8027.826"
"1939","8097.086"
"1940","8077.186"
"1941","7997.489"
"1942","7948.053"
"1943","7974.071"
"1944","8029.851"
"1945","8063.516"
"1946","8067.254"
"1947","8057.028"
"1948","8043.18"
"1949","8023.877"
"1950","7997.4"
"1951","7977.441"
"1952","7986.126"
"1953","8025.125"
"1954","8053.139"
"1955","8029.563"
"1956","7972.677"
"1957","7933.097"
"1958","7937.313"
"1959","7961.346"
"1960","7977.061"
"1961","7975.821"
"1962","7959.448"
"1963","7935.621"
"1964","7923.331"
"1965","7938.951"
"1966","7964.832"
"1967","7966.358"
"1968","7939.936"
"1969","7939.327"
"1970","8011.625"
"1971","8103.488"
"1972","8115.552"
"1973","8019.21"
"1974","7905.018"
"1975","7861.242"
"1976","7880.965"
"1977","7917.818"
"1978","7942.92"
"1979","7953.701"
"1980","7950.446"
"1981","7937.638"
"1982","7921.117"
"1983","7899.781"
"1984","7863.55"
"1985","7808.809"
"1986","7766.728"
"1987","7777.573"
"1988","7835.246"
"1989","7882.65"
"1990","7875.548"
"1991","7832.406"
"1992","7786.667"
"1993","7755.565"
"1994","7741.559"
"1995","7741.694"
"1996","7737.453"
"1997","7709.116"
"1998","7664.598"
"1999","7632.144"
"2000","7624.565"
"2001","7614.911"
"2002","7575.661"
"2003","7535.688"
"2004","7556.191"
"2005","7652.566"
"2006","7751.771"
"2007","7781.678"
"2008","7750.761"
"2009","7702.65"
"2010","7664.087"
"2011","7637.107"
"2012","7619.39"
"2013","7596.042"
"2014","7549.194"
"2015","7490.359"
"2016","7462.583"
"2017","7492.487"
"2018","7541.281"
"2019","7558.378"
"2020","7541.016"
"2021","7523.673"
"2022","7530.878"
"2023","7559.66"
"2024","7601.081"
"2025","7629.962"
"2026","7612.534"
"2027","7545.238"
"2028","7476.44"
"2029","7448.809"
"2030","7439.604"
"2031","7403.286"
"2032","7338.526"
"2033","7295.614"
"2034","7308.453"
"2035","7337.285"
"2036","7328.912"
"2037","7293.503"
"2038","7290.513"
"2039","7345.313"
"2040","7398.634"
"2041","7387.97"
"2042","7329.68"
"2043","7279.221"
"2044","7259.592"
"2045","7244.312"
"2046","7213.262"
"2047","7198.13"
"2048","7243.458"
"2049","7327.8"
"2050","7367.112"
"2051","7311.174"
"2052","7214.407"
"2053","7145.291"
"2054","7123.721"
"2055","7141.33"
"2056","7182.562"
"2057","7220.391"
"2058","7231.399"
"2059","7218.204"
"2060","7192.059"
"2061","7161.371"
"2062","7131.696"
"2063","7109.348"
"2064","7103.165"
"2065","7120.031"
"2066","7142.44"
"2067","7139.172"
"2068","7106.058"
"2069","7083.212"
"2070","7101.246"
"2071","7122.323"
"2072","7089.993"
"2073","7004.649"
"2074","6918.366"
"2075","6873.358"
"2076","6881.309"
"2077","6943.099"
"2078","7010.194"
"2079","7011.079"
"2080","6937.379"
"2081","6866.507"
"2082","6858.429"
"2083","6879.541"
"2084","6876.969"
"2085","6850.412"
"2086","6837.057"
"2087","6852.09"
"2088","6866.493"
"2089","6852.389"
"2090","6818.121"
"2091","6784.437"
"2092","6758.79"
"2093","6735.576"
"2094","6711.046"
"2095","6687.84"
"2096","6669.865"
"2097","6662.622"
"2098","6672.106"
"2099","6693.393"
"2100","6707.639"
"2101","6701.719"
"2102","6685.811"
"2103","6673.764"
"2104","6663.624"
"2105","6643.963"
"2106","6617.771"
"2107","6611.014"
"2108","6643.778"
"2109","6701.335"
"2110","6758.232"
"2111","6772.896"
"2112","6692.382"
"2113","6520.373"
"2114","6366.521"
"2115","6327.367"
"2116","6370.342"
"2117","6423.502"
"2118","6452.717"
"2119","6455.519"
"2120","6437.174"
"2121","6417.086"
"2122","6415.598"
"2123","6447.667"
"2124","6523.818"
"2125","6605.095"
"2126","6608.047"
"2127","6504.586"
"2128","6394.052"
"2129","6371.236"
"2130","6396.695"
"2131","6384.452"
"2132","6327.742"
"2133","6293.417"
"2134","6317.728"
"2135","6361.175"
"2136","6379.452"
"2137","6362.888"
"2138","6315.457"
"2139","6256.157"
"2140","6217.553"
"2141","6214.577"
"2142","6222.688"
"2143","6217.424"
"2144","6204.487"
"2145","6199.395"
"2146","6204.02"
"2147","6208.662"
"2148","6204.389"
"2149","6184.583"
"2150","6145.951"
"2151","6100.584"
"2152","6065.135"
"2153","6052.02"
"2154","6070.214"
"2155","6108.035"
"2156","6118.444"
"2157","6068.267"
"2158","5997.833"
"2159","5961.313"
"2160","5948.95"
"2161","5911.556"
"2162","5854.208"
"2163","5860.15"
"2164","5968.86"
"2165","6052.901"
"2166","5973.808"
"2167","5800.688"
"2168","5703.792"
"2169","5730.485"
"2170","5788.629"
"2171","5810.076"
"2172","5807.021"
"2173","5799.697"
"2174","5780.368"
"2175","5732.713"
"2176","5677.136"
"2177","5665.057"
"2178","5712.984"
"2179","5770.842"
"2180","5791.927"
"2181","5775.751"
"2182","5734.18"
"2183","5678.64"
"2184","5620.42"
"2185","5575.031"
"2186","5563.422"
"2187","5591.572"
"2188","5621.594"
"2189","5614.448"
"2190","5576.608"
"2191","5533.137"
"2192","5505.715"
"2193","5512.72"
"2194","5544.229"
"2195","5538.349"
"2196","5453.986"
"2197","5358.925"
"2198","5338.468"
"2199","5374.017"
"2200","5390.192"
"2201","5372.905"
"2202","5380.013"
"2203","5435.153"
"2204","5469.141"
"2205","5420.707"
"2206","5346.617"
"2207","5334.512"
"2208","5355.457"
"2209","5300.474"
"2210","5163.958"
"2211","5088.919"
"2212","5154.795"
"2213","5220.748"
"2214","5141.04"
"2215","5000.753"
"2216","4966.69"
"2217","5041.418"
"2218","5096.083"
"2219","5066.948"
"2220","4999.669"
"2221","4938.816"
"2222","4893.53"
"2223","4863.641"
"2224","4833.783"
"2225","4785.62"
"2226","4762.715"
"2227","4859.645"
"2228","5065.757"
"2229","5195.619"
"2230","5123.581"
"2231","4975.227"
"2232","4903.16"
"2233","4886.255"
"2234","4834.927"
"2235","4747.605"
"2236","4694.498"
"2237","4695.914"
"2238","4691.255"
"2239","4637.87"
"2240","4569.254"
"2241","4527.515"
"2242","4517.868"
"2243","4530.963"
"2244","4551.858"
"2245","4561.671"
"2246","4549.313"
"2247","4514.47"
"2248","4463.674"
"2249","4419.013"
"2250","4397.709"
"2251","4379.247"
"2252","4334.251"
"2253","4267.703"
"2254","4204.821"
"2255","4154.771"
"2256","4108.743"
"2257","4061.2"
"2258","4015.051"
"2259","3974.681"
"2260","3946.209"
"2261","3933.682"
"2262","3922.305"
"2263","3889.256"
"2264","3822.106"
"2265","3717.691"
"2266","3606.146"
"2267","3565.626"
"2268","3625.987"
"2269","3679.204"
"2270","3623.307"
"2271","3500.488"
"2272","3392.692"
"2273","3330.444"
"2274","3314.035"
"2275","3317.673"
"2276","3290.531"
"2277","3216.042"
"2278","3138.239"
"2279","3089.283"
"2280","3046.449"
"2281","2982.522"
"2282","2904.468"
"2283","2831.867"
"2284","2790.518"
"2285","2807.76"
"2286","2852.22"
"2287","2831.539"
"2288","2716.293"
"2289","2594.272"
"2290","2530.986"
"2291","2484.825"
"2292","2404.698"
"2293","2302.854"
"2294","2212.484"
"2295","2155.69"
"2296","2146.333"
"2297","2160.711"
"2298","2138.568"
"2299","2053.599"
"2300","1937.565"
