,"Scan 01189"
"400","11452.76"
"401","11482.97"
"402","11489.96"
"403","11462.04"
"404","11412.79"
"405","11363.82"
"406","11336.58"
"407","11348.75"
"408","11388.43"
"409","11429.61"
"410","11446.32"
"411","11415.32"
"412","11345.96"
"413","11270.26"
"414","11220.45"
"415","11227.08"
"416","11288.43"
"417","11371.29"
"418","11441.37"
"419","11465.25"
"420","11436.57"
"421","11385.28"
"422","11343.67"
"423","11343.63"
"424","11395.72"
"425","11471.6"
"426","11538.88"
"427","11565.48"
"428","11534.29"
"429","11465.39"
"430","11384.41"
"431","11316.82"
"432","11281.77"
"433","11277.51"
"434","11297.92"
"435","11336.93"
"436","11387.65"
"437","11439.4"
"438","11480.48"
"439","11499.29"
"440","11487.07"
"441","11451.74"
"442","11407.29"
"443","11367.64"
"444","11344.88"
"445","11337.82"
"446","11339"
"447","11341.02"
"448","11337.24"
"449","11328.52"
"450","11320.04"
"451","11317"
"452","11324.05"
"453","11339.29"
"454","11356.21"
"455","11368.23"
"456","11369.2"
"457","11358.8"
"458","11341.59"
"459","11322.27"
"460","11305.43"
"461","11294.58"
"462","11292.12"
"463","11300.39"
"464","11321.42"
"465","11348.97"
"466","11367.53"
"467","11361.19"
"468","11314.65"
"469","11231.72"
"470","11140.29"
"471","11069.65"
"472","11048.41"
"473","11081.41"
"474","11140.06"
"475","11193.44"
"476","11211.14"
"477","11183.55"
"478","11133.14"
"479","11085.01"
"480","11063.9"
"481","11077.61"
"482","11105.71"
"483","11125.22"
"484","11113.46"
"485","11064.04"
"486","10999.53"
"487","10945.33"
"488","10926.55"
"489","10951.89"
"490","10999.5"
"491","11044.31"
"492","11061.54"
"493","11039.83"
"494","10993.59"
"495","10940.11"
"496","10896.46"
"497","10870.41"
"498","10851.61"
"499","10827.68"
"500","10786.37"
"501","10724.36"
"502","10655.59"
"503","10595.96"
"504","10561.15"
"505","10556.88"
"506","10569.8"
"507","10584.45"
"508","10585.57"
"509","10565.85"
"510","10532.67"
"511","10494.94"
"512","10461.48"
"513","10436.33"
"514","10415.18"
"515","10392.87"
"516","10364.33"
"517","10328.44"
"518","10290.54"
"519","10256.59"
"520","10232.39"
"521","10218.36"
"522","10206.73"
"523","10189.04"
"524","10157.11"
"525","10111.86"
"526","10066.83"
"527","10036.45"
"528","10034.67"
"529","10061.9"
"530","10101.67"
"531","10136.53"
"532","10149.61"
"533","10137.46"
"534","10111.43"
"535","10083.59"
"536","10065.48"
"537","10058.94"
"538","10056.43"
"539","10050.09"
"540","10032.61"
"541","10005.3"
"542","9976.671"
"543","9955.391"
"544","9949.25"
"545","9955.143"
"546","9962.328"
"547","9959.964"
"548","9938.79"
"549","9905.23"
"550","9874.838"
"551","9863.198"
"552","9883.026"
"553","9924.687"
"554","9967.954"
"555","9992.63"
"556","9982.634"
"557","9946.785"
"558","9903.33"
"559","9870.445"
"560","9862.613"
"561","9877.083"
"562","9906.007"
"563","9941.575"
"564","9975.95"
"565","10001.06"
"566","10008.84"
"567","9991.228"
"568","9946.4"
"569","9889.399"
"570","9838.056"
"571","9810.048"
"572","9812.796"
"573","9832.741"
"574","9853.826"
"575","9860.232"
"576","9846.426"
"577","9822.608"
"578","9800.278"
"579","9790.601"
"580","9796.29"
"581","9810.439"
"582","9825.635"
"583","9834.811"
"584","9836.366"
"585","9833.29"
"586","9828.696"
"587","9825.608"
"588","9826.113"
"589","9831.738"
"590","9843.984"
"591","9863.41"
"592","9883.861"
"593","9896.337"
"594","9891.856"
"595","9865.134"
"596","9828.066"
"597","9797.53"
"598","9790.328"
"599","9815.79"
"600","9860.158"
"601","9905.271"
"602","9933.089"
"603","9934.166"
"604","9916.715"
"605","9891.089"
"606","9867.506"
"607","9851.259"
"608","9840.873"
"609","9834.367"
"610","9829.788"
"611","9825.472"
"612","9820.02"
"613","9812.049"
"614","9800.465"
"615","9787.199"
"616","9776.05"
"617","9770.814"
"618","9774.027"
"619","9780.233"
"620","9780.872"
"621","9767.412"
"622","9735.126"
"623","9693.73"
"624","9656.337"
"625","9635.995"
"626","9638.933"
"627","9655.789"
"628","9675.033"
"629","9685.311"
"630","9681.217"
"631","9665.776"
"632","9642.65"
"633","9615.554"
"634","9589.562"
"635","9570.931"
"636","9565.94"
"637","9580.031"
"638","9611.154"
"639","9653.255"
"640","9700.261"
"641","9746.186"
"642","9785.379"
"643","9812.311"
"644","9821.468"
"645","9810.23"
"646","9783.959"
"647","9749.369"
"648","9713.135"
"649","9680.615"
"650","9655.114"
"651","9639.735"
"652","9637.364"
"653","9646.596"
"654","9662.06"
"655","9678.268"
"656","9690.311"
"657","9698.398"
"658","9705.428"
"659","9714.305"
"660","9727.342"
"661","9744.106"
"662","9763.392"
"663","9783.989"
"664","9804.168"
"665","9820.912"
"666","9831.037"
"667","9831.453"
"668","9822.681"
"669","9809.896"
"670","9798.576"
"671","9793.833"
"672","9796.169"
"673","9802.799"
"674","9810.887"
"675","9817.454"
"676","9818.657"
"677","9810.336"
"678","9788.342"
"679","9751.854"
"680","9709.86"
"681","9673.135"
"682","9652.321"
"683","9652.021"
"684","9667.771"
"685","9694.354"
"686","9726.526"
"687","9758.21"
"688","9782.685"
"689","9793.232"
"690","9785.017"
"691","9765.373"
"692","9746.47"
"693","9740.452"
"694","9753.797"
"695","9776.058"
"696","9793.648"
"697","9793.249"
"698","9773.093"
"699","9748.241"
"700","9735.04"
"701","9748.365"
"702","9783.248"
"703","9820.282"
"704","9839.774"
"705","9826.89"
"706","9793.741"
"707","9761.769"
"708","9752.35"
"709","9776.313"
"710","9818.32"
"711","9859.064"
"712","9879.692"
"713","9873.906"
"714","9850.158"
"715","9817.712"
"716","9785.432"
"717","9758.363"
"718","9739.424"
"719","9731.494"
"720","9736.52"
"721","9752.73"
"722","9777.446"
"723","9807.98"
"724","9840.685"
"725","9870.237"
"726","9891.164"
"727","9898.386"
"728","9893.004"
"729","9881.02"
"730","9868.567"
"731","9861.216"
"732","9861.401"
"733","9870.448"
"734","9889.672"
"735","9917.949"
"736","9948.51"
"737","9973.784"
"738","9986.459"
"739","9985.023"
"740","9973.902"
"741","9957.778"
"742","9941.007"
"743","9925.508"
"744","9912.121"
"745","9901.67"
"746","9895.3"
"747","9895.036"
"748","9903.07"
"749","9921.462"
"750","9948.212"
"751","9976.455"
"752","9999.045"
"753","10009.52"
"754","10007.22"
"755","9994.484"
"756","9973.671"
"757","9949.138"
"758","9931.645"
"759","9933.213"
"760","9965.452"
"761","10024.81"
"762","10088.25"
"763","10131.52"
"764","10133.65"
"765","10103.73"
"766","10066.87"
"767","10048.27"
"768","10063.49"
"769","10096.86"
"770","10126.49"
"771","10131.05"
"772","10108.34"
"773","10080.29"
"774","10070.28"
"775","10098.32"
"776","10155.35"
"777","10217.61"
"778","10261.27"
"779","10272.35"
"780","10266"
"781","10262.64"
"782","10282.04"
"783","10325.23"
"784","10372.11"
"785","10401.42"
"786","10395.47"
"787","10361.92"
"788","10319.57"
"789","10287.2"
"790","10276.68"
"791","10282.85"
"792","10297.96"
"793","10314.52"
"794","10329.25"
"795","10342.87"
"796","10356.24"
"797","10369.69"
"798","10380.53"
"799","10385.03"
"800","10379.51"
"801","10364.66"
"802","10349.43"
"803","10343.66"
"804","10356.19"
"805","10382.72"
"806","10409.58"
"807","10422.94"
"808","10413.52"
"809","10389.99"
"810","10365.35"
"811","10352.48"
"812","10357.33"
"813","10376.62"
"814","10406.37"
"815","10442.57"
"816","10480.77"
"817","10516.3"
"818","10544.51"
"819","10561.28"
"820","10563.96"
"821","10550.1"
"822","10517.71"
"823","10473.4"
"824","10431.57"
"825","10406.86"
"826","10410.53"
"827","10437.33"
"828","10476.97"
"829","10519.18"
"830","10556.3"
"831","10584.79"
"832","10601.44"
"833","10603.59"
"834","10593.59"
"835","10576.53"
"836","10557.54"
"837","10540.45"
"838","10525.5"
"839","10512.34"
"840","10500.75"
"841","10493.56"
"842","10496.38"
"843","10514.93"
"844","10551.83"
"845","10594.65"
"846","10626.5"
"847","10630.73"
"848","10605.68"
"849","10571.89"
"850","10551.73"
"851","10564.43"
"852","10603.24"
"853","10648.46"
"854","10680.32"
"855","10687.27"
"856","10677.23"
"857","10660.94"
"858","10648.62"
"859","10642.99"
"860","10640.93"
"861","10639.21"
"862","10635.84"
"863","10633.57"
"864","10636.26"
"865","10647.67"
"866","10668.36"
"867","10695.17"
"868","10724.77"
"869","10753.83"
"870","10779.17"
"871","10797.64"
"872","10806.16"
"873","10805.73"
"874","10804.15"
"875","10809.88"
"876","10830.09"
"877","10860.55"
"878","10890.93"
"879","10910.91"
"880","10915.49"
"881","10912.47"
"882","10911.5"
"883","10921.59"
"884","10942.78"
"885","10968.48"
"886","10991.92"
"887","11007.72"
"888","11015.02"
"889","11013.92"
"890","11004.79"
"891","10994.18"
"892","10994.75"
"893","11019.43"
"894","11075.83"
"895","11146.77"
"896","11207.9"
"897","11235.36"
"898","11223.35"
"899","11189.53"
"900","11153.13"
"901","11130.92"
"902","11124.54"
"903","11129.78"
"904","11142.42"
"905","11157.72"
"906","11170.19"
"907","11174.23"
"908","11165.44"
"909","11149.32"
"910","11136.21"
"911","11136.44"
"912","11154.15"
"913","11180.66"
"914","11205.69"
"915","11220.07"
"916","11226.44"
"917","11234.53"
"918","11254.18"
"919","11287.9"
"920","11319.71"
"921","11330.74"
"922","11304.16"
"923","11250.95"
"924","11202.16"
"925","11189.31"
"926","11230.23"
"927","11301.47"
"928","11371.83"
"929","11411.46"
"930","11414.63"
"931","11395.8"
"932","11370.07"
"933","11349.28"
"934","11333.88"
"935","11321.75"
"936","11311.03"
"937","11304.81"
"938","11310.93"
"939","11337.38"
"940","11386.42"
"941","11437.1"
"942","11462.68"
"943","11437.61"
"944","11367.09"
"945","11288.71"
"946","11241.6"
"947","11253.86"
"948","11304.4"
"949","11358.46"
"950","11382.17"
"951","11368.17"
"952","11339.29"
"953","11320.03"
"954","11328.82"
"955","11355.05"
"956","11379.42"
"957","11383.03"
"958","11362.22"
"959","11331.56"
"960","11306.7"
"961","11300.45"
"962","11311.03"
"963","11332.08"
"964","11357.23"
"965","11380.23"
"966","11394.93"
"967","11395.21"
"968","11377.34"
"969","11350.02"
"970","11325.97"
"971","11317.68"
"972","11328.24"
"973","11348.93"
"974","11370.26"
"975","11384.15"
"976","11389.96"
"977","11389.42"
"978","11384.27"
"979","11375.39"
"980","11362.64"
"981","11345.78"
"982","11326.49"
"983","11315.91"
"984","11328.28"
"985","11377.18"
"986","11456.06"
"987","11533.84"
"988","11577.95"
"989","11564.3"
"990","11510.31"
"991","11446.03"
"992","11400.97"
"993","11386.75"
"994","11394.32"
"995","11413.44"
"996","11435.3"
"997","11457.55"
"998","11479.7"
"999","11501.19"
"1000","11519.56"
"1001","11530.29"
"1002","11528.8"
"1003","11512.94"
"1004","11490.86"
"1005","11473.48"
"1006","11471.66"
"1007","11490.15"
"1008","11518.28"
"1009","11543.01"
"1010","11552.68"
"1011","11550.19"
"1012","11547.02"
"1013","11554.73"
"1014","11577.41"
"1015","11604.5"
"1016","11623.72"
"1017","11624.49"
"1018","11609.11"
"1019","11585.74"
"1020","11562.6"
"1021","11548.19"
"1022","11551.5"
"1023","11581.55"
"1024","11643.09"
"1025","11717.98"
"1026","11780.43"
"1027","11805.47"
"1028","11791.05"
"1029","11760.38"
"1030","11737.98"
"1031","11741.38"
"1032","11762.36"
"1033","11786.69"
"1034","11800.8"
"1035","11800.84"
"1036","11790.6"
"1037","11774.07"
"1038","11756.65"
"1039","11747.21"
"1040","11755.11"
"1041","11787.98"
"1042","11837.25"
"1043","11885.73"
"1044","11916.33"
"1045","11922.84"
"1046","11916.72"
"1047","11911.08"
"1048","11916.57"
"1049","11930.51"
"1050","11945.66"
"1051","11955.01"
"1052","11957.33"
"1053","11957.42"
"1054","11960.39"
"1055","11968.2"
"1056","11972.67"
"1057","11963.58"
"1058","11932.2"
"1059","11887.76"
"1060","11851.18"
"1061","11843.5"
"1062","11873.32"
"1063","11925.63"
"1064","11982.75"
"1065","12029.26"
"1066","12063.85"
"1067","12090.54"
"1068","12113.21"
"1069","12130.59"
"1070","12135.72"
"1071","12121.34"
"1072","12085.71"
"1073","12045.34"
"1074","12020.48"
"1075","12029.35"
"1076","12066.92"
"1077","12113.49"
"1078","12149.25"
"1079","12163.68"
"1080","12162.53"
"1081","12153.18"
"1082","12142"
"1083","12129.89"
"1084","12115.92"
"1085","12099.32"
"1086","12082.19"
"1087","12069.39"
"1088","12065.87"
"1089","12073.1"
"1090","12083.6"
"1091","12088.46"
"1092","12080.04"
"1093","12060.78"
"1094","12037.98"
"1095","12018.91"
"1096","12008.71"
"1097","12009.85"
"1098","12024.6"
"1099","12051.62"
"1100","12076.76"
"1101","12083.05"
"1102","12055.75"
"1103","12005.29"
"1104","11957.82"
"1105","11939.48"
"1106","11959.42"
"1107","11999.52"
"1108","12039.17"
"1109","12062.05"
"1110","12070.79"
"1111","12073.33"
"1112","12077.2"
"1113","12084.75"
"1114","12094.45"
"1115","12104.63"
"1116","12112.14"
"1117","12110.94"
"1118","12094.68"
"1119","12060.26"
"1120","12021.04"
"1121","11995.58"
"1122","12001.13"
"1123","12032.72"
"1124","12067.36"
"1125","12081.6"
"1126","12067.25"
"1127","12046.42"
"1128","12044.8"
"1129","12080.85"
"1130","12134.51"
"1131","12173.05"
"1132","12165.76"
"1133","12116.21"
"1134","12056.07"
"1135","12017.71"
"1136","12017.35"
"1137","12039.71"
"1138","12065.87"
"1139","12080.87"
"1140","12089.79"
"1141","12103.95"
"1142","12133.54"
"1143","12171.69"
"1144","12198.56"
"1145","12194.14"
"1146","12153.6"
"1147","12098.72"
"1148","12054"
"1149","12038.53"
"1150","12047.9"
"1151","12071.31"
"1152","12098.62"
"1153","12127"
"1154","12158.45"
"1155","12194.91"
"1156","12232.77"
"1157","12260.31"
"1158","12265.16"
"1159","12241.06"
"1160","12202.69"
"1161","12169.16"
"1162","12157.38"
"1163","12165.24"
"1164","12180.93"
"1165","12192.92"
"1166","12199.62"
"1167","12210.6"
"1168","12236"
"1169","12276.96"
"1170","12312.45"
"1171","12318.07"
"1172","12276.25"
"1173","12209.58"
"1174","12155.19"
"1175","12147.96"
"1176","12186.61"
"1177","12241.22"
"1178","12281.25"
"1179","12292.71"
"1180","12289.16"
"1181","12286.78"
"1182","12296.84"
"1183","12312.46"
"1184","12322.55"
"1185","12317.67"
"1186","12302.84"
"1187","12290.54"
"1188","12292.92"
"1189","12313.2"
"1190","12345.07"
"1191","12381.75"
"1192","12415.66"
"1193","12437.44"
"1194","12437.49"
"1195","12410.86"
"1196","12374.62"
"1197","12352.38"
"1198","12365"
"1199","12402.74"
"1200","12436.86"
"1201","12439.08"
"1202","12406.58"
"1203","12367.8"
"1204","12353.04"
"1205","12375.77"
"1206","12408.17"
"1207","12416.19"
"1208","12374.87"
"1209","12306.66"
"1210","12249.24"
"1211","12237.33"
"1212","12270.44"
"1213","12325.32"
"1214","12378.6"
"1215","12417.37"
"1216","12441.51"
"1217","12451.76"
"1218","12452.14"
"1219","12454.54"
"1220","12471.99"
"1221","12512.72"
"1222","12561.72"
"1223","12597.05"
"1224","12599.3"
"1225","12575.16"
"1226","12546.51"
"1227","12534.78"
"1228","12543.78"
"1229","12558.33"
"1230","12562.37"
"1231","12548.11"
"1232","12524.02"
"1233","12500.53"
"1234","12486.68"
"1235","12486.38"
"1236","12502.3"
"1237","12535.22"
"1238","12571.73"
"1239","12592"
"1240","12577.78"
"1241","12537.58"
"1242","12501.79"
"1243","12500.93"
"1244","12540.5"
"1245","12590.15"
"1246","12616.76"
"1247","12602.15"
"1248","12566.43"
"1249","12535.78"
"1250","12531.22"
"1251","12549.19"
"1252","12578.8"
"1253","12609.7"
"1254","12636.28"
"1255","12655.49"
"1256","12664.58"
"1257","12666.47"
"1258","12669.26"
"1259","12681.08"
"1260","12700.12"
"1261","12709.37"
"1262","12690.51"
"1263","12638.23"
"1264","12581.51"
"1265","12554.92"
"1266","12583.22"
"1267","12645.29"
"1268","12706.67"
"1269","12736.4"
"1270","12733.11"
"1271","12710.21"
"1272","12681.13"
"1273","12657.53"
"1274","12649.62"
"1275","12667.23"
"1276","12706.19"
"1277","12743.79"
"1278","12756.11"
"1279","12732.45"
"1280","12690.48"
"1281","12651.53"
"1282","12631.08"
"1283","12623.65"
"1284","12619.12"
"1285","12608.91"
"1286","12593.67"
"1287","12577.46"
"1288","12564.3"
"1289","12557.42"
"1290","12559.59"
"1291","12573.3"
"1292","12595.42"
"1293","12617.64"
"1294","12631.6"
"1295","12635.07"
"1296","12634.44"
"1297","12636.76"
"1298","12647.03"
"1299","12665.92"
"1300","12693.49"
"1301","12727.5"
"1302","12757.87"
"1303","12772.84"
"1304","12763.88"
"1305","12739.77"
"1306","12715.11"
"1307","12703.11"
"1308","12705.18"
"1309","12716.68"
"1310","12733.08"
"1311","12751.83"
"1312","12771.92"
"1313","12792.44"
"1314","12813.76"
"1315","12837.7"
"1316","12866.05"
"1317","12893.67"
"1318","12904.49"
"1319","12881.47"
"1320","12820.38"
"1321","12746.4"
"1322","12688.87"
"1323","12668.39"
"1324","12675.97"
"1325","12696.35"
"1326","12715.88"
"1327","12728.97"
"1328","12732.54"
"1329","12724.98"
"1330","12715.56"
"1331","12718.44"
"1332","12745.99"
"1333","12789.9"
"1334","12828.94"
"1335","12842.53"
"1336","12826.17"
"1337","12789.3"
"1338","12741.85"
"1339","12694.72"
"1340","12659.96"
"1341","12649.52"
"1342","12664.13"
"1343","12686.72"
"1344","12698.71"
"1345","12691.39"
"1346","12677.18"
"1347","12671.26"
"1348","12683.39"
"1349","12707.76"
"1350","12735.7"
"1351","12758.99"
"1352","12771.11"
"1353","12765.96"
"1354","12740.62"
"1355","12709.09"
"1356","12691.04"
"1357","12701.95"
"1358","12726.72"
"1359","12736.74"
"1360","12707.28"
"1361","12652.64"
"1362","12609.47"
"1363","12611.8"
"1364","12652.96"
"1365","12696.6"
"1366","12707.37"
"1367","12683.86"
"1368","12655.88"
"1369","12653.51"
"1370","12678.89"
"1371","12702.14"
"1372","12692.19"
"1373","12645.6"
"1374","12598.32"
"1375","12588.97"
"1376","12628.03"
"1377","12676.51"
"1378","12690.53"
"1379","12651.03"
"1380","12592.61"
"1381","12556.88"
"1382","12568.15"
"1383","12604.97"
"1384","12638.37"
"1385","12647.88"
"1386","12640.59"
"1387","12629.17"
"1388","12622.11"
"1389","12611.29"
"1390","12584.54"
"1391","12535.7"
"1392","12487.37"
"1393","12470.69"
"1394","12507.76"
"1395","12568.94"
"1396","12606.26"
"1397","12581.17"
"1398","12519.43"
"1399","12473.61"
"1400","12488.55"
"1401","12545.95"
"1402","12597.03"
"1403","12598.34"
"1404","12559.32"
"1405","12518.74"
"1406","12511.86"
"1407","12531.08"
"1408","12541.79"
"1409","12512.23"
"1410","12454.03"
"1411","12409.49"
"1412","12418.77"
"1413","12478.66"
"1414","12551.81"
"1415","12601.23"
"1416","12613.18"
"1417","12594.08"
"1418","12551.29"
"1419","12497.09"
"1420","12448.4"
"1421","12421.81"
"1422","12420.39"
"1423","12433.24"
"1424","12449.18"
"1425","12466.71"
"1426","12495.01"
"1427","12543.28"
"1428","12602.57"
"1429","12642.44"
"1430","12632.18"
"1431","12577.31"
"1432","12528.7"
"1433","12538.97"
"1434","12614.18"
"1435","12699.07"
"1436","12735.09"
"1437","12705.83"
"1438","12652.72"
"1439","12620.79"
"1440","12625.03"
"1441","12637.83"
"1442","12628.76"
"1443","12592.38"
"1444","12559.59"
"1445","12563.7"
"1446","12614.36"
"1447","12686.16"
"1448","12750.98"
"1449","12789.96"
"1450","12798.01"
"1451","12771.34"
"1452","12713.99"
"1453","12641.76"
"1454","12571.32"
"1455","12514.35"
"1456","12475.11"
"1457","12457.16"
"1458","12459.34"
"1459","12473.58"
"1460","12491.3"
"1461","12505.78"
"1462","12512.95"
"1463","12508.95"
"1464","12490.34"
"1465","12454.25"
"1466","12398.06"
"1467","12327.42"
"1468","12258.98"
"1469","12209.84"
"1470","12185.36"
"1471","12176.08"
"1472","12171.66"
"1473","12165.93"
"1474","12157.72"
"1475","12146.33"
"1476","12137.53"
"1477","12144.31"
"1478","12178.98"
"1479","12226.79"
"1480","12244.72"
"1481","12190.97"
"1482","12080.58"
"1483","11983.54"
"1484","11968.34"
"1485","12032.38"
"1486","12110.02"
"1487","12136.97"
"1488","12106.17"
"1489","12056.7"
"1490","12026.81"
"1491","12024.76"
"1492","12037.03"
"1493","12050.09"
"1494","12055.99"
"1495","12050.43"
"1496","12029.81"
"1497","11997.15"
"1498","11959.28"
"1499","11923.52"
"1500","11900.83"
"1501","11903.99"
"1502","11941.48"
"1503","11990.79"
"1504","12015.87"
"1505","11989.4"
"1506","11937.03"
"1507","11904.17"
"1508","11924.92"
"1509","11975.8"
"1510","12015.15"
"1511","12011.48"
"1512","11976.22"
"1513","11932.11"
"1514","11897.69"
"1515","11876.82"
"1516","11870.13"
"1517","11876.98"
"1518","11892.97"
"1519","11913.04"
"1520","11932.35"
"1521","11946.53"
"1522","11951.32"
"1523","11944.43"
"1524","11927.44"
"1525","11902.36"
"1526","11871.3"
"1527","11836.57"
"1528","11800.49"
"1529","11766.11"
"1530","11737.36"
"1531","11717.85"
"1532","11701.69"
"1533","11673.26"
"1534","11618.29"
"1535","11552.5"
"1536","11516.28"
"1537","11546.23"
"1538","11625.51"
"1539","11702.4"
"1540","11730.52"
"1541","11715.13"
"1542","11687.88"
"1543","11675.58"
"1544","11672.88"
"1545","11661.74"
"1546","11630.42"
"1547","11597.08"
"1548","11588.8"
"1549","11620.3"
"1550","11662.82"
"1551","11677.99"
"1552","11647.79"
"1553","11607.32"
"1554","11600.09"
"1555","11642.73"
"1556","11699.66"
"1557","11729.74"
"1558","11718.67"
"1559","11691.12"
"1560","11674.02"
"1561","11672.29"
"1562","11667.01"
"1563","11639.48"
"1564","11594.35"
"1565","11555.09"
"1566","11543.2"
"1567","11554.09"
"1568","11567.72"
"1569","11566.5"
"1570","11551.03"
"1571","11529.66"
"1572","11510.81"
"1573","11503.12"
"1574","11515.29"
"1575","11549.52"
"1576","11586.86"
"1577","11604.03"
"1578","11588.49"
"1579","11551.85"
"1580","11508.96"
"1581","11471.32"
"1582","11445.12"
"1583","11435.94"
"1584","11445.01"
"1585","11468.8"
"1586","11503.13"
"1587","11538.27"
"1588","11560.24"
"1589","11556.76"
"1590","11532.4"
"1591","11500.58"
"1592","11472.7"
"1593","11448.2"
"1594","11422.26"
"1595","11393.02"
"1596","11369.41"
"1597","11362.82"
"1598","11375.92"
"1599","11390.79"
"1600","11386.83"
"1601","11365.02"
"1602","11359.96"
"1603","11407.4"
"1604","11498"
"1605","11575.57"
"1606","11586.3"
"1607","11535.46"
"1608","11468.84"
"1609","11429.26"
"1610","11431.12"
"1611","11476.24"
"1612","11557.55"
"1613","11628.98"
"1614","11633.71"
"1615","11546.99"
"1616","11430.74"
"1617","11360.9"
"1618","11371.22"
"1619","11424.36"
"1620","11476.86"
"1621","11505.34"
"1622","11507.89"
"1623","11484.46"
"1624","11445"
"1625","11406.19"
"1626","11382.5"
"1627","11372.23"
"1628","11366.94"
"1629","11361.72"
"1630","11365.42"
"1631","11390.26"
"1632","11437.67"
"1633","11484.26"
"1634","11503.59"
"1635","11487.47"
"1636","11452.9"
"1637","11418.28"
"1638","11393.16"
"1639","11379.67"
"1640","11378.95"
"1641","11385.43"
"1642","11390.2"
"1643","11386.64"
"1644","11378.95"
"1645","11374.48"
"1646","11378.58"
"1647","11391.59"
"1648","11412.97"
"1649","11438.44"
"1650","11458.15"
"1651","11462.43"
"1652","11452.75"
"1653","11440.27"
"1654","11434.93"
"1655","11433.28"
"1656","11425.14"
"1657","11405.32"
"1658","11390.68"
"1659","11404.09"
"1660","11448.82"
"1661","11481.86"
"1662","11454.59"
"1663","11365.28"
"1664","11273.99"
"1665","11240.76"
"1666","11263.3"
"1667","11292.75"
"1668","11286.7"
"1669","11253.67"
"1670","11223.1"
"1671","11217.45"
"1672","11235.21"
"1673","11269.71"
"1674","11307.68"
"1675","11324.14"
"1676","11294.38"
"1677","11227.21"
"1678","11164.31"
"1679","11143.13"
"1680","11149.94"
"1681","11143.87"
"1682","11097.16"
"1683","11040.14"
"1684","11018.78"
"1685","11051.65"
"1686","11097.9"
"1687","11109.98"
"1688","11074.84"
"1689","11018.88"
"1690","10969.05"
"1691","10935.19"
"1692","10916.74"
"1693","10913.03"
"1694","10923.21"
"1695","10946.41"
"1696","10977.35"
"1697","11000.55"
"1698","10999.6"
"1699","10975.66"
"1700","10950.75"
"1701","10945.96"
"1702","10958.83"
"1703","10972.53"
"1704","10973.72"
"1705","10966.39"
"1706","10959.63"
"1707","10957.17"
"1708","10950.83"
"1709","10931.34"
"1710","10902.91"
"1711","10884.6"
"1712","10893.18"
"1713","10916.99"
"1714","10928.76"
"1715","10908.74"
"1716","10868.22"
"1717","10826.3"
"1718","10791.49"
"1719","10752.52"
"1720","10697.56"
"1721","10646.27"
"1722","10646.86"
"1723","10735.67"
"1724","10857.43"
"1725","10917.18"
"1726","10859.51"
"1727","10750.64"
"1728","10678.93"
"1729","10681.24"
"1730","10722.18"
"1731","10762.85"
"1732","10787.87"
"1733","10797.56"
"1734","10792.62"
"1735","10774.22"
"1736","10743.69"
"1737","10710.21"
"1738","10698.99"
"1739","10735.29"
"1740","10802.88"
"1741","10846.14"
"1742","10818.34"
"1743","10747.13"
"1744","10692.17"
"1745","10692.37"
"1746","10726.36"
"1747","10762.28"
"1748","10779.94"
"1749","10773.96"
"1750","10741.62"
"1751","10697.22"
"1752","10664.77"
"1753","10661.69"
"1754","10679.71"
"1755","10704.48"
"1756","10723.81"
"1757","10728.95"
"1758","10712.69"
"1759","10684.48"
"1760","10665.49"
"1761","10671.8"
"1762","10694.45"
"1763","10717.17"
"1764","10727.41"
"1765","10719.62"
"1766","10690.13"
"1767","10653.6"
"1768","10639.53"
"1769","10668.96"
"1770","10714.96"
"1771","10734.63"
"1772","10705.21"
"1773","10645.79"
"1774","10580.94"
"1775","10538.17"
"1776","10547.63"
"1777","10626.42"
"1778","10715.72"
"1779","10729.89"
"1780","10639.02"
"1781","10533.76"
"1782","10515.74"
"1783","10594.05"
"1784","10695.63"
"1785","10752.44"
"1786","10742.32"
"1787","10659.51"
"1788","10526.25"
"1789","10423.54"
"1790","10434.3"
"1791","10542.55"
"1792","10648.42"
"1793","10670.22"
"1794","10637.19"
"1795","10614.82"
"1796","10635.03"
"1797","10665.33"
"1798","10668.55"
"1799","10647.11"
"1800","10633.5"
"1801","10648.15"
"1802","10652.82"
"1803","10593.31"
"1804","10469.69"
"1805","10371.17"
"1806","10385.66"
"1807","10488.32"
"1808","10582.04"
"1809","10596.53"
"1810","10564.58"
"1811","10541.74"
"1812","10547.41"
"1813","10553.03"
"1814","10531.44"
"1815","10496.23"
"1816","10481.5"
"1817","10505.64"
"1818","10543.03"
"1819","10561.84"
"1820","10561.2"
"1821","10571.65"
"1822","10617.15"
"1823","10674.23"
"1824","10701.98"
"1825","10676.33"
"1826","10606.57"
"1827","10507.49"
"1828","10415.96"
"1829","10384.81"
"1830","10445.29"
"1831","10541.48"
"1832","10596.85"
"1833","10583.27"
"1834","10537.69"
"1835","10498.04"
"1836","10472.39"
"1837","10454.39"
"1838","10441.07"
"1839","10438.18"
"1840","10452.05"
"1841","10475.59"
"1842","10489.99"
"1843","10481.93"
"1844","10466.3"
"1845","10465.92"
"1846","10483.85"
"1847","10493.16"
"1848","10469.42"
"1849","10433.95"
"1850","10432.2"
"1851","10486.53"
"1852","10557.74"
"1853","10598.06"
"1854","10589.91"
"1855","10542.49"
"1856","10470.48"
"1857","10409.5"
"1858","10400.59"
"1859","10448.5"
"1860","10505.56"
"1861","10525.63"
"1862","10509.21"
"1863","10479.4"
"1864","10453.23"
"1865","10433.12"
"1866","10419.51"
"1867","10413.48"
"1868","10416.64"
"1869","10428.88"
"1870","10443.57"
"1871","10452.69"
"1872","10454.49"
"1873","10454.45"
"1874","10458.17"
"1875","10469.46"
"1876","10491.37"
"1877","10518.61"
"1878","10531.49"
"1879","10512.62"
"1880","10481.09"
"1881","10476.34"
"1882","10514.32"
"1883","10550.22"
"1884","10533.77"
"1885","10481.88"
"1886","10465.19"
"1887","10527.58"
"1888","10606.51"
"1889","10617.18"
"1890","10554.18"
"1891","10500.09"
"1892","10520.78"
"1893","10566.36"
"1894","10549.41"
"1895","10454.79"
"1896","10376.06"
"1897","10399.22"
"1898","10482.9"
"1899","10527.66"
"1900","10491.6"
"1901","10448.64"
"1902","10476.3"
"1903","10542.34"
"1904","10548.26"
"1905","10447.25"
"1906","10330.22"
"1907","10302.91"
"1908","10358.14"
"1909","10401.86"
"1910","10371.8"
"1911","10320.14"
"1912","10320.06"
"1913","10378.15"
"1914","10437.86"
"1915","10453.09"
"1916","10432.95"
"1917","10400.79"
"1918","10371.65"
"1919","10351.11"
"1920","10343.22"
"1921","10346.88"
"1922","10359.23"
"1923","10371.85"
"1924","10368.9"
"1925","10338.05"
"1926","10291.9"
"1927","10252.35"
"1928","10232.48"
"1929","10231.75"
"1930","10249.09"
"1931","10287.83"
"1932","10352.89"
"1933","10424.12"
"1934","10438.34"
"1935","10343.9"
"1936","10216.25"
"1937","10190.86"
"1938","10309.09"
"1939","10434.59"
"1940","10430.05"
"1941","10323.85"
"1942","10229.41"
"1943","10209.12"
"1944","10221.59"
"1945","10219.62"
"1946","10217.17"
"1947","10261.08"
"1948","10362.02"
"1949","10455.05"
"1950","10473.92"
"1951","10431.1"
"1952","10382.54"
"1953","10358.6"
"1954","10335.03"
"1955","10285.14"
"1956","10224.6"
"1957","10192.32"
"1958","10204.18"
"1959","10228.08"
"1960","10229"
"1961","10200.02"
"1962","10149.27"
"1963","10092.94"
"1964","10062.64"
"1965","10086.57"
"1966","10147.5"
"1967","10205.26"
"1968","10231.02"
"1969","10217.27"
"1970","10162.75"
"1971","10096.69"
"1972","10062.3"
"1973","10076.7"
"1974","10113.18"
"1975","10141.18"
"1976","10133.41"
"1977","10064.6"
"1978","9948.701"
"1979","9858.072"
"1980","9855.296"
"1981","9916.229"
"1982","9985.556"
"1983","10024.14"
"1984","10013.96"
"1985","9949.328"
"1986","9878.619"
"1987","9864.771"
"1988","9910.912"
"1989","9954.384"
"1990","9949.453"
"1991","9932.486"
"1992","9957.337"
"1993","10014.55"
"1994","10036.95"
"1995","9987.059"
"1996","9929.523"
"1997","9943.005"
"1998","10013.87"
"1999","10060.55"
"2000","10033.79"
"2001","9969.254"
"2002","9912.521"
"2003","9876.593"
"2004","9855.631"
"2005","9842.738"
"2006","9829.446"
"2007","9809.159"
"2008","9790.284"
"2009","9787.653"
"2010","9805.941"
"2011","9835.1"
"2012","9863.832"
"2013","9880.59"
"2014","9874.527"
"2015","9856.348"
"2016","9859.891"
"2017","9898.472"
"2018","9906.862"
"2019","9809.467"
"2020","9646.852"
"2021","9550.005"
"2022","9592.742"
"2023","9699.539"
"2024","9779.496"
"2025","9815.238"
"2026","9829.411"
"2027","9825.746"
"2028","9774.881"
"2029","9658.86"
"2030","9547.585"
"2031","9540.467"
"2032","9639.091"
"2033","9730.896"
"2034","9728.53"
"2035","9665.944"
"2036","9603.431"
"2037","9562.487"
"2038","9534.403"
"2039","9513.856"
"2040","9505.513"
"2041","9514.262"
"2042","9534.405"
"2043","9554.863"
"2044","9562.146"
"2045","9539.228"
"2046","9478.519"
"2047","9420.463"
"2048","9417.387"
"2049","9458.52"
"2050","9473.246"
"2051","9421.295"
"2052","9356.669"
"2053","9343.7"
"2054","9379.408"
"2055","9421.83"
"2056","9439.204"
"2057","9417.895"
"2058","9353.4"
"2059","9281.335"
"2060","9249.125"
"2061","9263.105"
"2062","9288.561"
"2063","9300.483"
"2064","9307.871"
"2065","9324.002"
"2066","9342.556"
"2067","9346.009"
"2068","9324.597"
"2069","9281.444"
"2070","9225.812"
"2071","9191.589"
"2072","9217.162"
"2073","9276.295"
"2074","9284.061"
"2075","9198.904"
"2076","9096.479"
"2077","9059.814"
"2078","9077.478"
"2079","9092.427"
"2080","9086.126"
"2081","9092.687"
"2082","9139.094"
"2083","9209.195"
"2084","9276.047"
"2085","9311.449"
"2086","9286.514"
"2087","9201.431"
"2088","9112.65"
"2089","9073.509"
"2090","9081.02"
"2091","9112.336"
"2092","9151.49"
"2093","9189.289"
"2094","9218.185"
"2095","9234.327"
"2096","9232.339"
"2097","9189.825"
"2098","9077.53"
"2099","8919.516"
"2100","8807.83"
"2101","8806.979"
"2102","8869.063"
"2103","8925.666"
"2104","8953.978"
"2105","8959.256"
"2106","8952.396"
"2107","8952.503"
"2108","8970.084"
"2109","8974.749"
"2110","8927.919"
"2111","8834.111"
"2112","8729.582"
"2113","8648.294"
"2114","8618.393"
"2115","8655.39"
"2116","8712.612"
"2117","8727.315"
"2118","8706.133"
"2119","8713.479"
"2120","8766.791"
"2121","8781.344"
"2122","8686.117"
"2123","8564.059"
"2124","8546.517"
"2125","8633.242"
"2126","8705.147"
"2127","8690.197"
"2128","8631.492"
"2129","8579.688"
"2130","8535.893"
"2131","8484.202"
"2132","8440.079"
"2133","8448.013"
"2134","8515.641"
"2135","8564.722"
"2136","8524.446"
"2137","8441.514"
"2138","8402.462"
"2139","8413.645"
"2140","8408.553"
"2141","8354.041"
"2142","8295.335"
"2143","8274.315"
"2144","8255.094"
"2145","8180.198"
"2146","8093.007"
"2147","8121.778"
"2148","8296.256"
"2149","8445.606"
"2150","8416.104"
"2151","8260.805"
"2152","8094.487"
"2153","7986.804"
"2154","7973.007"
"2155","8043.514"
"2156","8113.064"
"2157","8113.745"
"2158","8083.121"
"2159","8082.02"
"2160","8119.102"
"2161","8169.592"
"2162","8192.274"
"2163","8123.354"
"2164","7945.212"
"2165","7800.764"
"2166","7840.574"
"2167","7989.648"
"2168","8063.016"
"2169","8007.055"
"2170","7917.295"
"2171","7867.921"
"2172","7858.134"
"2173","7872.108"
"2174","7873.665"
"2175","7822.775"
"2176","7750.074"
"2177","7745.812"
"2178","7830.487"
"2179","7891.797"
"2180","7841.575"
"2181","7758.438"
"2182","7754.057"
"2183","7810.459"
"2184","7831.593"
"2185","7771.526"
"2186","7651.229"
"2187","7508.414"
"2188","7415.415"
"2189","7436.409"
"2190","7537.682"
"2191","7646.376"
"2192","7713.892"
"2193","7713.294"
"2194","7638.344"
"2195","7519.661"
"2196","7396.013"
"2197","7322.6"
"2198","7346.485"
"2199","7392.395"
"2200","7320.842"
"2201","7149.057"
"2202","7077.105"
"2203","7203.275"
"2204","7353.665"
"2205","7352.668"
"2206","7236.39"
"2207","7108.862"
"2208","7032.121"
"2209","7037.608"
"2210","7105.769"
"2211","7145.823"
"2212","7094.003"
"2213","6982.337"
"2214","6864.158"
"2215","6816.374"
"2216","6916.185"
"2217","7091.803"
"2218","7153.499"
"2219","7049.543"
"2220","6952.515"
"2221","6984.972"
"2222","7040.939"
"2223","6992.764"
"2224","6888.836"
"2225","6846.305"
"2226","6861.909"
"2227","6831.102"
"2228","6720.433"
"2229","6618.105"
"2230","6589.676"
"2231","6588.525"
"2232","6557.477"
"2233","6526.932"
"2234","6558.997"
"2235","6624.047"
"2236","6618.186"
"2237","6517.464"
"2238","6425.679"
"2239","6411.011"
"2240","6399.258"
"2241","6307.964"
"2242","6172.585"
"2243","6071.091"
"2244","6039.989"
"2245","6084.259"
"2246","6164.958"
"2247","6184.539"
"2248","6091.208"
"2249","5962.054"
"2250","5878.153"
"2251","5835.32"
"2252","5803.566"
"2253","5766.916"
"2254","5718.537"
"2255","5670.809"
"2256","5656.975"
"2257","5689.626"
"2258","5737.62"
"2259","5760.897"
"2260","5705.961"
"2261","5530.534"
"2262","5302.625"
"2263","5135.847"
"2264","5061.16"
"2265","5041.126"
"2266","5035.871"
"2267","5005.062"
"2268","4928.9"
"2269","4842.147"
"2270","4779.779"
"2271","4732.863"
"2272","4680.45"
"2273","4617.923"
"2274","4549.131"
"2275","4460.664"
"2276","4322.591"
"2277","4155.261"
"2278","4066.284"
"2279","4106.674"
"2280","4127.505"
"2281","3985.399"
"2282","3786.763"
"2283","3710.157"
"2284","3758.875"
"2285","3827.935"
"2286","3817.377"
"2287","3635.594"
"2288","3314.389"
"2289","3104.178"
"2290","3158.231"
"2291","3257.155"
"2292","3167.37"
"2293","2982.001"
"2294","2888.395"
"2295","2872.08"
"2296","2803.283"
"2297","2666.377"
"2298","2559.299"
"2299","2521.07"
"2300","2486.63"
