,"Scan 01168"
"400","7928.4"
"401","7894.54"
"402","7854.043"
"403","7811.23"
"404","7773.206"
"405","7747.938"
"406","7743.332"
"407","7765.407"
"408","7805.332"
"409","7847.16"
"410","7875.013"
"411","7874.297"
"412","7845.648"
"413","7800.282"
"414","7749.551"
"415","7704.527"
"416","7671.835"
"417","7653.769"
"418","7652.422"
"419","7669.747"
"420","7702.156"
"421","7738.609"
"422","7767.623"
"423","7777.859"
"424","7765.162"
"425","7738.509"
"426","7708.23"
"427","7684.571"
"428","7673.437"
"429","7669.997"
"430","7667.801"
"431","7660.45"
"432","7644.668"
"433","7627.659"
"434","7618.782"
"435","7627.341"
"436","7658.824"
"437","7701.708"
"438","7739.752"
"439","7756.824"
"440","7740.569"
"441","7700.635"
"442","7654.703"
"443","7620.341"
"444","7612.513"
"445","7626.725"
"446","7649.424"
"447","7667.098"
"448","7667.792"
"449","7654.49"
"450","7638.797"
"451","7632.34"
"452","7645.672"
"453","7676.103"
"454","7711.685"
"455","7740.357"
"456","7750.576"
"457","7738.394"
"458","7706.175"
"459","7656.469"
"460","7592.041"
"461","7520.845"
"462","7455.884"
"463","7410.285"
"464","7396.618"
"465","7413.788"
"466","7445.449"
"467","7474.559"
"468","7484.522"
"469","7471.956"
"470","7450.126"
"471","7433.3"
"472","7435.412"
"473","7458.849"
"474","7489.769"
"475","7513.176"
"476","7514.352"
"477","7489.604"
"478","7452.247"
"479","7416.991"
"480","7398.323"
"481","7401.196"
"482","7414.658"
"483","7426.303"
"484","7423.871"
"485","7401.725"
"486","7365.976"
"487","7323.916"
"488","7282.775"
"489","7248.613"
"490","7225.329"
"491","7216.562"
"492","7225.894"
"493","7252.021"
"494","7284.255"
"495","7310.897"
"496","7320.368"
"497","7306.571"
"498","7274.074"
"499","7228.648"
"500","7176.03"
"501","7121.752"
"502","7070.97"
"503","7028.786"
"504","7000.219"
"505","6986.209"
"506","6979.875"
"507","6973.486"
"508","6959.403"
"509","6934.116"
"510","6901.727"
"511","6867.141"
"512","6835.22"
"513","6809.218"
"514","6789.592"
"515","6776.507"
"516","6770.096"
"517","6768.044"
"518","6764.004"
"519","6751.277"
"520","6723.329"
"521","6680.952"
"522","6636.102"
"523","6601.611"
"524","6590.003"
"525","6602.536"
"526","6624.87"
"527","6641.584"
"528","6637.687"
"529","6610.544"
"530","6572.899"
"531","6538.396"
"532","6520.224"
"533","6520.651"
"534","6529.937"
"535","6537.766"
"536","6534.237"
"537","6517.339"
"538","6492.641"
"539","6465.996"
"540","6443.086"
"541","6427.279"
"542","6420.017"
"543","6422.678"
"544","6436.225"
"545","6456.224"
"546","6474.474"
"547","6482.733"
"548","6473.601"
"549","6447.866"
"550","6411.086"
"551","6368.85"
"552","6326.698"
"553","6290.025"
"554","6264.131"
"555","6254.294"
"556","6264.167"
"557","6287.546"
"558","6314.494"
"559","6335.12"
"560","6341.658"
"561","6336.29"
"562","6324.133"
"563","6310.279"
"564","6299.267"
"565","6293.669"
"566","6295.611"
"567","6307.203"
"568","6327.836"
"569","6349.487"
"570","6362.911"
"571","6358.947"
"572","6334.297"
"573","6297.638"
"574","6259.077"
"575","6228.584"
"576","6210.605"
"577","6201.119"
"578","6195.418"
"579","6188.944"
"580","6181.376"
"581","6177.217"
"582","6181.211"
"583","6197.699"
"584","6224.32"
"585","6253.094"
"586","6275.89"
"587","6285.392"
"588","6282.741"
"589","6274.22"
"590","6266.153"
"591","6263.883"
"592","6265.969"
"593","6268.056"
"594","6265.803"
"595","6256.335"
"596","6243.585"
"597","6233.469"
"598","6231.873"
"599","6241.678"
"600","6256.477"
"601","6268.087"
"602","6268.393"
"603","6253.907"
"604","6230.667"
"605","6205.869"
"606","6186.583"
"607","6175.599"
"608","6169.788"
"609","6165.601"
"610","6159.646"
"611","6151.496"
"612","6143.461"
"613","6137.956"
"614","6137.125"
"615","6140.362"
"616","6145.377"
"617","6149.862"
"618","6151.994"
"619","6152.98"
"620","6155.202"
"621","6161.035"
"622","6171.822"
"623","6184.989"
"624","6197.039"
"625","6204.494"
"626","6205.367"
"627","6201.092"
"628","6193.569"
"629","6184.679"
"630","6175.154"
"631","6164.119"
"632","6150.58"
"633","6133.597"
"634","6113.205"
"635","6090.303"
"636","6065.816"
"637","6040.932"
"638","6019.294"
"639","6005.865"
"640","6005.589"
"641","6022.004"
"642","6051.634"
"643","6088.84"
"644","6128.006"
"645","6163.099"
"646","6186.934"
"647","6192.142"
"648","6171.526"
"649","6127.325"
"650","6076.711"
"651","6038.126"
"652","6029.034"
"653","6048.425"
"654","6078.293"
"655","6100.048"
"656","6097.413"
"657","6074.402"
"658","6045.687"
"659","6025.99"
"660","6026.503"
"661","6042.451"
"662","6064.544"
"663","6083.526"
"664","6092.375"
"665","6089.365"
"666","6073.538"
"667","6044.082"
"668","6005.517"
"669","5969.271"
"670","5947.201"
"671","5950.179"
"672","5976.402"
"673","6015.063"
"674","6055.194"
"675","6086.967"
"676","6107.32"
"677","6115.721"
"678","6111.646"
"679","6096.581"
"680","6077.965"
"681","6064.309"
"682","6063.994"
"683","6079.182"
"684","6102.677"
"685","6126.52"
"686","6143.031"
"687","6148.508"
"688","6142.385"
"689","6124.181"
"690","6094.47"
"691","6060.651"
"692","6032.825"
"693","6021.072"
"694","6030.934"
"695","6054.376"
"696","6080.853"
"697","6099.944"
"698","6106.459"
"699","6102.794"
"700","6091.944"
"701","6076.914"
"702","6060.966"
"703","6047.557"
"704","6040.135"
"705","6041.274"
"706","6048.68"
"707","6058.372"
"708","6066.387"
"709","6070.831"
"710","6074.972"
"711","6082.852"
"712","6098.329"
"713","6119.622"
"714","6138.344"
"715","6145.742"
"716","6134.265"
"717","6107.76"
"718","6076.454"
"719","6050.614"
"720","6038.24"
"721","6038.412"
"722","6048.012"
"723","6063.924"
"724","6082.645"
"725","6100"
"726","6111.755"
"727","6113.961"
"728","6107.153"
"729","6095.416"
"730","6082.933"
"731","6073.501"
"732","6068.785"
"733","6069.691"
"734","6077.122"
"735","6090.74"
"736","6107.333"
"737","6123.279"
"738","6135.109"
"739","6142.69"
"740","6149.303"
"741","6158.382"
"742","6172.787"
"743","6191.143"
"744","6210.188"
"745","6226.652"
"746","6237.823"
"747","6242.547"
"748","6239.958"
"749","6229.28"
"750","6212.808"
"751","6196.517"
"752","6186.592"
"753","6188.268"
"754","6198.6"
"755","6210.447"
"756","6216.647"
"757","6213.559"
"758","6208.75"
"759","6212.015"
"760","6232.84"
"761","6269.523"
"762","6306"
"763","6325.281"
"764","6313.03"
"765","6278.912"
"766","6245.411"
"767","6235.087"
"768","6260.726"
"769","6303.629"
"770","6338.79"
"771","6341.856"
"772","6310.911"
"773","6272.25"
"774","6253.935"
"775","6279.948"
"776","6339.665"
"777","6404.929"
"778","6447.484"
"779","6449.824"
"780","6426.086"
"781","6396.184"
"782","6379.586"
"783","6383.21"
"784","6399.817"
"785","6421.409"
"786","6440.503"
"787","6453.225"
"788","6457.289"
"789","6450.429"
"790","6433.746"
"791","6416.64"
"792","6409.753"
"793","6423.06"
"794","6453.164"
"795","6484.193"
"796","6499.816"
"797","6487.904"
"798","6459.593"
"799","6434.04"
"800","6430.275"
"801","6454.479"
"802","6488.542"
"803","6511.673"
"804","6504.894"
"805","6473.119"
"806","6438.173"
"807","6422.225"
"808","6440.465"
"809","6480.774"
"810","6524.345"
"811","6552.675"
"812","6559.449"
"813","6554.814"
"814","6550.077"
"815","6555.201"
"816","6569.155"
"817","6585.508"
"818","6597.799"
"819","6602.538"
"820","6603.814"
"821","6606.905"
"822","6616.671"
"823","6629.989"
"824","6636.562"
"825","6625.837"
"826","6591.502"
"827","6548"
"828","6516.122"
"829","6516.377"
"830","6552.188"
"831","6600.049"
"832","6634.101"
"833","6631.648"
"834","6599.88"
"835","6562.456"
"836","6543.177"
"837","6556.069"
"838","6588.267"
"839","6622.325"
"840","6641.493"
"841","6642.875"
"842","6636.358"
"843","6632.302"
"844","6638.421"
"845","6649.704"
"846","6657.307"
"847","6652.545"
"848","6635.112"
"849","6617.15"
"850","6611.817"
"851","6630.408"
"852","6668.709"
"853","6714.791"
"854","6756.685"
"855","6786.813"
"856","6807.983"
"857","6824.508"
"858","6840.276"
"859","6852.787"
"860","6854.603"
"861","6838.164"
"862","6800.456"
"863","6755.562"
"864","6721.579"
"865","6716.047"
"866","6739.867"
"867","6774.792"
"868","6801.524"
"869","6804.608"
"870","6791.036"
"871","6775.94"
"872","6774.335"
"873","6792.159"
"874","6820.193"
"875","6847.777"
"876","6865.201"
"877","6871.279"
"878","6869.337"
"879","6862.75"
"880","6856.061"
"881","6856.608"
"882","6872.135"
"883","6909.41"
"884","6961.533"
"885","7011.508"
"886","7042.1"
"887","7042.468"
"888","7023.24"
"889","6999.558"
"890","6986.112"
"891","6987.562"
"892","6998.606"
"893","7013.521"
"894","7027.428"
"895","7039.396"
"896","7049.633"
"897","7058.365"
"898","7066.112"
"899","7073.798"
"900","7082.374"
"901","7092.699"
"902","7105.103"
"903","7119.706"
"904","7136.588"
"905","7152.845"
"906","7160.649"
"907","7151.706"
"908","7119.771"
"909","7075.469"
"910","7037.7"
"911","7025.355"
"912","7046.446"
"913","7086.513"
"914","7128.312"
"915","7155.872"
"916","7166.881"
"917","7167.274"
"918","7163.1"
"919","7158.011"
"920","7149.6"
"921","7134.522"
"922","7110.038"
"923","7081.673"
"924","7060.938"
"925","7059.472"
"926","7084.218"
"927","7127.919"
"928","7180.645"
"929","7232.525"
"930","7274.736"
"931","7299.33"
"932","7298.385"
"933","7269.463"
"934","7229.48"
"935","7199.618"
"936","7199.961"
"937","7227.251"
"938","7256.029"
"939","7259.94"
"940","7222.157"
"941","7164.117"
"942","7116.867"
"943","7110.364"
"944","7146.733"
"945","7198.803"
"946","7238.006"
"947","7242.665"
"948","7221.867"
"949","7193.249"
"950","7174.061"
"951","7170.023"
"952","7173.731"
"953","7177.066"
"954","7173.655"
"955","7165.523"
"956","7157.214"
"957","7153.162"
"958","7153.992"
"959","7155.751"
"960","7154.216"
"961","7146.736"
"962","7138.634"
"963","7137.751"
"964","7151.664"
"965","7178.611"
"966","7205.2"
"967","7217.311"
"968","7204.574"
"969","7176.163"
"970","7147.583"
"971","7134.039"
"972","7139.412"
"973","7153.316"
"974","7164.457"
"975","7163.928"
"976","7155.324"
"977","7146.294"
"978","7144.306"
"979","7150.061"
"980","7155.812"
"981","7153.276"
"982","7136.955"
"983","7115.574"
"984","7102.38"
"985","7110.237"
"986","7138.711"
"987","7171.22"
"988","7190.201"
"989","7183.138"
"990","7162.21"
"991","7147.122"
"992","7156.97"
"993","7191.913"
"994","7230.162"
"995","7248.69"
"996","7231.742"
"997","7196.826"
"998","7170.964"
"999","7180.209"
"1000","7224.359"
"1001","7274.732"
"1002","7301.209"
"1003","7282.802"
"1004","7236.841"
"1005","7190.719"
"1006","7171.811"
"1007","7193.975"
"1008","7237.063"
"1009","7275.671"
"1010","7286.734"
"1011","7271.499"
"1012","7245.578"
"1013","7224.718"
"1014","7217.156"
"1015","7216.348"
"1016","7214.021"
"1017","7203.548"
"1018","7190.732"
"1019","7187.032"
"1020","7203.796"
"1021","7244.088"
"1022","7298.583"
"1023","7356.941"
"1024","7408.949"
"1025","7445.091"
"1026","7456.089"
"1027","7433.234"
"1028","7383.761"
"1029","7332.449"
"1030","7305.002"
"1031","7318.475"
"1032","7357.932"
"1033","7401.045"
"1034","7426.545"
"1035","7429.582"
"1036","7418.169"
"1037","7400.676"
"1038","7385.212"
"1039","7379.265"
"1040","7390.231"
"1041","7423.755"
"1042","7469.623"
"1043","7509.178"
"1044","7523.865"
"1045","7508.231"
"1046","7478.115"
"1047","7451.31"
"1048","7442.582"
"1049","7450.084"
"1050","7466.34"
"1051","7484.012"
"1052","7499.68"
"1053","7514.031"
"1054","7527.94"
"1055","7540.29"
"1056","7543.501"
"1057","7528.686"
"1058","7488.79"
"1059","7438.564"
"1060","7406.991"
"1061","7423.126"
"1062","7494.934"
"1063","7590.25"
"1064","7672.403"
"1065","7710.981"
"1066","7714.363"
"1067","7705.727"
"1068","7707.714"
"1069","7726.59"
"1070","7750.417"
"1071","7766.297"
"1072","7765.585"
"1073","7753.631"
"1074","7738.665"
"1075","7728.212"
"1076","7721.833"
"1077","7714.067"
"1078","7699.452"
"1079","7679.444"
"1080","7667.607"
"1081","7678.738"
"1082","7722.018"
"1083","7776.702"
"1084","7812.11"
"1085","7799.214"
"1086","7743.401"
"1087","7682.284"
"1088","7654.697"
"1089","7680.858"
"1090","7732.944"
"1091","7775.482"
"1092","7777.612"
"1093","7745.457"
"1094","7702.854"
"1095","7673.353"
"1096","7665.182"
"1097","7667"
"1098","7666.201"
"1099","7653.953"
"1100","7634.816"
"1101","7616.314"
"1102","7605.812"
"1103","7608.957"
"1104","7630.318"
"1105","7674.278"
"1106","7733.781"
"1107","7783.411"
"1108","7796.081"
"1109","7754.179"
"1110","7682.215"
"1111","7616.403"
"1112","7590.486"
"1113","7602.742"
"1114","7625.103"
"1115","7629.005"
"1116","7602.532"
"1117","7564.77"
"1118","7538.21"
"1119","7540.608"
"1120","7565.554"
"1121","7598.987"
"1122","7627.243"
"1123","7643.423"
"1124","7646.135"
"1125","7634.169"
"1126","7610.354"
"1127","7585.543"
"1128","7571.549"
"1129","7577.08"
"1130","7594.416"
"1131","7610.403"
"1132","7612.729"
"1133","7603.045"
"1134","7594.452"
"1135","7600.313"
"1136","7623.795"
"1137","7648.173"
"1138","7654.419"
"1139","7628.734"
"1140","7583.606"
"1141","7539.754"
"1142","7516.857"
"1143","7519.02"
"1144","7538.489"
"1145","7567.217"
"1146","7597.322"
"1147","7621.253"
"1148","7631.481"
"1149","7623.541"
"1150","7606.236"
"1151","7591.965"
"1152","7591.958"
"1153","7603.625"
"1154","7615.372"
"1155","7615.662"
"1156","7604.062"
"1157","7596.307"
"1158","7609.422"
"1159","7651.269"
"1160","7698.479"
"1161","7721.023"
"1162","7693.924"
"1163","7635.812"
"1164","7587.553"
"1165","7588.94"
"1166","7643.207"
"1167","7712.719"
"1168","7757.704"
"1169","7755.036"
"1170","7722.698"
"1171","7684.915"
"1172","7662.365"
"1173","7654.911"
"1174","7654.873"
"1175","7655.011"
"1176","7655.188"
"1177","7660.91"
"1178","7677.771"
"1179","7706.481"
"1180","7739.593"
"1181","7768.884"
"1182","7787.462"
"1183","7793.385"
"1184","7785.859"
"1185","7764.743"
"1186","7735.658"
"1187","7707.178"
"1188","7687.77"
"1189","7682.375"
"1190","7692.193"
"1191","7718.23"
"1192","7757.402"
"1193","7797.755"
"1194","7826.162"
"1195","7833.026"
"1196","7825.563"
"1197","7815.958"
"1198","7815.112"
"1199","7819.559"
"1200","7816.909"
"1201","7795.077"
"1202","7757.115"
"1203","7724.617"
"1204","7720.295"
"1205","7753.582"
"1206","7801.35"
"1207","7835.558"
"1208","7834.524"
"1209","7809.604"
"1210","7782.795"
"1211","7774.667"
"1212","7788.774"
"1213","7817.664"
"1214","7853.684"
"1215","7888.708"
"1216","7914.04"
"1217","7920.95"
"1218","7907.458"
"1219","7887.565"
"1220","7877.593"
"1221","7889.86"
"1222","7917.433"
"1223","7947.603"
"1224","7968.188"
"1225","7972.433"
"1226","7956.739"
"1227","7918.052"
"1228","7866.499"
"1229","7826.375"
"1230","7822.568"
"1231","7863.761"
"1232","7926.602"
"1233","7983.964"
"1234","8015.481"
"1235","8026.415"
"1236","8028.096"
"1237","8030.465"
"1238","8033.022"
"1239","8030.541"
"1240","8018.234"
"1241","7998.943"
"1242","7981.723"
"1243","7975.671"
"1244","7982.66"
"1245","7994.212"
"1246","8001.055"
"1247","7998.676"
"1248","7994.785"
"1249","7999.027"
"1250","8018.038"
"1251","8044.12"
"1252","8065.314"
"1253","8071.405"
"1254","8068.116"
"1255","8069.682"
"1256","8089.599"
"1257","8125.126"
"1258","8158.713"
"1259","8172.469"
"1260","8161.656"
"1261","8141.732"
"1262","8129.875"
"1263","8135.962"
"1264","8150.617"
"1265","8161.318"
"1266","8158.878"
"1267","8149.656"
"1268","8144.532"
"1269","8152.681"
"1270","8168.855"
"1271","8180.597"
"1272","8176.147"
"1273","8156.304"
"1274","8132.186"
"1275","8115.062"
"1276","8109.636"
"1277","8111.933"
"1278","8117.372"
"1279","8121.409"
"1280","8119.571"
"1281","8107.388"
"1282","8082.959"
"1283","8053.526"
"1284","8028.365"
"1285","8015.444"
"1286","8014.858"
"1287","8023.783"
"1288","8039.258"
"1289","8056.99"
"1290","8071.882"
"1291","8079.291"
"1292","8083.688"
"1293","8097.931"
"1294","8134.889"
"1295","8192.835"
"1296","8249.523"
"1297","8281.235"
"1298","8280.084"
"1299","8272.447"
"1300","8289.196"
"1301","8346.732"
"1302","8412.329"
"1303","8442.84"
"1304","8406.537"
"1305","8333.113"
"1306","8272.791"
"1307","8269.271"
"1308","8309.773"
"1309","8352.697"
"1310","8358.825"
"1311","8327.284"
"1312","8286.159"
"1313","8263.52"
"1314","8266.907"
"1315","8281.343"
"1316","8290.803"
"1317","8286.44"
"1318","8270.802"
"1319","8247.433"
"1320","8220.748"
"1321","8197.112"
"1322","8183.181"
"1323","8182.599"
"1324","8188.846"
"1325","8193.249"
"1326","8188.349"
"1327","8172.797"
"1328","8147.146"
"1329","8113.298"
"1330","8083.104"
"1331","8072.891"
"1332","8096.864"
"1333","8144.999"
"1334","8192.046"
"1335","8213.627"
"1336","8205.697"
"1337","8181.765"
"1338","8155.679"
"1339","8133.341"
"1340","8111.336"
"1341","8085.78"
"1342","8056.298"
"1343","8028.08"
"1344","8006.808"
"1345","7997.371"
"1346","8002.947"
"1347","8026.498"
"1348","8066.382"
"1349","8107.596"
"1350","8132.715"
"1351","8130.313"
"1352","8112.705"
"1353","8098.078"
"1354","8101.212"
"1355","8118.583"
"1356","8140.559"
"1357","8157.675"
"1358","8161.707"
"1359","8144.984"
"1360","8101.857"
"1361","8046.788"
"1362","8005.76"
"1363","8002.986"
"1364","8036.052"
"1365","8083.105"
"1366","8122.5"
"1367","8145.975"
"1368","8157.57"
"1369","8161.661"
"1370","8158.816"
"1371","8145.237"
"1372","8117.085"
"1373","8080.065"
"1374","8053.466"
"1375","8057.409"
"1376","8093.061"
"1377","8128.32"
"1378","8127.812"
"1379","8079.667"
"1380","8022.767"
"1381","8002.591"
"1382","8040.556"
"1383","8094.292"
"1384","8110.979"
"1385","8061.262"
"1386","7991.898"
"1387","7965.071"
"1388","8020.993"
"1389","8113.198"
"1390","8173.818"
"1391","8152.657"
"1392","8083.75"
"1393","8026.189"
"1394","8027.096"
"1395","8065.103"
"1396","8094.602"
"1397","8077.455"
"1398","8026.702"
"1399","7976.671"
"1400","7957.483"
"1401","7964.536"
"1402","7976.467"
"1403","7974.127"
"1404","7960.64"
"1405","7951.472"
"1406","7960.464"
"1407","7981.591"
"1408","7996.336"
"1409","7987.631"
"1410","7960.227"
"1411","7934.302"
"1412","7929.192"
"1413","7946.007"
"1414","7971.531"
"1415","7992.612"
"1416","8004.543"
"1417","8009.943"
"1418","8011.719"
"1419","8013.628"
"1420","8020.239"
"1421","8035.957"
"1422","8060.191"
"1423","8087.223"
"1424","8111.237"
"1425","8130.452"
"1426","8147.57"
"1427","8165.511"
"1428","8186.753"
"1429","8213.239"
"1430","8246.793"
"1431","8285.54"
"1432","8322.991"
"1433","8352.523"
"1434","8374.191"
"1435","8396.848"
"1436","8429.742"
"1437","8472.821"
"1438","8513.254"
"1439","8537.447"
"1440","8540.294"
"1441","8528.726"
"1442","8510.517"
"1443","8489.422"
"1444","8463.339"
"1445","8429.866"
"1446","8395.142"
"1447","8377.952"
"1448","8397.712"
"1449","8451.372"
"1450","8502.338"
"1451","8511.768"
"1452","8469.684"
"1453","8409.274"
"1454","8366.904"
"1455","8357.998"
"1456","8366.919"
"1457","8375.624"
"1458","8372.668"
"1459","8356.249"
"1460","8325.395"
"1461","8282.484"
"1462","8234.676"
"1463","8189.392"
"1464","8149.321"
"1465","8110.597"
"1466","8069.053"
"1467","8027.738"
"1468","7999.276"
"1469","7996.498"
"1470","8014.766"
"1471","8027.34"
"1472","8006.787"
"1473","7950.541"
"1474","7885.804"
"1475","7840.874"
"1476","7824.39"
"1477","7822.892"
"1478","7822.003"
"1479","7814.136"
"1480","7798.82"
"1481","7776.043"
"1482","7748.652"
"1483","7722.257"
"1484","7702.372"
"1485","7690.465"
"1486","7684.433"
"1487","7681.875"
"1488","7677.806"
"1489","7665.145"
"1490","7637.867"
"1491","7605.275"
"1492","7587.805"
"1493","7603.561"
"1494","7640.138"
"1495","7665.346"
"1496","7650.283"
"1497","7602.416"
"1498","7550.106"
"1499","7519.601"
"1500","7516.972"
"1501","7538.138"
"1502","7577.518"
"1503","7619.329"
"1504","7643.344"
"1505","7633.929"
"1506","7603.388"
"1507","7574.457"
"1508","7565.203"
"1509","7569.984"
"1510","7575.672"
"1511","7572.049"
"1512","7561.188"
"1513","7548.39"
"1514","7538.665"
"1515","7535.961"
"1516","7544"
"1517","7562.291"
"1518","7578.29"
"1519","7577.34"
"1520","7553.376"
"1521","7520.463"
"1522","7495.503"
"1523","7487.018"
"1524","7487.49"
"1525","7487.68"
"1526","7483.818"
"1527","7480.677"
"1528","7483.589"
"1529","7490.77"
"1530","7491.415"
"1531","7474.634"
"1532","7441.753"
"1533","7406.612"
"1534","7382.783"
"1535","7369.876"
"1536","7356.021"
"1537","7330.659"
"1538","7302.889"
"1539","7294.628"
"1540","7323.852"
"1541","7372.5"
"1542","7404.1"
"1543","7389.184"
"1544","7344.108"
"1545","7303.245"
"1546","7293.244"
"1547","7303.656"
"1548","7313.036"
"1549","7307.82"
"1550","7302.321"
"1551","7316.976"
"1552","7359.688"
"1553","7405.577"
"1554","7424.591"
"1555","7404.147"
"1556","7365.647"
"1557","7334.208"
"1558","7323.635"
"1559","7331.283"
"1560","7353.055"
"1561","7380.575"
"1562","7400.821"
"1563","7401.135"
"1564","7378.632"
"1565","7338.296"
"1566","7285.83"
"1567","7231.982"
"1568","7190.489"
"1569","7173.12"
"1570","7177.666"
"1571","7195.979"
"1572","7219.793"
"1573","7240.393"
"1574","7248.932"
"1575","7240.84"
"1576","7225.563"
"1577","7215.38"
"1578","7218.367"
"1579","7233.114"
"1580","7256.827"
"1581","7281.296"
"1582","7289.827"
"1583","7265.823"
"1584","7216.435"
"1585","7174.983"
"1586","7173.583"
"1587","7205.657"
"1588","7234.856"
"1589","7228.153"
"1590","7189.618"
"1591","7142.936"
"1592","7110.063"
"1593","7101.979"
"1594","7125.808"
"1595","7179.457"
"1596","7227.167"
"1597","7225.538"
"1598","7160.169"
"1599","7085.373"
"1600","7064.727"
"1601","7116.268"
"1602","7186.895"
"1603","7219.047"
"1604","7199.109"
"1605","7159.139"
"1606","7131.646"
"1607","7127.441"
"1608","7142.431"
"1609","7171.833"
"1610","7208.019"
"1611","7242.089"
"1612","7265.776"
"1613","7273.682"
"1614","7261.204"
"1615","7229.988"
"1616","7198.556"
"1617","7188.069"
"1618","7204.788"
"1619","7229.845"
"1620","7242.427"
"1621","7234.443"
"1622","7211.43"
"1623","7179.89"
"1624","7149.954"
"1625","7134.211"
"1626","7142.509"
"1627","7165.626"
"1628","7186.409"
"1629","7193.423"
"1630","7197.783"
"1631","7216.098"
"1632","7254.597"
"1633","7295.712"
"1634","7318.817"
"1635","7315.7"
"1636","7295.32"
"1637","7267.887"
"1638","7243.296"
"1639","7231.183"
"1640","7239.43"
"1641","7261.039"
"1642","7281.499"
"1643","7289.69"
"1644","7290.473"
"1645","7293.316"
"1646","7303.91"
"1647","7318.194"
"1648","7330.628"
"1649","7338.95"
"1650","7345.774"
"1651","7354.127"
"1652","7367.322"
"1653","7388.931"
"1654","7421.075"
"1655","7453.622"
"1656","7470.281"
"1657","7460.22"
"1658","7436.949"
"1659","7420.642"
"1660","7420.508"
"1661","7419.843"
"1662","7398.642"
"1663","7355.745"
"1664","7314.852"
"1665","7299.416"
"1666","7304.547"
"1667","7304.171"
"1668","7275.931"
"1669","7225.907"
"1670","7171.855"
"1671","7129.454"
"1672","7107.113"
"1673","7111.625"
"1674","7141.686"
"1675","7181.489"
"1676","7213.866"
"1677","7225.189"
"1678","7205.306"
"1679","7147.327"
"1680","7072.617"
"1681","7017.538"
"1682","7009.448"
"1683","7035.874"
"1684","7073.556"
"1685","7101.38"
"1686","7102.961"
"1687","7063.278"
"1688","6990.302"
"1689","6918.25"
"1690","6879.516"
"1691","6871.38"
"1692","6869.928"
"1693","6856.82"
"1694","6842.279"
"1695","6845.123"
"1696","6871.439"
"1697","6897.641"
"1698","6896.658"
"1699","6866.442"
"1700","6834.614"
"1701","6827.589"
"1702","6839.91"
"1703","6846.698"
"1704","6829.751"
"1705","6803.907"
"1706","6793.717"
"1707","6809.166"
"1708","6827.973"
"1709","6824.264"
"1710","6793.135"
"1711","6752.715"
"1712","6721.249"
"1713","6706.821"
"1714","6711.986"
"1715","6736.398"
"1716","6768.243"
"1717","6792.822"
"1718","6801.095"
"1719","6794.573"
"1720","6776.138"
"1721","6752.894"
"1722","6735.768"
"1723","6734.059"
"1724","6744.424"
"1725","6758.052"
"1726","6767.392"
"1727","6768.867"
"1728","6759.676"
"1729","6738.514"
"1730","6706.165"
"1731","6664.935"
"1732","6633.667"
"1733","6642.25"
"1734","6707.342"
"1735","6781.182"
"1736","6796.979"
"1737","6733.025"
"1738","6660.436"
"1739","6658.022"
"1740","6723.476"
"1741","6777.53"
"1742","6751.006"
"1743","6668.29"
"1744","6594.063"
"1745","6575.396"
"1746","6608.027"
"1747","6678.109"
"1748","6757.198"
"1749","6798.437"
"1750","6761.202"
"1751","6679.083"
"1752","6628.018"
"1753","6659.526"
"1754","6730.174"
"1755","6774.425"
"1756","6759.259"
"1757","6703.268"
"1758","6629.774"
"1759","6563.633"
"1760","6530.782"
"1761","6548.255"
"1762","6591.113"
"1763","6622.279"
"1764","6623.361"
"1765","6611.028"
"1766","6604.761"
"1767","6606.786"
"1768","6605.382"
"1769","6591.842"
"1770","6575.944"
"1771","6573.583"
"1772","6589.657"
"1773","6606.165"
"1774","6603.412"
"1775","6583.53"
"1776","6567.736"
"1777","6572.619"
"1778","6584.267"
"1779","6577.967"
"1780","6545.557"
"1781","6514.659"
"1782","6516.146"
"1783","6553.067"
"1784","6603.765"
"1785","6647.477"
"1786","6673.715"
"1787","6675.627"
"1788","6650.337"
"1789","6603.317"
"1790","6541.853"
"1791","6486.093"
"1792","6467.117"
"1793","6506.718"
"1794","6575.583"
"1795","6627.72"
"1796","6639.289"
"1797","6629.005"
"1798","6619.019"
"1799","6610.632"
"1800","6589.289"
"1801","6546.889"
"1802","6506.562"
"1803","6500.032"
"1804","6534.367"
"1805","6576.156"
"1806","6590.996"
"1807","6577.382"
"1808","6554.875"
"1809","6539.464"
"1810","6532.654"
"1811","6532.685"
"1812","6539.434"
"1813","6554.947"
"1814","6579.558"
"1815","6597.781"
"1816","6586.146"
"1817","6535.769"
"1818","6478.266"
"1819","6450.845"
"1820","6457.859"
"1821","6470.416"
"1822","6463.377"
"1823","6443.031"
"1824","6427.191"
"1825","6424.924"
"1826","6428.01"
"1827","6426.955"
"1828","6422.874"
"1829","6424.568"
"1830","6438.016"
"1831","6457.255"
"1832","6473.365"
"1833","6477.894"
"1834","6463.042"
"1835","6423.607"
"1836","6375.19"
"1837","6343.446"
"1838","6343.828"
"1839","6366.11"
"1840","6396.171"
"1841","6420.971"
"1842","6428.421"
"1843","6411.502"
"1844","6387.047"
"1845","6378.699"
"1846","6396.075"
"1847","6427.495"
"1848","6460.337"
"1849","6489.696"
"1850","6514.734"
"1851","6531.464"
"1852","6527.531"
"1853","6490.82"
"1854","6439.875"
"1855","6420.516"
"1856","6462.366"
"1857","6515.333"
"1858","6507.404"
"1859","6429.003"
"1860","6360.736"
"1861","6377.676"
"1862","6451.391"
"1863","6503.249"
"1864","6486.394"
"1865","6428.891"
"1866","6367.982"
"1867","6318.115"
"1868","6276.257"
"1869","6242.207"
"1870","6228.038"
"1871","6248.253"
"1872","6301.944"
"1873","6370.245"
"1874","6433.429"
"1875","6473.06"
"1876","6471.394"
"1877","6432.036"
"1878","6395.606"
"1879","6401.028"
"1880","6434.306"
"1881","6451.914"
"1882","6429.881"
"1883","6395.234"
"1884","6381.301"
"1885","6392.662"
"1886","6410.898"
"1887","6419.326"
"1888","6410.362"
"1889","6379.089"
"1890","6336.308"
"1891","6310.245"
"1892","6322.964"
"1893","6358.146"
"1894","6386.758"
"1895","6390.416"
"1896","6366.759"
"1897","6317.662"
"1898","6267.053"
"1899","6248.88"
"1900","6275.056"
"1901","6313.335"
"1902","6329.087"
"1903","6319.098"
"1904","6299.128"
"1905","6284.83"
"1906","6290.768"
"1907","6328.884"
"1908","6373.949"
"1909","6372.135"
"1910","6295.155"
"1911","6203.057"
"1912","6171.761"
"1913","6218.551"
"1914","6305.005"
"1915","6391.96"
"1916","6446.896"
"1917","6440.122"
"1918","6377.295"
"1919","6304.471"
"1920","6261.921"
"1921","6248.281"
"1922","6249.042"
"1923","6256.895"
"1924","6274.21"
"1925","6301.511"
"1926","6323.906"
"1927","6320.891"
"1928","6286.153"
"1929","6235.225"
"1930","6184.673"
"1931","6144.871"
"1932","6123.47"
"1933","6120.907"
"1934","6125.238"
"1935","6125.613"
"1936","6129.958"
"1937","6155.038"
"1938","6202.405"
"1939","6244.936"
"1940","6255.267"
"1941","6232.304"
"1942","6188.516"
"1943","6141.791"
"1944","6120.509"
"1945","6149.505"
"1946","6208.479"
"1947","6252.792"
"1948","6256.572"
"1949","6233.471"
"1950","6201.662"
"1951","6175.266"
"1952","6166.126"
"1953","6175.14"
"1954","6180.34"
"1955","6160.016"
"1956","6122.651"
"1957","6093.333"
"1958","6087.282"
"1959","6098.979"
"1960","6120.095"
"1961","6140.082"
"1962","6147.241"
"1963","6137.218"
"1964","6120.206"
"1965","6106.621"
"1966","6094.078"
"1967","6073.82"
"1968","6047.97"
"1969","6038.771"
"1970","6066.006"
"1971","6113.214"
"1972","6147.164"
"1973","6147.803"
"1974","6117.411"
"1975","6061.815"
"1976","5996.442"
"1977","5940.766"
"1978","5913.462"
"1979","5931.954"
"1980","6004.813"
"1981","6089.149"
"1982","6124.319"
"1983","6091.854"
"1984","6027.985"
"1985","5968.686"
"1986","5930.163"
"1987","5922.14"
"1988","5941.106"
"1989","5968.997"
"1990","5990.998"
"1991","6008.54"
"1992","6026.583"
"1993","6039.41"
"1994","6031.562"
"1995","5993.293"
"1996","5934.375"
"1997","5868.771"
"1998","5814.024"
"1999","5790.302"
"2000","5805.191"
"2001","5834.658"
"2002","5852.145"
"2003","5855.294"
"2004","5855.715"
"2005","5859.255"
"2006","5860.409"
"2007","5853.743"
"2008","5843.696"
"2009","5838.891"
"2010","5838.739"
"2011","5829.326"
"2012","5799.777"
"2013","5760.492"
"2014","5728.832"
"2015","5724.296"
"2016","5768.665"
"2017","5863.482"
"2018","5936.621"
"2019","5905.68"
"2020","5789.469"
"2021","5685.613"
"2022","5655.876"
"2023","5666.806"
"2024","5675.03"
"2025","5682.324"
"2026","5714.864"
"2027","5770.381"
"2028","5797.46"
"2029","5753.977"
"2030","5682.985"
"2031","5657.01"
"2032","5682.646"
"2033","5689.521"
"2034","5629.934"
"2035","5559.284"
"2036","5552.745"
"2037","5611.129"
"2038","5677.356"
"2039","5706.228"
"2040","5684.92"
"2041","5611.909"
"2042","5541.464"
"2043","5554.695"
"2044","5657.015"
"2045","5739.332"
"2046","5709.232"
"2047","5604.803"
"2048","5502.751"
"2049","5446.028"
"2050","5445.543"
"2051","5495.488"
"2052","5545.726"
"2053","5544.358"
"2054","5503.473"
"2055","5472.063"
"2056","5477.425"
"2057","5509.393"
"2058","5551.115"
"2059","5569.409"
"2060","5527.782"
"2061","5442.338"
"2062","5381.693"
"2063","5389.456"
"2064","5428.567"
"2065","5450.927"
"2066","5447.009"
"2067","5429.496"
"2068","5410.322"
"2069","5399.725"
"2070","5405.165"
"2071","5420.801"
"2072","5436.668"
"2073","5444.014"
"2074","5435.206"
"2075","5409.129"
"2076","5381.322"
"2077","5368.591"
"2078","5375.95"
"2079","5402.338"
"2080","5434.647"
"2081","5443.533"
"2082","5411.967"
"2083","5376.25"
"2084","5381.818"
"2085","5418.418"
"2086","5436.063"
"2087","5409.241"
"2088","5361.562"
"2089","5320.333"
"2090","5301.247"
"2091","5314.682"
"2092","5344.184"
"2093","5347.019"
"2094","5297.222"
"2095","5216.525"
"2096","5135.43"
"2097","5091.193"
"2098","5123.046"
"2099","5217.932"
"2100","5296.15"
"2101","5303.564"
"2102","5291.086"
"2103","5324.726"
"2104","5383.41"
"2105","5393.285"
"2106","5329.911"
"2107","5248.153"
"2108","5197.406"
"2109","5171.931"
"2110","5151.569"
"2111","5124.99"
"2112","5087.506"
"2113","5049.3"
"2114","5047.94"
"2115","5107.139"
"2116","5163.434"
"2117","5130.967"
"2118","5023.101"
"2119","4936.017"
"2120","4925.422"
"2121","4956.612"
"2122","4989.049"
"2123","5014.627"
"2124","5036.37"
"2125","5049.402"
"2126","5041.771"
"2127","5016.974"
"2128","5013.547"
"2129","5060.576"
"2130","5100.485"
"2131","5048.446"
"2132","4929.251"
"2133","4869.399"
"2134","4924.983"
"2135","4983.751"
"2136","4937.088"
"2137","4839.817"
"2138","4803.015"
"2139","4843.186"
"2140","4890.792"
"2141","4900.103"
"2142","4884.158"
"2143","4862.483"
"2144","4847.475"
"2145","4847.981"
"2146","4853.75"
"2147","4838.479"
"2148","4795.22"
"2149","4756.403"
"2150","4751.955"
"2151","4775.453"
"2152","4809.763"
"2153","4847.434"
"2154","4888.194"
"2155","4924.935"
"2156","4938.526"
"2157","4912.023"
"2158","4842.981"
"2159","4736.452"
"2160","4639.105"
"2161","4622.74"
"2162","4693.565"
"2163","4763.736"
"2164","4769.49"
"2165","4752.5"
"2166","4767.208"
"2167","4787.883"
"2168","4750.356"
"2169","4655.903"
"2170","4579.895"
"2171","4573.707"
"2172","4617.267"
"2173","4678.799"
"2174","4723.707"
"2175","4717.902"
"2176","4657.294"
"2177","4563.48"
"2178","4468.063"
"2179","4419.477"
"2180","4450.449"
"2181","4517.788"
"2182","4561.575"
"2183","4563.199"
"2184","4529.546"
"2185","4477.861"
"2186","4438.379"
"2187","4432.178"
"2188","4451.449"
"2189","4481.143"
"2190","4492.315"
"2191","4452.415"
"2192","4369.765"
"2193","4288.684"
"2194","4245.584"
"2195","4259.805"
"2196","4333.418"
"2197","4405.113"
"2198","4406.343"
"2199","4358.893"
"2200","4333.879"
"2201","4348.043"
"2202","4354.243"
"2203","4321.688"
"2204","4268.117"
"2205","4215.999"
"2206","4174.152"
"2207","4147.007"
"2208","4141.014"
"2209","4163.702"
"2210","4206.45"
"2211","4237.775"
"2212","4231.354"
"2213","4181.416"
"2214","4093.783"
"2215","4024.839"
"2216","4045.394"
"2217","4132.634"
"2218","4189.032"
"2219","4165.214"
"2220","4091.71"
"2221","4008.549"
"2222","3963.204"
"2223","3991.819"
"2224","4039.129"
"2225","4016.432"
"2226","3938.377"
"2227","3906.305"
"2228","3947.808"
"2229","3965.227"
"2230","3894.185"
"2231","3818.505"
"2232","3833.13"
"2233","3896.969"
"2234","3915.709"
"2235","3872.026"
"2236","3811.88"
"2237","3769.594"
"2238","3758.373"
"2239","3776.845"
"2240","3784.831"
"2241","3744.831"
"2242","3682.646"
"2243","3646.189"
"2244","3650.85"
"2245","3687.418"
"2246","3717.885"
"2247","3666.031"
"2248","3506.941"
"2249","3354.805"
"2250","3318.808"
"2251","3368.14"
"2252","3431.08"
"2253","3475.675"
"2254","3494.467"
"2255","3493.528"
"2256","3493.374"
"2257","3503.332"
"2258","3508.685"
"2259","3491.526"
"2260","3433.001"
"2261","3319.332"
"2262","3177.202"
"2263","3051.416"
"2264","2979.044"
"2265","2989.784"
"2266","3064.143"
"2267","3111.274"
"2268","3073.031"
"2269","2993.116"
"2270","2924.208"
"2271","2880.084"
"2272","2859.906"
"2273","2837.629"
"2274","2775.005"
"2275","2681.88"
"2276","2615.47"
"2277","2604.726"
"2278","2626.58"
"2279","2649.427"
"2280","2631.516"
"2281","2543.021"
"2282","2433.291"
"2283","2373.742"
"2284","2370.732"
"2285","2389.767"
"2286","2381.326"
"2287","2281.534"
"2288","2095.888"
"2289","1954.433"
"2290","1938.25"
"2291","1935.99"
"2292","1832.611"
"2293","1701.824"
"2294","1669.84"
"2295","1725.247"
"2296","1776.752"
"2297","1783.185"
"2298","1754.006"
"2299","1699.609"
"2300","1628.407"
