,"Scan 01130"
"400","11758.84"
"401","11764.58"
"402","11732.6"
"403","11652.33"
"404","11545.83"
"405","11445.5"
"406","11383.53"
"407","11386.94"
"408","11442.92"
"409","11519.53"
"410","11584.92"
"411","11609.62"
"412","11592.2"
"413","11550.71"
"414","11503.46"
"415","11468.1"
"416","11450.77"
"417","11446.36"
"418","11449.32"
"419","11454.23"
"420","11459.21"
"421","11467.13"
"422","11481.17"
"423","11504.47"
"424","11535.93"
"425","11566.7"
"426","11587.17"
"427","11587.79"
"428","11565.86"
"429","11535.64"
"430","11513.89"
"431","11517.26"
"432","11554.27"
"433","11606.26"
"434","11648.92"
"435","11658.16"
"436","11617.52"
"437","11544.58"
"438","11466.44"
"439","11410"
"440","11396.69"
"441","11416.38"
"442","11447.35"
"443","11468.05"
"444","11460.28"
"445","11431.12"
"446","11399.42"
"447","11383.96"
"448","11400.92"
"449","11441.35"
"450","11481.81"
"451","11498.82"
"452","11471.21"
"453","11406.03"
"454","11330.04"
"455","11270.25"
"456","11251.9"
"457","11273.08"
"458","11309.28"
"459","11335.49"
"460","11327.84"
"461","11285.06"
"462","11227.84"
"463","11177.6"
"464","11155.1"
"465","11164.29"
"466","11190.48"
"467","11218.04"
"468","11231.72"
"469","11224.94"
"470","11202.18"
"471","11168.58"
"472","11129.23"
"473","11088.77"
"474","11051.14"
"475","11020.25"
"476","10999.93"
"477","10991.74"
"478","10993.72"
"479","11003.68"
"480","11019.35"
"481","11036.64"
"482","11048.29"
"483","11046.79"
"484","11024.76"
"485","10982.63"
"486","10934.72"
"487","10896.69"
"488","10884.03"
"489","10900.49"
"490","10928.13"
"491","10946.71"
"492","10936.2"
"493","10888.7"
"494","10819.51"
"495","10746.46"
"496","10687.23"
"497","10650.96"
"498","10630.2"
"499","10615.64"
"500","10598.04"
"501","10572.56"
"502","10542.82"
"503","10513.39"
"504","10488.81"
"505","10470.37"
"506","10453.24"
"507","10431.9"
"508","10400.92"
"509","10358.33"
"510","10308.59"
"511","10256.84"
"512","10208.18"
"513","10166.76"
"514","10135.08"
"515","10115.47"
"516","10110.17"
"517","10116.35"
"518","10122.86"
"519","10117.78"
"520","10089.46"
"521","10036.88"
"522","9975.125"
"523","9920.601"
"524","9889.371"
"525","9886.398"
"526","9901.275"
"527","9922.516"
"528","9938.809"
"529","9943.072"
"530","9933.477"
"531","9908.53"
"532","9866.938"
"533","9812.635"
"534","9755.333"
"535","9704.986"
"536","9671.155"
"537","9655.9"
"538","9654.075"
"539","9660.256"
"540","9669.1"
"541","9676.026"
"542","9677.104"
"543","9668.439"
"544","9646.76"
"545","9616.819"
"546","9588.976"
"547","9573.648"
"548","9580.058"
"549","9605.628"
"550","9640.923"
"551","9676.46"
"552","9703.031"
"553","9713.219"
"554","9700.486"
"555","9658.329"
"556","9583.709"
"557","9494.802"
"558","9417.787"
"559","9378.729"
"560","9395.928"
"561","9451.186"
"562","9515.563"
"563","9560.264"
"564","9564.892"
"565","9539.181"
"566","9499.618"
"567","9462.619"
"568","9440.744"
"569","9436.192"
"570","9449.402"
"571","9480.771"
"572","9524.687"
"573","9563.212"
"574","9576.976"
"575","9547.013"
"576","9473.369"
"577","9385.21"
"578","9314.051"
"579","9290.392"
"580","9318.398"
"581","9372.211"
"582","9424.429"
"583","9449.084"
"584","9442.934"
"585","9421.845"
"586","9402.21"
"587","9398.998"
"588","9412.488"
"589","9434.009"
"590","9454.803"
"591","9467.184"
"592","9470.831"
"593","9468.582"
"594","9463.268"
"595","9456.978"
"596","9448.351"
"597","9435.018"
"598","9414.624"
"599","9387.021"
"600","9358.891"
"601","9338.215"
"602","9332.906"
"603","9345.524"
"604","9367.601"
"605","9389.336"
"606","9401.069"
"607","9397.598"
"608","9379.874"
"609","9349.304"
"610","9307.534"
"611","9261.342"
"612","9222.257"
"613","9201.942"
"614","9210.448"
"615","9240.667"
"616","9275.024"
"617","9295.858"
"618","9289.209"
"619","9264.243"
"620","9239.122"
"621","9231.96"
"622","9253.932"
"623","9289.941"
"624","9318.703"
"625","9319.05"
"626","9281.439"
"627","9222.985"
"628","9164.481"
"629","9126.389"
"630","9116.55"
"631","9124.94"
"632","9140.218"
"633","9151.473"
"634","9155.318"
"635","9154.966"
"636","9153.853"
"637","9155.046"
"638","9158.387"
"639","9162.003"
"640","9163.999"
"641","9162.534"
"642","9155.992"
"643","9142.821"
"644","9121.487"
"645","9094.029"
"646","9072.406"
"647","9070.245"
"648","9100.926"
"649","9164.611"
"650","9240.587"
"651","9306.346"
"652","9340.184"
"653","9335.112"
"654","9297.692"
"655","9234.971"
"656","9154.736"
"657","9071.655"
"658","9003.978"
"659","8969.935"
"660","8981.878"
"661","9025.562"
"662","9079.22"
"663","9121.183"
"664","9138.656"
"665","9139.907"
"666","9136.252"
"667","9138.756"
"668","9150.238"
"669","9162.859"
"670","9168.095"
"671","9158.129"
"672","9134.401"
"673","9104.902"
"674","9077.759"
"675","9059.923"
"676","9051.479"
"677","9049.929"
"678","9052.785"
"679","9058.022"
"680","9064.958"
"681","9073.163"
"682","9082.188"
"683","9089.991"
"684","9092.155"
"685","9084.071"
"686","9061.743"
"687","9030.464"
"688","9002.851"
"689","8991.689"
"690","9007.063"
"691","9041.687"
"692","9081.383"
"693","9111.988"
"694","9124.563"
"695","9125.741"
"696","9125.047"
"697","9131.863"
"698","9149.391"
"699","9171.856"
"700","9192.786"
"701","9205.891"
"702","9207.189"
"703","9194.393"
"704","9165.247"
"705","9119.467"
"706","9067.742"
"707","9024.555"
"708","9004.343"
"709","9014.252"
"710","9043.374"
"711","9078.062"
"712","9104.98"
"713","9119.786"
"714","9128.66"
"715","9138.375"
"716","9154.523"
"717","9171.42"
"718","9177.074"
"719","9159.454"
"720","9112.863"
"721","9056.546"
"722","9015.869"
"723","9015.919"
"724","9062.479"
"725","9128.118"
"726","9182.154"
"727","9195.875"
"728","9170.789"
"729","9132.445"
"730","9107.018"
"731","9115.255"
"732","9147.327"
"733","9182.639"
"734","9200.659"
"735","9190.695"
"736","9164.887"
"737","9138.584"
"738","9126.596"
"739","9131.298"
"740","9142.331"
"741","9148.78"
"742","9141.407"
"743","9123.235"
"744","9102.793"
"745","9088.606"
"746","9086.664"
"747","9095.672"
"748","9113.055"
"749","9136.245"
"750","9162.875"
"751","9190.816"
"752","9217.961"
"753","9242.108"
"754","9260.259"
"755","9269.008"
"756","9264.947"
"757","9247.716"
"758","9226.66"
"759","9213.05"
"760","9217.886"
"761","9242.642"
"762","9276.55"
"763","9308.065"
"764","9326.785"
"765","9332.689"
"766","9331.306"
"767","9328.195"
"768","9327.092"
"769","9325.796"
"770","9320.923"
"771","9309.244"
"772","9292.917"
"773","9280.878"
"774","9282.489"
"775","9305.532"
"776","9344.399"
"777","9386.695"
"778","9419.992"
"779","9436.675"
"780","9443.307"
"781","9449.033"
"782","9462.688"
"783","9484.153"
"784","9503.209"
"785","9509.101"
"786","9493.401"
"787","9464.401"
"788","9437.728"
"789","9428.995"
"790","9446.486"
"791","9480.483"
"792","9518.55"
"793","9548.644"
"794","9566.501"
"795","9575.107"
"796","9577.726"
"797","9577.136"
"798","9573.477"
"799","9565.97"
"800","9553.869"
"801","9539.434"
"802","9530.611"
"803","9535.972"
"804","9562.929"
"805","9603.554"
"806","9639.063"
"807","9650.455"
"808","9626.274"
"809","9584.615"
"810","9550.799"
"811","9549.644"
"812","9585.557"
"813","9635.35"
"814","9673.905"
"815","9679.84"
"816","9662.409"
"817","9645.918"
"818","9654.728"
"819","9699.026"
"820","9752.806"
"821","9784.37"
"822","9763.895"
"823","9696.99"
"824","9621.146"
"825","9574.961"
"826","9587.78"
"827","9643.606"
"828","9712.569"
"829","9765.051"
"830","9786.032"
"831","9783.525"
"832","9767.556"
"833","9747.854"
"834","9731.387"
"835","9723.596"
"836","9729.898"
"837","9751.856"
"838","9780.433"
"839","9804.785"
"840","9814.613"
"841","9810.41"
"842","9802.615"
"843","9802.048"
"844","9816.259"
"845","9837.114"
"846","9851.757"
"847","9847.559"
"848","9823.809"
"849","9797.521"
"850","9787.146"
"851","9808.5"
"852","9855.438"
"853","9910.881"
"854","9957.688"
"855","9983.297"
"856","9985.945"
"857","9965.448"
"858","9922.237"
"859","9866.159"
"860","9814.339"
"861","9784.085"
"862","9787.115"
"863","9814.166"
"864","9851.04"
"865","9883.808"
"866","9906.331"
"867","9921.443"
"868","9932.474"
"869","9942.556"
"870","9953.688"
"871","9967.458"
"872","9985.418"
"873","10006.77"
"874","10026.78"
"875","10040.33"
"876","10043.13"
"877","10037.99"
"878","10031.54"
"879","10030.41"
"880","10039.59"
"881","10060.12"
"882","10092.43"
"883","10136.42"
"884","10183.91"
"885","10220.78"
"886","10232.77"
"887","10212.06"
"888","10172.46"
"889","10132.34"
"890","10109.57"
"891","10110.95"
"892","10132.29"
"893","10168.92"
"894","10215.81"
"895","10266.12"
"896","10312.49"
"897","10347.69"
"898","10368.43"
"899","10376.63"
"900","10374.51"
"901","10364.52"
"902","10350.25"
"903","10335.73"
"904","10324.97"
"905","10319.73"
"906","10318.04"
"907","10317.59"
"908","10316.54"
"909","10317.12"
"910","10323.53"
"911","10339.93"
"912","10366.43"
"913","10394.64"
"914","10415.13"
"915","10419.58"
"916","10411.39"
"917","10401.1"
"918","10399.32"
"919","10410.22"
"920","10421.73"
"921","10419.25"
"922","10389.88"
"923","10343.85"
"924","10308.19"
"925","10310.26"
"926","10364.84"
"927","10448.62"
"928","10531.15"
"929","10583.26"
"930","10598.31"
"931","10588.6"
"932","10566.97"
"933","10543.25"
"934","10516.38"
"935","10482.95"
"936","10440.02"
"937","10395.37"
"938","10366.95"
"939","10373.09"
"940","10423.7"
"941","10494.75"
"942","10553.67"
"943","10569.07"
"944","10539.06"
"945","10492.79"
"946","10460.93"
"947","10466.65"
"948","10499.79"
"949","10540.91"
"950","10570.94"
"951","10581.75"
"952","10577.72"
"953","10563.86"
"954","10545.15"
"955","10526.12"
"956","10511.24"
"957","10504.84"
"958","10508.17"
"959","10518.73"
"960","10533.81"
"961","10550.12"
"962","10561.54"
"963","10561.04"
"964","10541.83"
"965","10505.32"
"966","10463.19"
"967","10427.73"
"968","10409.54"
"969","10410.41"
"970","10429.26"
"971","10464.84"
"972","10509.79"
"973","10549.02"
"974","10566.97"
"975","10552.17"
"976","10514.59"
"977","10471.17"
"978","10438.58"
"979","10423.57"
"980","10420.55"
"981","10423.13"
"982","10426.2"
"983","10431.17"
"984","10441.52"
"985","10460.59"
"986","10487.27"
"987","10515.04"
"988","10537.02"
"989","10547.51"
"990","10546.45"
"991","10535.47"
"992","10516.36"
"993","10494.93"
"994","10481.64"
"995","10487.22"
"996","10519.01"
"997","10568.75"
"998","10623.75"
"999","10671.5"
"1000","10704.81"
"1001","10722.29"
"1002","10722.81"
"1003","10706.72"
"1004","10680.64"
"1005","10652.78"
"1006","10631.38"
"1007","10621.96"
"1008","10623.26"
"1009","10632.95"
"1010","10648.59"
"1011","10666.37"
"1012","10681.69"
"1013","10689.95"
"1014","10690.12"
"1015","10688.15"
"1016","10690.78"
"1017","10703.72"
"1018","10724.54"
"1019","10747.09"
"1020","10765.28"
"1021","10775.48"
"1022","10777.8"
"1023","10772.65"
"1024","10761.43"
"1025","10750.96"
"1026","10749.82"
"1027","10766.29"
"1028","10799.54"
"1029","10838.69"
"1030","10872.37"
"1031","10891.9"
"1032","10898.77"
"1033","10896.77"
"1034","10889.69"
"1035","10880.69"
"1036","10872.47"
"1037","10867.71"
"1038","10868.63"
"1039","10876.31"
"1040","10891.64"
"1041","10914.95"
"1042","10941.37"
"1043","10963.25"
"1044","10973"
"1045","10968.78"
"1046","10958.06"
"1047","10949.18"
"1048","10948.92"
"1049","10955.55"
"1050","10964.48"
"1051","10971.2"
"1052","10974.09"
"1053","10974.57"
"1054","10974.19"
"1055","10974.06"
"1056","10973.96"
"1057","10973.35"
"1058","10972.29"
"1059","10977.54"
"1060","11000.26"
"1061","11051.56"
"1062","11130.07"
"1063","11210.68"
"1064","11265.61"
"1065","11272.4"
"1066","11241.65"
"1067","11196.56"
"1068","11159.94"
"1069","11142.64"
"1070","11142.21"
"1071","11155.48"
"1072","11178.22"
"1073","11202.73"
"1074","11220.59"
"1075","11224.48"
"1076","11219.73"
"1077","11219.65"
"1078","11237.53"
"1079","11274.35"
"1080","11309.55"
"1081","11320.36"
"1082","11290.57"
"1083","11238.78"
"1084","11195.15"
"1085","11188.48"
"1086","11219.39"
"1087","11262.05"
"1088","11289.63"
"1089","11286.99"
"1090","11269.17"
"1091","11255.99"
"1092","11264.16"
"1093","11285.39"
"1094","11299.44"
"1095","11286.44"
"1096","11244.85"
"1097","11196.45"
"1098","11164.53"
"1099","11163.44"
"1100","11175.74"
"1101","11176.98"
"1102","11145.74"
"1103","11094.43"
"1104","11056.63"
"1105","11065.82"
"1106","11127.67"
"1107","11203.22"
"1108","11249.48"
"1109","11235.22"
"1110","11181.51"
"1111","11123.98"
"1112","11096.24"
"1113","11102.95"
"1114","11127.24"
"1115","11151.79"
"1116","11165.17"
"1117","11166.9"
"1118","11157.7"
"1119","11139.88"
"1120","11123.71"
"1121","11122.01"
"1122","11146.41"
"1123","11189.15"
"1124","11226.7"
"1125","11235.14"
"1126","11205.64"
"1127","11159.28"
"1128","11120.7"
"1129","11108.89"
"1130","11112.84"
"1131","11111.66"
"1132","11086.01"
"1133","11042.69"
"1134","11009.9"
"1135","11016.35"
"1136","11070.6"
"1137","11141.97"
"1138","11195.24"
"1139","11203.76"
"1140","11183.94"
"1141","11165.72"
"1142","11176.86"
"1143","11213.13"
"1144","11245.93"
"1145","11246.27"
"1146","11205.11"
"1147","11148.47"
"1148","11105.9"
"1149","11099.38"
"1150","11117.93"
"1151","11141.63"
"1152","11152.43"
"1153","11154.36"
"1154","11165.84"
"1155","11205.11"
"1156","11269.02"
"1157","11323.29"
"1158","11331.14"
"1159","11273.55"
"1160","11192.07"
"1161","11141.15"
"1162","11167.49"
"1163","11250.84"
"1164","11336.81"
"1165","11372.21"
"1166","11347.16"
"1167","11300.17"
"1168","11272.27"
"1169","11285.73"
"1170","11316.42"
"1171","11333.15"
"1172","11312.04"
"1173","11271.89"
"1174","11247"
"1175","11269.27"
"1176","11332.64"
"1177","11400.92"
"1178","11437.39"
"1179","11426.95"
"1180","11390.69"
"1181","11353.13"
"1182","11333.17"
"1183","11328.87"
"1184","11333.48"
"1185","11340.62"
"1186","11347.08"
"1187","11351.3"
"1188","11351.88"
"1189","11351.75"
"1190","11358.38"
"1191","11379.43"
"1192","11416.54"
"1193","11458.21"
"1194","11491.22"
"1195","11505.18"
"1196","11503.17"
"1197","11492.24"
"1198","11479.49"
"1199","11471.94"
"1200","11476.63"
"1201","11500.3"
"1202","11538.65"
"1203","11573.95"
"1204","11587.64"
"1205","11570.05"
"1206","11533.3"
"1207","11492.82"
"1208","11462"
"1209","11443.89"
"1210","11438.12"
"1211","11444.05"
"1212","11457.48"
"1213","11471.88"
"1214","11480.83"
"1215","11482.54"
"1216","11480.91"
"1217","11480.22"
"1218","11483.67"
"1219","11491.89"
"1220","11505.15"
"1221","11523.01"
"1222","11541.51"
"1223","11555.69"
"1224","11560.98"
"1225","11557.25"
"1226","11546.97"
"1227","11532.64"
"1228","11517.8"
"1229","11507.01"
"1230","11504.9"
"1231","11513.19"
"1232","11527.89"
"1233","11544.36"
"1234","11558.92"
"1235","11571.72"
"1236","11583.79"
"1237","11596.23"
"1238","11610.76"
"1239","11629.39"
"1240","11653.88"
"1241","11682.18"
"1242","11709.16"
"1243","11729.61"
"1244","11740.32"
"1245","11740.91"
"1246","11731.23"
"1247","11713.42"
"1248","11695.49"
"1249","11686.38"
"1250","11693.14"
"1251","11713.8"
"1252","11743.72"
"1253","11778.04"
"1254","11810.1"
"1255","11832.27"
"1256","11837.39"
"1257","11827.55"
"1258","11813.33"
"1259","11805.56"
"1260","11810.59"
"1261","11827.92"
"1262","11856.45"
"1263","11890.94"
"1264","11915.15"
"1265","11911.07"
"1266","11869.16"
"1267","11819.61"
"1268","11804.15"
"1269","11857.29"
"1270","11952.76"
"1271","12033.83"
"1272","12046.82"
"1273","11991.96"
"1274","11913.77"
"1275","11857.48"
"1276","11840.96"
"1277","11845.94"
"1278","11851.68"
"1279","11845.49"
"1280","11831.88"
"1281","11817.59"
"1282","11807.74"
"1283","11801.48"
"1284","11796.67"
"1285","11791.48"
"1286","11785.96"
"1287","11780.83"
"1288","11777.26"
"1289","11780.93"
"1290","11800.18"
"1291","11842.49"
"1292","11896.88"
"1293","11935.5"
"1294","11930.39"
"1295","11882.04"
"1296","11830.82"
"1297","11820.01"
"1298","11868.19"
"1299","11940.52"
"1300","11995.12"
"1301","12003.21"
"1302","11980.48"
"1303","11952"
"1304","11938.37"
"1305","11935.9"
"1306","11932.79"
"1307","11919.08"
"1308","11900.65"
"1309","11891.47"
"1310","11904.2"
"1311","11931.24"
"1312","11949.73"
"1313","11937.27"
"1314","11895.15"
"1315","11850.63"
"1316","11832"
"1317","11847.05"
"1318","11871.12"
"1319","11876.68"
"1320","11851.09"
"1321","11815.98"
"1322","11797.76"
"1323","11814.35"
"1324","11854.72"
"1325","11901.71"
"1326","11939.68"
"1327","11960.5"
"1328","11958.4"
"1329","11930.06"
"1330","11890.29"
"1331","11862.05"
"1332","11865.72"
"1333","11891.96"
"1334","11912.8"
"1335","11901.49"
"1336","11859.59"
"1337","11813.11"
"1338","11788.22"
"1339","11790.81"
"1340","11803"
"1341","11805.74"
"1342","11792.72"
"1343","11777.76"
"1344","11776.42"
"1345","11794.44"
"1346","11816.54"
"1347","11824.72"
"1348","11809.88"
"1349","11788.69"
"1350","11782.51"
"1351","11805.31"
"1352","11841.97"
"1353","11870.12"
"1354","11871.97"
"1355","11854.11"
"1356","11831.28"
"1357","11816.75"
"1358","11813.01"
"1359","11817.81"
"1360","11828.57"
"1361","11839.59"
"1362","11843.43"
"1363","11833.49"
"1364","11815.68"
"1365","11804.97"
"1366","11815.69"
"1367","11844.83"
"1368","11873.37"
"1369","11882.09"
"1370","11862.85"
"1371","11820.25"
"1372","11759.75"
"1373","11695.59"
"1374","11654.36"
"1375","11663.34"
"1376","11723.11"
"1377","11787.34"
"1378","11805.11"
"1379","11755.78"
"1380","11684.12"
"1381","11643.42"
"1382","11664.36"
"1383","11717.71"
"1384","11764.4"
"1385","11777.8"
"1386","11771.54"
"1387","11767.41"
"1388","11780.61"
"1389","11800.35"
"1390","11809.38"
"1391","11794.48"
"1392","11761.5"
"1393","11721.98"
"1394","11686.88"
"1395","11664.03"
"1396","11660.11"
"1397","11679.51"
"1398","11711.13"
"1399","11737.38"
"1400","11742.72"
"1401","11728.4"
"1402","11703.75"
"1403","11677.79"
"1404","11655.9"
"1405","11641.41"
"1406","11637.21"
"1407","11640.99"
"1408","11647.17"
"1409","11650.49"
"1410","11650.37"
"1411","11649.5"
"1412","11650.47"
"1413","11652.68"
"1414","11653"
"1415","11648.71"
"1416","11645.07"
"1417","11654.32"
"1418","11687.82"
"1419","11734.05"
"1420","11759.68"
"1421","11732.19"
"1422","11659.18"
"1423","11589.62"
"1424","11573.03"
"1425","11620.29"
"1426","11699.46"
"1427","11776.78"
"1428","11832.97"
"1429","11865.83"
"1430","11874.48"
"1431","11870.58"
"1432","11881.38"
"1433","11934.47"
"1434","12027.64"
"1435","12119.58"
"1436","12166.95"
"1437","12159.52"
"1438","12132.38"
"1439","12123.4"
"1440","12143.39"
"1441","12164.84"
"1442","12157.73"
"1443","12114.93"
"1444","12062.59"
"1445","12029.3"
"1446","12030.43"
"1447","12061.8"
"1448","12117.41"
"1449","12179.34"
"1450","12211.85"
"1451","12178.38"
"1452","12079.3"
"1453","11970.29"
"1454","11910.75"
"1455","11917.71"
"1456","11945.31"
"1457","11943.16"
"1458","11894.28"
"1459","11830.46"
"1460","11786.95"
"1461","11777.71"
"1462","11786.36"
"1463","11794.31"
"1464","11789.1"
"1465","11766.78"
"1466","11724.27"
"1467","11667.74"
"1468","11615.73"
"1469","11587.14"
"1470","11582.71"
"1471","11580.21"
"1472","11556.38"
"1473","11503.97"
"1474","11434.87"
"1475","11362.15"
"1476","11300.77"
"1477","11267.74"
"1478","11279.14"
"1479","11324.42"
"1480","11365.14"
"1481","11362.98"
"1482","11310.93"
"1483","11232.29"
"1484","11151.43"
"1485","11089.2"
"1486","11063.32"
"1487","11089.48"
"1488","11151.66"
"1489","11208.36"
"1490","11220.11"
"1491","11186.04"
"1492","11133.31"
"1493","11088.39"
"1494","11061.93"
"1495","11054.34"
"1496","11064.39"
"1497","11076.4"
"1498","11066.37"
"1499","11015.39"
"1500","10948.7"
"1501","10913.7"
"1502","10948.58"
"1503","11024.08"
"1504","11081.56"
"1505","11073.97"
"1506","11025.39"
"1507","10986.43"
"1508","10997.58"
"1509","11047.87"
"1510","11110.13"
"1511","11158.74"
"1512","11174.89"
"1513","11141.54"
"1514","11055.3"
"1515","10960.26"
"1516","10910.85"
"1517","10937.48"
"1518","11001.79"
"1519","11053.25"
"1520","11060.46"
"1521","11036.9"
"1522","11002.49"
"1523","10973.24"
"1524","10957.75"
"1525","10963.58"
"1526","10985.31"
"1527","10997.23"
"1528","10972.57"
"1529","10909.69"
"1530","10838.9"
"1531","10791.64"
"1532","10777.43"
"1533","10783.24"
"1534","10795.55"
"1535","10809.67"
"1536","10828.13"
"1537","10852.82"
"1538","10875.46"
"1539","10881.13"
"1540","10858.04"
"1541","10822.62"
"1542","10805.67"
"1543","10830.7"
"1544","10873.58"
"1545","10891.48"
"1546","10854.35"
"1547","10793.23"
"1548","10757.34"
"1549","10779.4"
"1550","10833.94"
"1551","10882.68"
"1552","10900.34"
"1553","10895.77"
"1554","10883.27"
"1555","10874.61"
"1556","10876.57"
"1557","10895.08"
"1558","10921.75"
"1559","10927.28"
"1560","10882.28"
"1561","10798.17"
"1562","10730.73"
"1563","10733.88"
"1564","10795.69"
"1565","10851.15"
"1566","10840.17"
"1567","10769.56"
"1568","10685.61"
"1569","10629.76"
"1570","10605.66"
"1571","10600.93"
"1572","10604.7"
"1573","10613.49"
"1574","10626"
"1575","10642.29"
"1576","10666.96"
"1577","10705.44"
"1578","10753.16"
"1579","10782.97"
"1580","10765.09"
"1581","10700.61"
"1582","10639.02"
"1583","10632.45"
"1584","10685.7"
"1585","10751.5"
"1586","10782.33"
"1587","10767.52"
"1588","10724.79"
"1589","10672.64"
"1590","10629.89"
"1591","10615.55"
"1592","10642.88"
"1593","10692.32"
"1594","10732.71"
"1595","10742.04"
"1596","10731.93"
"1597","10721.66"
"1598","10721.59"
"1599","10720.88"
"1600","10705.82"
"1601","10675.35"
"1602","10648.21"
"1603","10644.01"
"1604","10661.47"
"1605","10677.59"
"1606","10670.53"
"1607","10645.97"
"1608","10628.53"
"1609","10639.34"
"1610","10671.16"
"1611","10704.11"
"1612","10720.93"
"1613","10716.25"
"1614","10687.98"
"1615","10644.64"
"1616","10623.32"
"1617","10665.38"
"1618","10770.36"
"1619","10867.31"
"1620","10881.14"
"1621","10808.25"
"1622","10721.5"
"1623","10691.41"
"1624","10711.9"
"1625","10725.08"
"1626","10684.16"
"1627","10624.57"
"1628","10615.97"
"1629","10701.21"
"1630","10817.33"
"1631","10875.63"
"1632","10831.72"
"1633","10742.97"
"1634","10680.16"
"1635","10677.15"
"1636","10716.75"
"1637","10777.67"
"1638","10832.93"
"1639","10850.75"
"1640","10806.47"
"1641","10737.34"
"1642","10711.87"
"1643","10776.53"
"1644","10874.58"
"1645","10919.54"
"1646","10868.19"
"1647","10788.62"
"1648","10765.54"
"1649","10822.73"
"1650","10893.65"
"1651","10907.86"
"1652","10858.31"
"1653","10793.11"
"1654","10757.46"
"1655","10755.86"
"1656","10772.4"
"1657","10792.86"
"1658","10811.15"
"1659","10823.42"
"1660","10823.15"
"1661","10797.53"
"1662","10733.46"
"1663","10643.07"
"1664","10571.75"
"1665","10563.51"
"1666","10608.81"
"1667","10658.12"
"1668","10667.45"
"1669","10636.77"
"1670","10584.06"
"1671","10526.51"
"1672","10478.35"
"1673","10453.1"
"1674","10455.59"
"1675","10475.07"
"1676","10499.28"
"1677","10518.8"
"1678","10526.99"
"1679","10518.07"
"1680","10492.89"
"1681","10455.83"
"1682","10412.8"
"1683","10376.23"
"1684","10360.19"
"1685","10364"
"1686","10354.81"
"1687","10297.05"
"1688","10199.24"
"1689","10120.31"
"1690","10115.05"
"1691","10164.3"
"1692","10204.26"
"1693","10185.22"
"1694","10129.1"
"1695","10079.42"
"1696","10060.22"
"1697","10050.07"
"1698","10022.05"
"1699","9980.948"
"1700","9969.128"
"1701","10025.39"
"1702","10125.89"
"1703","10208.63"
"1704","10224.93"
"1705","10192.04"
"1706","10146.71"
"1707","10113.73"
"1708","10091.48"
"1709","10075.05"
"1710","10066.08"
"1711","10073.48"
"1712","10103.64"
"1713","10135.72"
"1714","10134.04"
"1715","10076.5"
"1716","9996.795"
"1717","9942.636"
"1718","9939.29"
"1719","9970.226"
"1720","10014.14"
"1721","10046.69"
"1722","10040.75"
"1723","9976.92"
"1724","9891.593"
"1725","9845.338"
"1726","9873.607"
"1727","9934.665"
"1728","9972.797"
"1729","9969.177"
"1730","9956.713"
"1731","9968.814"
"1732","9997.387"
"1733","10006.66"
"1734","9971.24"
"1735","9918.167"
"1736","9890.011"
"1737","9907.153"
"1738","9944.274"
"1739","9971.491"
"1740","9982.545"
"1741","9993.59"
"1742","10018.34"
"1743","10046.91"
"1744","10059.28"
"1745","10046.26"
"1746","10030.01"
"1747","10037.66"
"1748","10071.19"
"1749","10100.76"
"1750","10097.81"
"1751","10067.1"
"1752","10032.41"
"1753","10011.84"
"1754","10000.98"
"1755","9990.156"
"1756","9973.022"
"1757","9948.573"
"1758","9917.241"
"1759","9892.189"
"1760","9895.518"
"1761","9939.666"
"1762","9990.848"
"1763","10002.01"
"1764","9959.229"
"1765","9910.628"
"1766","9907.417"
"1767","9938.728"
"1768","9943.498"
"1769","9875.907"
"1770","9780.327"
"1771","9731.104"
"1772","9761.182"
"1773","9817.308"
"1774","9838.314"
"1775","9816.747"
"1776","9792.093"
"1777","9798.57"
"1778","9830.639"
"1779","9868.599"
"1780","9897.656"
"1781","9913.72"
"1782","9914.727"
"1783","9910.82"
"1784","9922.984"
"1785","9964.565"
"1786","10002.99"
"1787","9989.559"
"1788","9912.911"
"1789","9840.168"
"1790","9843.017"
"1791","9897.644"
"1792","9899.263"
"1793","9773.347"
"1794","9619.611"
"1795","9594.384"
"1796","9748.571"
"1797","9930.824"
"1798","9977.309"
"1799","9881.807"
"1800","9757.988"
"1801","9698.887"
"1802","9688.934"
"1803","9682.146"
"1804","9666.399"
"1805","9685.233"
"1806","9780.051"
"1807","9907.354"
"1808","9969.19"
"1809","9903.191"
"1810","9781.034"
"1811","9703.66"
"1812","9707.681"
"1813","9744.343"
"1814","9762.996"
"1815","9747.814"
"1816","9700.541"
"1817","9634.996"
"1818","9597.908"
"1819","9638.938"
"1820","9742.07"
"1821","9824.855"
"1822","9817.974"
"1823","9748.722"
"1824","9679.829"
"1825","9645.923"
"1826","9625.984"
"1827","9594.871"
"1828","9560.841"
"1829","9556.38"
"1830","9602.495"
"1831","9672.381"
"1832","9727.578"
"1833","9739.503"
"1834","9692.903"
"1835","9580.814"
"1836","9455.786"
"1837","9399.146"
"1838","9449.149"
"1839","9536.118"
"1840","9577.629"
"1841","9563.448"
"1842","9546.378"
"1843","9566.988"
"1844","9597.758"
"1845","9591.9"
"1846","9549.07"
"1847","9539.328"
"1848","9625.949"
"1849","9756.832"
"1850","9818.882"
"1851","9751.013"
"1852","9630.979"
"1853","9555.296"
"1854","9544.697"
"1855","9552.545"
"1856","9541.286"
"1857","9526.732"
"1858","9539.589"
"1859","9581.905"
"1860","9614.332"
"1861","9601.053"
"1862","9561.766"
"1863","9543.09"
"1864","9568.392"
"1865","9606.414"
"1866","9620.291"
"1867","9606.154"
"1868","9585.462"
"1869","9574.236"
"1870","9565.484"
"1871","9547.272"
"1872","9523.085"
"1873","9514.364"
"1874","9537.357"
"1875","9570.687"
"1876","9579.179"
"1877","9549.667"
"1878","9507.216"
"1879","9479.056"
"1880","9475.869"
"1881","9499.105"
"1882","9544.41"
"1883","9592.88"
"1884","9624.232"
"1885","9633.771"
"1886","9629.265"
"1887","9617.534"
"1888","9600.505"
"1889","9579.01"
"1890","9555.156"
"1891","9532.482"
"1892","9514.317"
"1893","9502.474"
"1894","9498.292"
"1895","9504.442"
"1896","9525.612"
"1897","9562.945"
"1898","9589.418"
"1899","9565.277"
"1900","9486.514"
"1901","9420.599"
"1902","9435.279"
"1903","9508.75"
"1904","9565.107"
"1905","9556.961"
"1906","9513.59"
"1907","9475.104"
"1908","9457.679"
"1909","9459.102"
"1910","9476.719"
"1911","9507.999"
"1912","9549.58"
"1913","9580.632"
"1914","9563.715"
"1915","9480.696"
"1916","9397.59"
"1917","9399.75"
"1918","9484.671"
"1919","9549.457"
"1920","9512.854"
"1921","9434.058"
"1922","9415.381"
"1923","9476.451"
"1924","9525.868"
"1925","9484.368"
"1926","9395.671"
"1927","9348.892"
"1928","9369.961"
"1929","9387.423"
"1930","9336.134"
"1931","9255.377"
"1932","9228.821"
"1933","9284.095"
"1934","9351.968"
"1935","9363.777"
"1936","9333.134"
"1937","9312.699"
"1938","9325.259"
"1939","9336.907"
"1940","9313.412"
"1941","9272.904"
"1942","9260.361"
"1943","9296.08"
"1944","9350.511"
"1945","9391.186"
"1946","9414.348"
"1947","9431.696"
"1948","9445.831"
"1949","9440.182"
"1950","9399.298"
"1951","9341.438"
"1952","9303.451"
"1953","9305.316"
"1954","9331.204"
"1955","9360.314"
"1956","9367.856"
"1957","9326.979"
"1958","9240.703"
"1959","9173.512"
"1960","9188.149"
"1961","9260.716"
"1962","9321.104"
"1963","9331.097"
"1964","9316.36"
"1965","9305.633"
"1966","9289.502"
"1967","9239.544"
"1968","9159.059"
"1969","9110.003"
"1970","9147.742"
"1971","9226.474"
"1972","9253.873"
"1973","9195.266"
"1974","9113.178"
"1975","9071.397"
"1976","9077.627"
"1977","9116.024"
"1978","9162.872"
"1979","9182.89"
"1980","9150.335"
"1981","9101.566"
"1982","9094.458"
"1983","9142.285"
"1984","9200.456"
"1985","9225.901"
"1986","9202.634"
"1987","9124.338"
"1988","9023.207"
"1989","8973.771"
"1990","9025.534"
"1991","9118.052"
"1992","9165.942"
"1993","9140.248"
"1994","9063.427"
"1995","8965.298"
"1996","8892.9"
"1997","8892.614"
"1998","8951.063"
"1999","9010.868"
"2000","9036.589"
"2001","9050.299"
"2002","9078.448"
"2003","9102.182"
"2004","9076.592"
"2005","8983.108"
"2006","8854.235"
"2007","8729.527"
"2008","8656.802"
"2009","8686.378"
"2010","8804.764"
"2011","8906.241"
"2012","8904.041"
"2013","8848.04"
"2014","8829.679"
"2015","8873.84"
"2016","8933.896"
"2017","8965.047"
"2018","8942.392"
"2019","8848.335"
"2020","8709.378"
"2021","8586.395"
"2022","8526.411"
"2023","8539.224"
"2024","8622.146"
"2025","8708.835"
"2026","8698.917"
"2027","8574.955"
"2028","8462.306"
"2029","8475.536"
"2030","8578.701"
"2031","8681.435"
"2032","8734.358"
"2033","8736.045"
"2034","8694.987"
"2035","8647.05"
"2036","8631.89"
"2037","8646.025"
"2038","8652.398"
"2039","8628.759"
"2040","8590.484"
"2041","8557.94"
"2042","8546.697"
"2043","8569.385"
"2044","8607.167"
"2045","8593.822"
"2046","8485.898"
"2047","8372.159"
"2048","8375.742"
"2049","8482.922"
"2050","8550.113"
"2051","8491.078"
"2052","8399.617"
"2053","8388.743"
"2054","8437.81"
"2055","8449.281"
"2056","8384.998"
"2057","8308.689"
"2058","8278.85"
"2059","8271.635"
"2060","8237.788"
"2061","8181.85"
"2062","8162.097"
"2063","8217.987"
"2064","8326.397"
"2065","8450.355"
"2066","8529.989"
"2067","8493.097"
"2068","8338.338"
"2069","8179.844"
"2070","8116.574"
"2071","8116.585"
"2072","8110.123"
"2073","8090.02"
"2074","8105.97"
"2075","8178.009"
"2076","8244.526"
"2077","8239.886"
"2078","8173.69"
"2079","8092.564"
"2080","8040.832"
"2081","8059.266"
"2082","8162.994"
"2083","8266.836"
"2084","8268.942"
"2085","8180.238"
"2086","8092.2"
"2087","8059.027"
"2088","8059.181"
"2089","8064.232"
"2090","8056.343"
"2091","8022.249"
"2092","7967.522"
"2093","7916.195"
"2094","7884.246"
"2095","7864.092"
"2096","7846.908"
"2097","7845.193"
"2098","7880.552"
"2099","7927.982"
"2100","7903.046"
"2101","7762.69"
"2102","7622.361"
"2103","7617.131"
"2104","7714.597"
"2105","7780.861"
"2106","7776.199"
"2107","7812.032"
"2108","7965.742"
"2109","8106.944"
"2110","8062.776"
"2111","7865.633"
"2112","7698.303"
"2113","7657.751"
"2114","7674.093"
"2115","7672.653"
"2116","7649.034"
"2117","7621.208"
"2118","7604.392"
"2119","7611.407"
"2120","7641.243"
"2121","7664.09"
"2122","7653.871"
"2123","7627.341"
"2124","7615.171"
"2125","7620.509"
"2126","7621.625"
"2127","7602.793"
"2128","7563.811"
"2129","7512.733"
"2130","7494.744"
"2131","7564.288"
"2132","7678.798"
"2133","7705.76"
"2134","7587.137"
"2135","7441.436"
"2136","7388.25"
"2137","7405.026"
"2138","7417.765"
"2139","7384.228"
"2140","7291.358"
"2141","7167.636"
"2142","7129.189"
"2143","7264.827"
"2144","7441.999"
"2145","7460.946"
"2146","7312.42"
"2147","7148.508"
"2148","7071.059"
"2149","7071.773"
"2150","7125.146"
"2151","7184.498"
"2152","7200.597"
"2153","7185.33"
"2154","7196.068"
"2155","7249.515"
"2156","7290.435"
"2157","7270.493"
"2158","7200.927"
"2159","7109.017"
"2160","7025.634"
"2161","6983.508"
"2162","6991.251"
"2163","7023.029"
"2164","7053.088"
"2165","7065.069"
"2166","7049.168"
"2167","7035.24"
"2168","7070.907"
"2169","7134.357"
"2170","7125.452"
"2171","7003.013"
"2172","6886.478"
"2173","6887.338"
"2174","6910.618"
"2175","6794.692"
"2176","6594.93"
"2177","6550.356"
"2178","6736.876"
"2179","6917.098"
"2180","6888.856"
"2181","6750.073"
"2182","6665.63"
"2183","6649.693"
"2184","6625.771"
"2185","6576.737"
"2186","6564.513"
"2187","6613.717"
"2188","6627.172"
"2189","6514.215"
"2190","6375.164"
"2191","6379.125"
"2192","6507.018"
"2193","6574.561"
"2194","6496.312"
"2195","6379.997"
"2196","6328.661"
"2197","6339.398"
"2198","6379.755"
"2199","6394.241"
"2200","6317.056"
"2201","6169.815"
"2202","6075.812"
"2203","6109.956"
"2204","6215.494"
"2205","6318.114"
"2206","6355.534"
"2207","6277.35"
"2208","6139.179"
"2209","6069.445"
"2210","6101.595"
"2211","6132.429"
"2212","6091.833"
"2213","6037.765"
"2214","6039.844"
"2215","6090.822"
"2216","6153.141"
"2217","6193.317"
"2218","6181.735"
"2219","6124.111"
"2220","6082.002"
"2221","6094.735"
"2222","6112.839"
"2223","6079.661"
"2224","6016.008"
"2225","5973.943"
"2226","5969.88"
"2227","5989.519"
"2228","5990.082"
"2229","5883.985"
"2230","5648.012"
"2231","5484.459"
"2232","5593.044"
"2233","5829.13"
"2234","5915.381"
"2235","5805.176"
"2236","5641.435"
"2237","5529.772"
"2238","5508.732"
"2239","5581.257"
"2240","5659.472"
"2241","5653.43"
"2242","5569.577"
"2243","5451.638"
"2244","5345.958"
"2245","5299.607"
"2246","5307.137"
"2247","5291.691"
"2248","5226.05"
"2249","5223.866"
"2250","5372.236"
"2251","5507.638"
"2252","5411.887"
"2253","5140.18"
"2254","4908.99"
"2255","4813.015"
"2256","4810.278"
"2257","4860.857"
"2258","4943.171"
"2259","5026.279"
"2260","5035.728"
"2261","4906.366"
"2262","4723.541"
"2263","4633.748"
"2264","4653.406"
"2265","4691.764"
"2266","4678.361"
"2267","4577.304"
"2268","4406.305"
"2269","4317.322"
"2270","4425.72"
"2271","4553.113"
"2272","4460.384"
"2273","4214.665"
"2274","4049.596"
"2275","4034.702"
"2276","4075.606"
"2277","4101.323"
"2278","4093.178"
"2279","4044.725"
"2280","3971.498"
"2281","3887.582"
"2282","3774.93"
"2283","3610.458"
"2284","3440.025"
"2285","3349.26"
"2286","3348.925"
"2287","3370.765"
"2288","3369.038"
"2289","3344.877"
"2290","3304.799"
"2291","3257.077"
"2292","3205.232"
"2293","3124.338"
"2294","2985.345"
"2295","2819.96"
"2296","2694.116"
"2297","2627.138"
"2298","2591.791"
"2299","2560.965"
"2300","2511.091"
