,"Scan 01113"
"400","18130.19"
"401","18053.41"
"402","17985.67"
"403","17946.18"
"404","17929.29"
"405","17921.44"
"406","17909.13"
"407","17880.71"
"408","17838.61"
"409","17792.03"
"410","17750.14"
"411","17721.41"
"412","17705.84"
"413","17697.54"
"414","17690.56"
"415","17679.3"
"416","17665.41"
"417","17657.59"
"418","17664.77"
"419","17695.59"
"420","17748.17"
"421","17806.56"
"422","17853.91"
"423","17873.61"
"424","17859.7"
"425","17825.73"
"426","17787.28"
"427","17759.78"
"428","17752.5"
"429","17759.44"
"430","17772.31"
"431","17782.87"
"432","17785.24"
"433","17781.4"
"434","17774.96"
"435","17769.51"
"436","17768.1"
"437","17771.51"
"438","17779.81"
"439","17793.13"
"440","17810.77"
"441","17827.45"
"442","17836.16"
"443","17829.97"
"444","17803.43"
"445","17762.27"
"446","17717.42"
"447","17679.78"
"448","17658.92"
"449","17651.94"
"450","17648.68"
"451","17639"
"452","17613.73"
"453","17576.08"
"454","17537.92"
"455","17511.18"
"456","17506.89"
"457","17521.31"
"458","17538.43"
"459","17542"
"460","17516.59"
"461","17463.76"
"462","17401.5"
"463","17348.38"
"464","17322.29"
"465","17324.93"
"466","17339.9"
"467","17349.97"
"468","17338.35"
"469","17301.4"
"470","17252.06"
"471","17204.26"
"472","17171.66"
"473","17159.82"
"474","17162.9"
"475","17174.23"
"476","17187.19"
"477","17197.41"
"478","17203.86"
"479","17205.83"
"480","17202.64"
"481","17194.51"
"482","17183.24"
"483","17170.78"
"484","17159.04"
"485","17148.08"
"486","17134.71"
"487","17115.44"
"488","17086.79"
"489","17049.23"
"490","17010.47"
"491","16978.99"
"492","16963.17"
"493","16965.7"
"494","16978.38"
"495","16991.82"
"496","16996.73"
"497","16986.54"
"498","16960.03"
"499","16916.62"
"500","16855.72"
"501","16780.1"
"502","16698.96"
"503","16622.22"
"504","16559.68"
"505","16515.09"
"506","16480.69"
"507","16447.45"
"508","16406.47"
"509","16354.25"
"510","16297.33"
"511","16243.26"
"512","16199.56"
"513","16169.78"
"514","16150.64"
"515","16138.16"
"516","16128.39"
"517","16118.47"
"518","16107.26"
"519","16093.79"
"520","16077.09"
"521","16056.61"
"522","16032.35"
"523","16004.36"
"524","15972.76"
"525","15939.69"
"526","15910.16"
"527","15889.35"
"528","15882.25"
"529","15887.49"
"530","15895.76"
"531","15897.33"
"532","15882.77"
"533","15850.22"
"534","15806.16"
"535","15757.46"
"536","15710.9"
"537","15672.42"
"538","15647.12"
"539","15640"
"540","15655.4"
"541","15686.11"
"542","15715.4"
"543","15726.34"
"544","15703.64"
"545","15652.29"
"546","15591.52"
"547","15540.76"
"548","15517.62"
"549","15522.15"
"550","15544.21"
"551","15573.54"
"552","15600.31"
"553","15617.55"
"554","15619.7"
"555","15601.19"
"556","15558.96"
"557","15505.01"
"558","15457.05"
"559","15432.73"
"560","15444.23"
"561","15478.35"
"562","15514.35"
"563","15531.61"
"564","15516.07"
"565","15477.14"
"566","15429.54"
"567","15387.88"
"568","15362.93"
"569","15355.07"
"570","15362.89"
"571","15384.99"
"572","15416.29"
"573","15444.19"
"574","15455.23"
"575","15436.2"
"576","15385.74"
"577","15320.69"
"578","15259.33"
"579","15219.47"
"580","15207.05"
"581","15214.44"
"582","15233.3"
"583","15255.53"
"584","15276.61"
"585","15295.04"
"586","15309.39"
"587","15318.36"
"588","15321.56"
"589","15319.21"
"590","15311.5"
"591","15298.78"
"592","15282.3"
"593","15263.72"
"594","15244.69"
"595","15226.89"
"596","15212.26"
"597","15202.79"
"598","15200.47"
"599","15206.42"
"600","15219.15"
"601","15236.64"
"602","15256.88"
"603","15276.19"
"604","15287.37"
"605","15282.85"
"606","15255.27"
"607","15205.99"
"608","15148.37"
"609","15096.66"
"610","15064.53"
"611","15055.77"
"612","15065"
"613","15086.52"
"614","15114.58"
"615","15142.81"
"616","15164.44"
"617","15172.73"
"618","15162.64"
"619","15139.77"
"620","15113.85"
"621","15094.59"
"622","15088.44"
"623","15089.58"
"624","15089.26"
"625","15078.81"
"626","15053.29"
"627","15016.37"
"628","14972.92"
"629","14927.79"
"630","14885.65"
"631","14850.93"
"632","14828.04"
"633","14821.14"
"634","14830.18"
"635","14851.4"
"636","14880.95"
"637","14914.78"
"638","14947.13"
"639","14971.32"
"640","14980.65"
"641","14970.59"
"642","14947.05"
"643","14919.21"
"644","14896.2"
"645","14884.52"
"646","14883.44"
"647","14890.99"
"648","14905.22"
"649","14924.25"
"650","14946.35"
"651","14969.79"
"652","14992.74"
"653","15011.18"
"654","15019.04"
"655","15010.22"
"656","14980.25"
"657","14939.13"
"658","14904.5"
"659","14893.97"
"660","14919.9"
"661","14970.66"
"662","15027.86"
"663","15073.16"
"664","15093.76"
"665","15089.94"
"666","15063.89"
"667","15017.96"
"668","14961.72"
"669","14914.07"
"670","14894.46"
"671","14920.37"
"672","14983.52"
"673","15057.34"
"674","15114.96"
"675","15133.98"
"676","15118.91"
"677","15084.27"
"678","15044.59"
"679","15010.86"
"680","14983.82"
"681","14962.28"
"682","14945.11"
"683","14931.97"
"684","14923.77"
"685","14921.53"
"686","14926.23"
"687","14938.42"
"688","14958.36"
"689","14986.24"
"690","15021.25"
"691","15055.74"
"692","15079.35"
"693","15081.73"
"694","15058.24"
"695","15021.2"
"696","14986.07"
"697","14968.06"
"698","14971.38"
"699","14984.23"
"700","14993.6"
"701","14987.52"
"702","14968.22"
"703","14948.25"
"704","14940.37"
"705","14954.13"
"706","14981.25"
"707","15007.27"
"708","15017.79"
"709","15005.36"
"710","14979.72"
"711","14953.25"
"712","14938.04"
"713","14938.53"
"714","14950.12"
"715","14967.73"
"716","14986.6"
"717","15004.84"
"718","15022.23"
"719","15038.54"
"720","15053.31"
"721","15065.16"
"722","15072.43"
"723","15073.55"
"724","15069"
"725","15062.87"
"726","15059.62"
"727","15063.37"
"728","15073.29"
"729","15084.6"
"730","15092.44"
"731","15093.02"
"732","15088.73"
"733","15084.16"
"734","15083.84"
"735","15090.31"
"736","15101.33"
"737","15114.01"
"738","15125.49"
"739","15133.15"
"740","15134.65"
"741","15127.67"
"742","15111.01"
"743","15091.76"
"744","15080.74"
"745","15088.73"
"746","15120.01"
"747","15160.2"
"748","15191.62"
"749","15197.1"
"750","15175.45"
"751","15144.63"
"752","15123.7"
"753","15129.4"
"754","15158.48"
"755","15197.45"
"756","15232.76"
"757","15255.34"
"758","15270.45"
"759","15286.15"
"760","15310.3"
"761","15342.29"
"762","15370.65"
"763","15383.22"
"764","15369.87"
"765","15339.03"
"766","15309.03"
"767","15298.24"
"768","15317.42"
"769","15352.63"
"770","15385.03"
"771","15396.21"
"772","15383.74"
"773","15365.25"
"774","15359.6"
"775","15383.19"
"776","15431.37"
"777","15488.82"
"778","15540.16"
"779","15574.65"
"780","15595.21"
"781","15607.24"
"782","15616.02"
"783","15623.13"
"784","15625.91"
"785","15621.53"
"786","15608.43"
"787","15594.53"
"788","15591.88"
"789","15612.51"
"790","15659.68"
"791","15715.1"
"792","15757.2"
"793","15765.56"
"794","15741.78"
"795","15708.05"
"796","15687.33"
"797","15697.3"
"798","15726.47"
"799","15753.34"
"800","15756.49"
"801","15728.74"
"802","15689.69"
"803","15661.91"
"804","15666.04"
"805","15697.55"
"806","15734.01"
"807","15752.68"
"808","15738.52"
"809","15706.8"
"810","15680.22"
"811","15681.06"
"812","15715.45"
"813","15767.68"
"814","15820.51"
"815","15858.6"
"816","15882.14"
"817","15899"
"818","15917.04"
"819","15940.03"
"820","15961.14"
"821","15971.89"
"822","15964.34"
"823","15941.01"
"824","15913.81"
"825","15894.97"
"826","15894.16"
"827","15908.45"
"828","15931.03"
"829","15955.14"
"830","15974.46"
"831","15983.41"
"832","15976.48"
"833","15949.64"
"834","15913.1"
"835","15884.87"
"836","15883.03"
"837","15916.43"
"838","15968.52"
"839","16018.47"
"840","16046.24"
"841","16048.41"
"842","16036.88"
"843","16024.14"
"844","16019.76"
"845","16019.39"
"846","16014.51"
"847","15996.79"
"848","15968.04"
"849","15945.2"
"850","15946.42"
"851","15986.9"
"852","16057.23"
"853","16135.74"
"854","16200.72"
"855","16238.87"
"856","16256.91"
"857","16264.41"
"858","16270.38"
"859","16274.89"
"860","16271.16"
"861","16252.18"
"862","16215.99"
"863","16179.31"
"864","16163.29"
"865","16188.28"
"866","16251.37"
"867","16322.85"
"868","16371.53"
"869","16372.56"
"870","16337.94"
"871","16293.04"
"872","16263.12"
"873","16263.24"
"874","16291.47"
"875","16344.24"
"876","16416.97"
"877","16495.87"
"878","16562.25"
"879","16597.43"
"880","16592.72"
"881","16563.29"
"882","16527.78"
"883","16504"
"884","16497.65"
"885","16505.54"
"886","16524.24"
"887","16549.63"
"888","16575.18"
"889","16593.87"
"890","16599.24"
"891","16597.5"
"892","16607.45"
"893","16648.42"
"894","16731.77"
"895","16831.88"
"896","16912.41"
"897","16937.84"
"898","16904.36"
"899","16849.29"
"900","16812.66"
"901","16827.22"
"902","16880.15"
"903","16941.07"
"904","16979.81"
"905","16982.53"
"906","16962.43"
"907","16935.24"
"908","16915.33"
"909","16905.75"
"910","16904.01"
"911","16907.6"
"912","16914.09"
"913","16921.3"
"914","16927.09"
"915","16929.81"
"916","16933.38"
"917","16945.05"
"918","16972.13"
"919","17014.38"
"920","17052.54"
"921","17064.4"
"922","17030.35"
"923","16966.08"
"924","16912.78"
"925","16912.24"
"926","16986.42"
"927","17097.37"
"928","17195.88"
"929","17235.25"
"930","17212.47"
"931","17161.13"
"932","17115.97"
"933","17101.7"
"934","17107.43"
"935","17114.43"
"936","17104.87"
"937","17079.48"
"938","17056.68"
"939","17055.57"
"940","17087.79"
"941","17134.87"
"942","17170.76"
"943","17170.5"
"944","17135.88"
"945","17096.9"
"946","17084.92"
"947","17121.43"
"948","17184.15"
"949","17238.59"
"950","17251.14"
"951","17214.52"
"952","17151.39"
"953","17086.07"
"954","17039.62"
"955","17017.44"
"956","17020.27"
"957","17048.59"
"958","17095.47"
"959","17145.03"
"960","17180.82"
"961","17190.16"
"962","17179.13"
"963","17159.79"
"964","17144.01"
"965","17137.81"
"966","17139.87"
"967","17148.42"
"968","17161.38"
"969","17174.86"
"970","17184.43"
"971","17185.75"
"972","17178.3"
"973","17166.37"
"974","17154.57"
"975","17146.3"
"976","17138.72"
"977","17126.94"
"978","17106.24"
"979","17076.51"
"980","17043.46"
"981","17013.18"
"982","16992.04"
"983","16987.91"
"984","17009.14"
"985","17063.61"
"986","17144.44"
"987","17226.7"
"988","17284.38"
"989","17297.79"
"990","17278.08"
"991","17245.82"
"992","17221.24"
"993","17214.09"
"994","17221.93"
"995","17241.67"
"996","17269.82"
"997","17301.22"
"998","17330.19"
"999","17351.24"
"1000","17364.05"
"1001","17373.86"
"1002","17386.22"
"1003","17405.46"
"1004","17430.89"
"1005","17460.49"
"1006","17492.22"
"1007","17523.87"
"1008","17552.6"
"1009","17575.49"
"1010","17589.49"
"1011","17589.88"
"1012","17570.98"
"1013","17527.21"
"1014","17465.08"
"1015","17414.93"
"1016","17409.92"
"1017","17476.02"
"1018","17585.34"
"1019","17685.39"
"1020","17724.21"
"1021","17687.25"
"1022","17615.82"
"1023","17555.84"
"1024","17544.78"
"1025","17574.72"
"1026","17622.63"
"1027","17665.85"
"1028","17692.84"
"1029","17704.39"
"1030","17701.9"
"1031","17688.25"
"1032","17671.88"
"1033","17662.52"
"1034","17669.22"
"1035","17690.72"
"1036","17717.68"
"1037","17740.57"
"1038","17755.74"
"1039","17774.12"
"1040","17808.85"
"1041","17870.72"
"1042","17948.92"
"1043","18021.17"
"1044","18065.26"
"1045","18071.62"
"1046","18051.19"
"1047","18016.8"
"1048","17980.69"
"1049","17951.88"
"1050","17938.28"
"1051","17947.52"
"1052","17980.05"
"1053","18028.82"
"1054","18086.41"
"1055","18144.21"
"1056","18189.87"
"1057","18210.21"
"1058","18193.9"
"1059","18151.11"
"1060","18106.07"
"1061","18083.12"
"1062","18093.41"
"1063","18122.93"
"1064","18154.82"
"1065","18174.99"
"1066","18186.37"
"1067","18198.37"
"1068","18220.09"
"1069","18250.96"
"1070","18279.72"
"1071","18294.5"
"1072","18289.1"
"1073","18275.85"
"1074","18270.92"
"1075","18288.65"
"1076","18322.99"
"1077","18355.04"
"1078","18365.82"
"1079","18348.67"
"1080","18318.54"
"1081","18292.54"
"1082","18284.26"
"1083","18288.4"
"1084","18293.35"
"1085","18288.21"
"1086","18275.77"
"1087","18271.73"
"1088","18292.23"
"1089","18342.95"
"1090","18402.56"
"1091","18445.4"
"1092","18449.63"
"1093","18423.98"
"1094","18391.79"
"1095","18376.05"
"1096","18382.06"
"1097","18392.51"
"1098","18388.65"
"1099","18358.02"
"1100","18310.52"
"1101","18260.99"
"1102","18223.67"
"1103","18206.05"
"1104","18211.39"
"1105","18242.75"
"1106","18293.67"
"1107","18342.44"
"1108","18365.95"
"1109","18348.76"
"1110","18309.47"
"1111","18276.16"
"1112","18275.04"
"1113","18305.73"
"1114","18348.13"
"1115","18381.72"
"1116","18394.69"
"1117","18391.47"
"1118","18378.26"
"1119","18361.01"
"1120","18344.38"
"1121","18332.59"
"1122","18329.56"
"1123","18333.62"
"1124","18338.61"
"1125","18338.27"
"1126","18332.96"
"1127","18336.2"
"1128","18363.11"
"1129","18422.86"
"1130","18493.23"
"1131","18541.66"
"1132","18537.63"
"1133","18485.15"
"1134","18416.5"
"1135","18364.71"
"1136","18348.13"
"1137","18356.45"
"1138","18376.09"
"1139","18395.42"
"1140","18412.83"
"1141","18429.84"
"1142","18447.71"
"1143","18463.72"
"1144","18472.16"
"1145","18467.29"
"1146","18450.45"
"1147","18435.37"
"1148","18437.02"
"1149","18465"
"1150","18505.43"
"1151","18538.08"
"1152","18544.83"
"1153","18532.27"
"1154","18523.12"
"1155","18540.03"
"1156","18586.79"
"1157","18639.8"
"1158","18673.28"
"1159","18672.11"
"1160","18657.69"
"1161","18659.16"
"1162","18701.04"
"1163","18767.65"
"1164","18822.83"
"1165","18831.47"
"1166","18793.57"
"1167","18748.42"
"1168","18737.33"
"1169","18779.51"
"1170","18839.5"
"1171","18873.57"
"1172","18847.34"
"1173","18781.3"
"1174","18715.84"
"1175","18689.33"
"1176","18707.57"
"1177","18750.52"
"1178","18797.54"
"1179","18835.42"
"1180","18863.48"
"1181","18882.18"
"1182","18892.05"
"1183","18893.75"
"1184","18887.98"
"1185","18876.04"
"1186","18864.25"
"1187","18861.52"
"1188","18876.31"
"1189","18905.87"
"1190","18935.48"
"1191","18949.9"
"1192","18944.07"
"1193","18935.06"
"1194","18942.88"
"1195","18982.31"
"1196","19043.52"
"1197","19109.34"
"1198","19163.09"
"1199","19193.63"
"1200","19193.26"
"1201","19154.86"
"1202","19090.64"
"1203","19036.48"
"1204","19029.67"
"1205","19084.52"
"1206","19159.1"
"1207","19202.98"
"1208","19178.01"
"1209","19109.89"
"1210","19044.88"
"1211","19025.74"
"1212","19053.64"
"1213","19102.87"
"1214","19147.57"
"1215","19173.62"
"1216","19181.37"
"1217","19172.06"
"1218","19150.81"
"1219","19131.93"
"1220","19131.05"
"1221","19159.11"
"1222","19204.36"
"1223","19248.28"
"1224","19273.86"
"1225","19279.87"
"1226","19274.23"
"1227","19264.98"
"1228","19259.25"
"1229","19263.25"
"1230","19283.09"
"1231","19317.63"
"1232","19351.48"
"1233","19367.55"
"1234","19355.44"
"1235","19330.11"
"1236","19312.53"
"1237","19320.55"
"1238","19348.52"
"1239","19380.18"
"1240","19399.97"
"1241","19405.34"
"1242","19404.33"
"1243","19405.21"
"1244","19413.71"
"1245","19431.88"
"1246","19461.47"
"1247","19499.16"
"1248","19528.61"
"1249","19531.4"
"1250","19496.55"
"1251","19448.55"
"1252","19422.41"
"1253","19448.18"
"1254","19510.36"
"1255","19569.16"
"1256","19586.46"
"1257","19561.53"
"1258","19527.8"
"1259","19519.57"
"1260","19546.43"
"1261","19580.11"
"1262","19589.1"
"1263","19558.3"
"1264","19515.88"
"1265","19497.08"
"1266","19528.11"
"1267","19592.94"
"1268","19663.27"
"1269","19713.18"
"1270","19736.69"
"1271","19737.83"
"1272","19720.96"
"1273","19694.81"
"1274","19671.66"
"1275","19663.66"
"1276","19672.05"
"1277","19683.72"
"1278","19684.57"
"1279","19667.07"
"1280","19637.87"
"1281","19605.4"
"1282","19576.68"
"1283","19553.53"
"1284","19536.67"
"1285","19526.7"
"1286","19523.71"
"1287","19527.59"
"1288","19537.85"
"1289","19550.13"
"1290","19557.77"
"1291","19554.7"
"1292","19547.36"
"1293","19553.72"
"1294","19591.78"
"1295","19659.95"
"1296","19729.14"
"1297","19768.28"
"1298","19765.38"
"1299","19749.82"
"1300","19756.36"
"1301","19804.3"
"1302","19860.26"
"1303","19879.72"
"1304","19830.72"
"1305","19748.9"
"1306","19692.49"
"1307","19711.31"
"1308","19782.61"
"1309","19846.56"
"1310","19847.24"
"1311","19790.21"
"1312","19727.51"
"1313","19710.72"
"1314","19747.66"
"1315","19798.1"
"1316","19819.77"
"1317","19798.64"
"1318","19765.41"
"1319","19754.71"
"1320","19784.63"
"1321","19835.24"
"1322","19881.25"
"1323","19903.13"
"1324","19900.82"
"1325","19878.39"
"1326","19841.04"
"1327","19799.47"
"1328","19766.14"
"1329","19752.2"
"1330","19759.18"
"1331","19784.28"
"1332","19824.28"
"1333","19871.57"
"1334","19915.73"
"1335","19946.33"
"1336","19953.25"
"1337","19926.64"
"1338","19857.41"
"1339","19759.77"
"1340","19675.2"
"1341","19646.28"
"1342","19683.82"
"1343","19748.35"
"1344","19796.02"
"1345","19803.3"
"1346","19789.98"
"1347","19781.48"
"1348","19793.46"
"1349","19813.22"
"1350","19822.98"
"1351","19812.1"
"1352","19798.26"
"1353","19806.19"
"1354","19854.14"
"1355","19925.82"
"1356","19993.41"
"1357","20031.63"
"1358","20033.85"
"1359","20001.68"
"1360","19938.39"
"1361","19863.28"
"1362","19804.82"
"1363","19789.41"
"1364","19813.03"
"1365","19849.37"
"1366","19872.46"
"1367","19872.79"
"1368","19856.01"
"1369","19828.36"
"1370","19797.08"
"1371","19770.53"
"1372","19756.99"
"1373","19758.21"
"1374","19766.57"
"1375","19773.81"
"1376","19774.3"
"1377","19767.14"
"1378","19751.9"
"1379","19731.9"
"1380","19718.36"
"1381","19723.57"
"1382","19750.34"
"1383","19776.35"
"1384","19775.15"
"1385","19732.2"
"1386","19671.48"
"1387","19624.81"
"1388","19615.71"
"1389","19635.06"
"1390","19665.69"
"1391","19692.91"
"1392","19714.08"
"1393","19730.14"
"1394","19740.78"
"1395","19738.87"
"1396","19714.8"
"1397","19663.07"
"1398","19605.78"
"1399","19576.59"
"1400","19602.47"
"1401","19656.05"
"1402","19683.72"
"1403","19639.27"
"1404","19548.95"
"1405","19479.18"
"1406","19490"
"1407","19564.47"
"1408","19637.27"
"1409","19647.14"
"1410","19597.13"
"1411","19535.72"
"1412","19509.88"
"1413","19527.89"
"1414","19567.56"
"1415","19606.61"
"1416","19636"
"1417","19658.2"
"1418","19675.74"
"1419","19684.76"
"1420","19675.29"
"1421","19637.8"
"1422","19578.76"
"1423","19521.12"
"1424","19488.08"
"1425","19487.99"
"1426","19512.71"
"1427","19553.2"
"1428","19598.68"
"1429","19636.35"
"1430","19653.75"
"1431","19656.33"
"1432","19671.97"
"1433","19729.17"
"1434","19823.76"
"1435","19908.54"
"1436","19934.2"
"1437","19889.98"
"1438","19817.96"
"1439","19763.66"
"1440","19749.33"
"1441","19764.29"
"1442","19795.34"
"1443","19827.92"
"1444","19845.6"
"1445","19832.2"
"1446","19793.38"
"1447","19767.25"
"1448","19793.84"
"1449","19876.59"
"1450","19964.24"
"1451","20001.6"
"1452","19966"
"1453","19883.43"
"1454","19783.87"
"1455","19695.19"
"1456","19642.22"
"1457","19648.95"
"1458","19709.2"
"1459","19772.71"
"1460","19786.45"
"1461","19735.37"
"1462","19658.66"
"1463","19599.05"
"1464","19571.8"
"1465","19554.09"
"1466","19520.82"
"1467","19466.84"
"1468","19413.51"
"1469","19383.55"
"1470","19382.22"
"1471","19392.56"
"1472","19396.38"
"1473","19379.89"
"1474","19334.69"
"1475","19253.62"
"1476","19156.58"
"1477","19093.92"
"1478","19115.04"
"1479","19205.1"
"1480","19281.96"
"1481","19263.98"
"1482","19151.29"
"1483","19023.03"
"1484","18958.28"
"1485","18973.49"
"1486","19029.61"
"1487","19086.63"
"1488","19121.08"
"1489","19122.8"
"1490","19083.9"
"1491","19022.42"
"1492","18975.31"
"1493","18976.57"
"1494","19020.68"
"1495","19076.51"
"1496","19114.4"
"1497","19124.08"
"1498","19106.42"
"1499","19063.98"
"1500","19012.23"
"1501","18973.15"
"1502","18965.58"
"1503","18985.19"
"1504","19017.56"
"1505","19048.83"
"1506","19068.74"
"1507","19068.36"
"1508","19041.74"
"1509","18997.92"
"1510","18950.7"
"1511","18912.46"
"1512","18889.58"
"1513","18886.88"
"1514","18905.26"
"1515","18932.07"
"1516","18951.7"
"1517","18954.31"
"1518","18946.74"
"1519","18938.75"
"1520","18935.34"
"1521","18930.4"
"1522","18916.31"
"1523","18893.08"
"1524","18875.41"
"1525","18879.38"
"1526","18902.25"
"1527","18912.05"
"1528","18875.03"
"1529","18787.55"
"1530","18684.2"
"1531","18601.21"
"1532","18554.21"
"1533","18537.73"
"1534","18544.94"
"1535","18562.58"
"1536","18572.03"
"1537","18556.69"
"1538","18525.42"
"1539","18503.67"
"1540","18514.02"
"1541","18551.41"
"1542","18596.71"
"1543","18632.18"
"1544","18650.07"
"1545","18646.52"
"1546","18622.4"
"1547","18600.9"
"1548","18611.89"
"1549","18670.52"
"1550","18739.95"
"1551","18771.96"
"1552","18743.13"
"1553","18695.09"
"1554","18679.7"
"1555","18718.76"
"1556","18775.59"
"1557","18807.17"
"1558","18794.07"
"1559","18751.11"
"1560","18695.68"
"1561","18642.1"
"1562","18601.28"
"1563","18583.2"
"1564","18585.1"
"1565","18593.98"
"1566","18597.51"
"1567","18593.12"
"1568","18584.04"
"1569","18573.34"
"1570","18562.4"
"1571","18551.88"
"1572","18540.96"
"1573","18521.85"
"1574","18484.67"
"1575","18429.2"
"1576","18386.76"
"1577","18395.02"
"1578","18464.08"
"1579","18542.02"
"1580","18569.02"
"1581","18524.83"
"1582","18451.38"
"1583","18395.16"
"1584","18376.19"
"1585","18385.37"
"1586","18411.96"
"1587","18443.17"
"1588","18464.64"
"1589","18464.71"
"1590","18456.46"
"1591","18466.05"
"1592","18511.79"
"1593","18566.38"
"1594","18586.43"
"1595","18546.69"
"1596","18488.55"
"1597","18468.59"
"1598","18511.2"
"1599","18564.61"
"1600","18566.69"
"1601","18500.66"
"1602","18420.54"
"1603","18384.81"
"1604","18407.48"
"1605","18456.42"
"1606","18498.64"
"1607","18518.1"
"1608","18510.44"
"1609","18474.64"
"1610","18432.79"
"1611","18417.21"
"1612","18450.01"
"1613","18508.01"
"1614","18555.48"
"1615","18568.15"
"1616","18552.78"
"1617","18521.32"
"1618","18489.46"
"1619","18479.06"
"1620","18511.38"
"1621","18575.63"
"1622","18626.63"
"1623","18621.26"
"1624","18562.9"
"1625","18486.37"
"1626","18424.6"
"1627","18393.35"
"1628","18401.22"
"1629","18449.34"
"1630","18509.34"
"1631","18545.75"
"1632","18539.27"
"1633","18507.75"
"1634","18474.1"
"1635","18454.61"
"1636","18456.33"
"1637","18484.55"
"1638","18524.9"
"1639","18546.44"
"1640","18522.53"
"1641","18467.35"
"1642","18415.71"
"1643","18395.54"
"1644","18401.98"
"1645","18420.76"
"1646","18439.73"
"1647","18452.18"
"1648","18452.43"
"1649","18441.81"
"1650","18432.1"
"1651","18435.31"
"1652","18452.32"
"1653","18474.35"
"1654","18492.92"
"1655","18505.06"
"1656","18510.58"
"1657","18509.62"
"1658","18503.72"
"1659","18494.84"
"1660","18481.09"
"1661","18451.63"
"1662","18394.87"
"1663","18320.89"
"1664","18268.5"
"1665","18275.11"
"1666","18330.1"
"1667","18386.94"
"1668","18404.9"
"1669","18388.21"
"1670","18359.6"
"1671","18339.98"
"1672","18343.88"
"1673","18384.26"
"1674","18446.81"
"1675","18468.64"
"1676","18385.59"
"1677","18220.41"
"1678","18080.92"
"1679","18064.13"
"1680","18136.12"
"1681","18193.5"
"1682","18158.27"
"1683","18065.98"
"1684","17982.75"
"1685","17949.34"
"1686","17951.22"
"1687","17966.92"
"1688","17985.49"
"1689","18007.9"
"1690","18034.3"
"1691","18049.19"
"1692","18027.63"
"1693","17956.34"
"1694","17879.28"
"1695","17857.6"
"1696","17912.41"
"1697","17971.35"
"1698","17951.13"
"1699","17847.24"
"1700","17748.57"
"1701","17740.51"
"1702","17811.1"
"1703","17889.04"
"1704","17917.16"
"1705","17909.44"
"1706","17900.83"
"1707","17911.2"
"1708","17927.02"
"1709","17930.74"
"1710","17919.09"
"1711","17904.4"
"1712","17898.02"
"1713","17893.99"
"1714","17876.95"
"1715","17839.09"
"1716","17803.62"
"1717","17801.42"
"1718","17835.45"
"1719","17856.73"
"1720","17813.98"
"1721","17723.29"
"1722","17661.75"
"1723","17694.61"
"1724","17786.3"
"1725","17857.65"
"1726","17856.86"
"1727","17816.56"
"1728","17785.02"
"1729","17787.49"
"1730","17817"
"1731","17862.79"
"1732","17898.12"
"1733","17885.55"
"1734","17803.68"
"1735","17708.92"
"1736","17680.68"
"1737","17747.42"
"1738","17832.6"
"1739","17850.19"
"1740","17789.15"
"1741","17709.54"
"1742","17666.13"
"1743","17655.37"
"1744","17648.67"
"1745","17631.23"
"1746","17628.32"
"1747","17671.36"
"1748","17754.41"
"1749","17824.27"
"1750","17830.42"
"1751","17779.87"
"1752","17712.39"
"1753","17661.04"
"1754","17631.6"
"1755","17623.32"
"1756","17630.25"
"1757","17638.16"
"1758","17633.52"
"1759","17621.59"
"1760","17620.82"
"1761","17644.61"
"1762","17681.4"
"1763","17712.33"
"1764","17722.82"
"1765","17706.38"
"1766","17658.9"
"1767","17600.84"
"1768","17572.53"
"1769","17603.89"
"1770","17665.29"
"1771","17707.35"
"1772","17706.46"
"1773","17692.73"
"1774","17700.9"
"1775","17727.36"
"1776","17734.93"
"1777","17694.18"
"1778","17626.89"
"1779","17573.1"
"1780","17557.82"
"1781","17573.48"
"1782","17608.82"
"1783","17662.21"
"1784","17740.62"
"1785","17842.54"
"1786","17916.33"
"1787","17892.81"
"1788","17759.02"
"1789","17620.21"
"1790","17589.93"
"1791","17662.74"
"1792","17732.29"
"1793","17712.06"
"1794","17638.11"
"1795","17586.53"
"1796","17595.34"
"1797","17629.33"
"1798","17647.5"
"1799","17645.9"
"1800","17648.77"
"1801","17672.79"
"1802","17696.78"
"1803","17689.19"
"1804","17649.39"
"1805","17627.45"
"1806","17672.05"
"1807","17760.32"
"1808","17823.49"
"1809","17812.61"
"1810","17754.4"
"1811","17692.59"
"1812","17654.86"
"1813","17647.57"
"1814","17671.92"
"1815","17697.81"
"1816","17679.29"
"1817","17600.44"
"1818","17528.54"
"1819","17542.09"
"1820","17645.14"
"1821","17766.45"
"1822","17839.62"
"1823","17847.86"
"1824","17792.72"
"1825","17688.82"
"1826","17576.42"
"1827","17497.03"
"1828","17466.3"
"1829","17481.21"
"1830","17532.38"
"1831","17587.04"
"1832","17607.23"
"1833","17582.7"
"1834","17540.49"
"1835","17507.71"
"1836","17490.47"
"1837","17484.67"
"1838","17488.01"
"1839","17502.8"
"1840","17531.54"
"1841","17567.24"
"1842","17594.65"
"1843","17601.35"
"1844","17589.75"
"1845","17566.77"
"1846","17544.35"
"1847","17542.07"
"1848","17576.71"
"1849","17633.44"
"1850","17680.78"
"1851","17697.74"
"1852","17691.61"
"1853","17673.9"
"1854","17648.87"
"1855","17614.37"
"1856","17572.83"
"1857","17549.02"
"1858","17573.49"
"1859","17639.82"
"1860","17688.22"
"1861","17664.6"
"1862","17595.96"
"1863","17548.65"
"1864","17560.36"
"1865","17601.34"
"1866","17633.84"
"1867","17644.81"
"1868","17640.16"
"1869","17625.23"
"1870","17601.49"
"1871","17569.85"
"1872","17541.55"
"1873","17539.91"
"1874","17581.15"
"1875","17634.57"
"1876","17652.35"
"1877","17623.74"
"1878","17602.39"
"1879","17640.82"
"1880","17717.57"
"1881","17769.91"
"1882","17760.97"
"1883","17721.44"
"1884","17691.06"
"1885","17683.08"
"1886","17689.48"
"1887","17699.45"
"1888","17693.81"
"1889","17652.68"
"1890","17592.49"
"1891","17569.89"
"1892","17625.54"
"1893","17702.04"
"1894","17710.3"
"1895","17631.69"
"1896","17553.46"
"1897","17558.11"
"1898","17623.72"
"1899","17680.67"
"1900","17688.61"
"1901","17666.44"
"1902","17638.65"
"1903","17614.05"
"1904","17592.06"
"1905","17574.43"
"1906","17569.48"
"1907","17585.27"
"1908","17610.16"
"1909","17617.34"
"1910","17592.19"
"1911","17562.37"
"1912","17562.69"
"1913","17590.08"
"1914","17605.5"
"1915","17582"
"1916","17549.68"
"1917","17552.46"
"1918","17595.42"
"1919","17639.3"
"1920","17649.85"
"1921","17631.25"
"1922","17600.03"
"1923","17572.11"
"1924","17562.63"
"1925","17583.3"
"1926","17625.24"
"1927","17671.72"
"1928","17702.3"
"1929","17690.93"
"1930","17617.93"
"1931","17512.69"
"1932","17425.45"
"1933","17382.34"
"1934","17367.77"
"1935","17365.27"
"1936","17384.62"
"1937","17447.85"
"1938","17541.65"
"1939","17586.31"
"1940","17510.37"
"1941","17380.1"
"1942","17332.3"
"1943","17419.46"
"1944","17524.25"
"1945","17525.97"
"1946","17462.96"
"1947","17459.1"
"1948","17558.25"
"1949","17636.46"
"1950","17567.67"
"1951","17407.54"
"1952","17311.89"
"1953","17356.89"
"1954","17449.46"
"1955","17484.57"
"1956","17448.12"
"1957","17376.08"
"1958","17301.44"
"1959","17249.79"
"1960","17242.11"
"1961","17264.96"
"1962","17286.48"
"1963","17285.84"
"1964","17264.42"
"1965","17227.69"
"1966","17193.96"
"1967","17187.92"
"1968","17215.14"
"1969","17245.93"
"1970","17250.58"
"1971","17229.59"
"1972","17197.43"
"1973","17163.9"
"1974","17130.74"
"1975","17099.82"
"1976","17079.07"
"1977","17078.69"
"1978","17096.76"
"1979","17113.12"
"1980","17109.75"
"1981","17089.91"
"1982","17064.63"
"1983","17043.9"
"1984","17036.33"
"1985","17045.78"
"1986","17053.11"
"1987","17032.95"
"1988","16985.14"
"1989","16937.23"
"1990","16911.92"
"1991","16906.44"
"1992","16912.03"
"1993","16928.09"
"1994","16961.47"
"1995","17009.08"
"1996","17035.22"
"1997","17002.15"
"1998","16936.53"
"1999","16912.4"
"2000","16960.56"
"2001","17001.01"
"2002","16948.23"
"2003","16834.92"
"2004","16761.76"
"2005","16771.15"
"2006","16792.19"
"2007","16755.19"
"2008","16693.04"
"2009","16682.58"
"2010","16735.4"
"2011","16768.48"
"2012","16711.38"
"2013","16597.87"
"2014","16494.43"
"2015","16443.23"
"2016","16460.25"
"2017","16536.3"
"2018","16575.95"
"2019","16474.82"
"2020","16294.78"
"2021","16227.09"
"2022","16368.25"
"2023","16568.82"
"2024","16654.17"
"2025","16572.7"
"2026","16340.98"
"2027","16041.64"
"2028","15868.91"
"2029","15981.61"
"2030","16257.89"
"2031","16475.82"
"2032","16537.53"
"2033","16490.16"
"2034","16388.84"
"2035","16287.41"
"2036","16236.26"
"2037","16234.16"
"2038","16239.8"
"2039","16230.51"
"2040","16230.98"
"2041","16266.53"
"2042","16308.76"
"2043","16302.89"
"2044","16230.46"
"2045","16128.14"
"2046","16034.23"
"2047","15971.65"
"2048","15957.2"
"2049","15977.08"
"2050","15988.37"
"2051","15961.83"
"2052","15910.95"
"2053","15856.04"
"2054","15808.68"
"2055","15775.38"
"2056","15759.66"
"2057","15760.05"
"2058","15772.21"
"2059","15778.82"
"2060","15759.49"
"2061","15723.48"
"2062","15709.77"
"2063","15730.17"
"2064","15712.88"
"2065","15584.68"
"2066","15414.03"
"2067","15349.64"
"2068","15432.79"
"2069","15528.29"
"2070","15517.73"
"2071","15449.93"
"2072","15421.6"
"2073","15440.89"
"2074","15435.48"
"2075","15366.95"
"2076","15291.77"
"2077","15272.7"
"2078","15299.21"
"2079","15325.38"
"2080","15336.83"
"2081","15362.32"
"2082","15414.84"
"2083","15433.14"
"2084","15346.06"
"2085","15197.75"
"2086","15114.51"
"2087","15144.85"
"2088","15183.19"
"2089","15132.19"
"2090","15045.53"
"2091","15027.02"
"2092","15088.41"
"2093","15151.12"
"2094","15159.55"
"2095","15129.49"
"2096","15086.68"
"2097","15041.86"
"2098","14998.56"
"2099","14959.51"
"2100","14926.53"
"2101","14896.95"
"2102","14852.71"
"2103","14776.5"
"2104","14696.22"
"2105","14666.95"
"2106","14703.7"
"2107","14757.52"
"2108","14778.72"
"2109","14739.93"
"2110","14623.79"
"2111","14469.02"
"2112","14355.4"
"2113","14324.66"
"2114","14345.7"
"2115","14384.39"
"2116","14432.45"
"2117","14489.57"
"2118","14550.8"
"2119","14607.21"
"2120","14633.67"
"2121","14571.58"
"2122","14383.38"
"2123","14177.28"
"2124","14106.42"
"2125","14179.68"
"2126","14275.57"
"2127","14301.29"
"2128","14239.1"
"2129","14093.3"
"2130","13940.21"
"2131","13878.28"
"2132","13902.08"
"2133","13909.72"
"2134","13851.68"
"2135","13805.35"
"2136","13840.97"
"2137","13879.21"
"2138","13792.63"
"2139","13608.57"
"2140","13494.84"
"2141","13530.47"
"2142","13590.12"
"2143","13551.6"
"2144","13464.04"
"2145","13431.22"
"2146","13457.7"
"2147","13464.27"
"2148","13419.1"
"2149","13389.76"
"2150","13431.35"
"2151","13476.97"
"2152","13429.3"
"2153","13304.94"
"2154","13205.49"
"2155","13173.67"
"2156","13147.19"
"2157","13077.29"
"2158","13016.05"
"2159","13033.42"
"2160","13098.68"
"2161","13118.5"
"2162","13061.48"
"2163","12985.99"
"2164","12937.34"
"2165","12893.67"
"2166","12825.44"
"2167","12757.83"
"2168","12741.43"
"2169","12758.59"
"2170","12714.58"
"2171","12568.74"
"2172","12428.34"
"2173","12401.72"
"2174","12458.43"
"2175","12517.29"
"2176","12537.94"
"2177","12514.92"
"2178","12449.79"
"2179","12354.99"
"2180","12251"
"2181","12187.09"
"2182","12210.55"
"2183","12261.43"
"2184","12216.95"
"2185","12067.86"
"2186","11954.04"
"2187","11963.55"
"2188","12007.11"
"2189","11980.86"
"2190","11896.55"
"2191","11812.53"
"2192","11767.87"
"2193","11784"
"2194","11831.3"
"2195","11787.22"
"2196","11577.49"
"2197","11367.9"
"2198","11358.38"
"2199","11475.01"
"2200","11494.95"
"2201","11377.9"
"2202","11297.75"
"2203","11346.52"
"2204","11388.03"
"2205","11293.68"
"2206","11160.1"
"2207","11144.07"
"2208","11196.42"
"2209","11126.3"
"2210","10912.11"
"2211","10776.05"
"2212","10847.53"
"2213","10928.55"
"2214","10810.56"
"2215","10606.98"
"2216","10545.58"
"2217","10631.88"
"2218","10693.62"
"2219","10655.89"
"2220","10606.36"
"2221","10604.75"
"2222","10572.51"
"2223","10429.71"
"2224","10285.37"
"2225","10316.35"
"2226","10464.95"
"2227","10476.84"
"2228","10273.74"
"2229","10075.87"
"2230","10052.15"
"2231","10110.08"
"2232","10120.57"
"2233","10075.36"
"2234","10016.04"
"2235","9961.861"
"2236","9913.359"
"2237","9859.341"
"2238","9771.273"
"2239","9647.015"
"2240","9569.128"
"2241","9606.219"
"2242","9638.67"
"2243","9490.107"
"2244","9207.544"
"2245","8999.827"
"2246","8960.125"
"2247","9018.795"
"2248","9086.962"
"2249","9056.929"
"2250","8854.71"
"2251","8595.194"
"2252","8440.153"
"2253","8405.867"
"2254","8421.283"
"2255","8435.987"
"2256","8423.733"
"2257","8368.758"
"2258","8274.017"
"2259","8142.399"
"2260","7967.95"
"2261","7747.443"
"2262","7514.108"
"2263","7317.55"
"2264","7200.606"
"2265","7199.061"
"2266","7275.354"
"2267","7285.418"
"2268","7145.739"
"2269","6955.817"
"2270","6820.87"
"2271","6724.04"
"2272","6616.356"
"2273","6506.506"
"2274","6432.349"
"2275","6352.81"
"2276","6149.95"
"2277","5827.224"
"2278","5601.669"
"2279","5608.86"
"2280","5669.422"
"2281","5589.452"
"2282","5436.019"
"2283","5353.346"
"2284","5324.079"
"2285","5234.291"
"2286","5056.634"
"2287","4856.06"
"2288","4686.277"
"2289","4573.008"
"2290","4517.91"
"2291","4456.864"
"2292","4329.361"
"2293","4167.15"
"2294","4030.111"
"2295","3936.474"
"2296","3878.508"
"2297","3822.366"
"2298","3709.367"
"2299","3526.177"
"2300","3335.239"
