,"Scan 01126"
"400","9744.639"
"401","9717.963"
"402","9698.399"
"403","9684.926"
"404","9675.558"
"405","9668.019"
"406","9660.045"
"407","9649.585"
"408","9636.205"
"409","9620.247"
"410","9602.057"
"411","9582.197"
"412","9564.152"
"413","9553.423"
"414","9555.508"
"415","9575.552"
"416","9611.604"
"417","9654.813"
"418","9696.087"
"419","9726.573"
"420","9744.29"
"421","9756.502"
"422","9771.078"
"423","9795.758"
"424","9831.726"
"425","9868.121"
"426","9892.868"
"427","9893.992"
"428","9866.16"
"429","9820.514"
"430","9770.652"
"431","9730.083"
"432","9708.41"
"433","9702.293"
"434","9705.686"
"435","9712.587"
"436","9717.934"
"437","9720.759"
"438","9721.254"
"439","9719.61"
"440","9715.908"
"441","9709.576"
"442","9699.801"
"443","9685.772"
"444","9667.175"
"445","9647.445"
"446","9631.763"
"447","9625.283"
"448","9632.208"
"449","9647.387"
"450","9660.287"
"451","9660.38"
"452","9638.327"
"453","9599.599"
"454","9560.01"
"455","9535.481"
"456","9540.799"
"457","9572.858"
"458","9613.699"
"459","9645.021"
"460","9649.299"
"461","9623.603"
"462","9579.186"
"463","9527.818"
"464","9480.934"
"465","9442.396"
"466","9407.626"
"467","9371.627"
"468","9329.653"
"469","9285.074"
"470","9251.525"
"471","9243.22"
"472","9273.918"
"473","9340.114"
"474","9413.987"
"475","9466.044"
"476","9467.34"
"477","9411.243"
"478","9325.58"
"479","9240.974"
"480","9187.643"
"481","9179.23"
"482","9201.761"
"483","9238.706"
"484","9273.702"
"485","9296.324"
"486","9306.653"
"487","9305.851"
"488","9295.067"
"489","9275.261"
"490","9247.03"
"491","9210.926"
"492","9167.519"
"493","9120.039"
"494","9076.823"
"495","9046.746"
"496","9038.564"
"497","9052.532"
"498","9072.357"
"499","9079.92"
"500","9057.303"
"501","8998.766"
"502","8922.21"
"503","8848.165"
"504","8796.945"
"505","8777.659"
"506","8778.062"
"507","8783.566"
"508","8779.733"
"509","8758.735"
"510","8724.909"
"511","8683.892"
"512","8641.282"
"513","8602.341"
"514","8571.768"
"515","8554.182"
"516","8554.089"
"517","8569.942"
"518","8590.213"
"519","8602.487"
"520","8594.577"
"521","8563.059"
"522","8517.84"
"523","8469.899"
"524","8430.04"
"525","8403.623"
"526","8388.474"
"527","8381.869"
"528","8381.084"
"529","8382.505"
"530","8381.411"
"531","8373.035"
"532","8352.88"
"533","8323.09"
"534","8293.138"
"535","8272.832"
"536","8271.39"
"537","8286.355"
"538","8304.054"
"539","8310.415"
"540","8292.25"
"541","8249.939"
"542","8195.09"
"543","8139.593"
"544","8094.656"
"545","8063.294"
"546","8042.79"
"547","8030.309"
"548","8023.116"
"549","8019.189"
"550","8016.95"
"551","8014.827"
"552","8011.288"
"553","8005.084"
"554","7995.095"
"555","7980.208"
"556","7960.1"
"557","7939.269"
"558","7924.032"
"559","7920.682"
"560","7933.404"
"561","7956.487"
"562","7981.307"
"563","7999.285"
"564","8004.515"
"565","8000.692"
"566","7993.663"
"567","7989.242"
"568","7991.109"
"569","7997.129"
"570","8004.2"
"571","8009.241"
"572","8010.117"
"573","8006.602"
"574","7998.715"
"575","7986.477"
"576","7970.258"
"577","7950.967"
"578","7929.555"
"579","7907.023"
"580","7885.987"
"581","7870.911"
"582","7866.341"
"583","7876.463"
"584","7899.542"
"585","7928.872"
"586","7957.616"
"587","7979.386"
"588","7992.296"
"589","7997.213"
"590","7995.036"
"591","7986.708"
"592","7973.532"
"593","7956.949"
"594","7938.406"
"595","7919.511"
"596","7902.683"
"597","7890.583"
"598","7885.851"
"599","7889.654"
"600","7898.592"
"601","7908.398"
"602","7914.822"
"603","7914.188"
"604","7903.973"
"605","7881.809"
"606","7845.465"
"607","7798.633"
"608","7753.194"
"609","7721.588"
"610","7715.593"
"611","7734.479"
"612","7765.924"
"613","7797.217"
"614","7816.625"
"615","7822.62"
"616","7819.908"
"617","7813.269"
"618","7806.899"
"619","7801.381"
"620","7795.884"
"621","7789.581"
"622","7781.868"
"623","7772.985"
"624","7763.372"
"625","7753.463"
"626","7743.084"
"627","7730.645"
"628","7714.36"
"629","7692.521"
"630","7666.418"
"631","7641.616"
"632","7623.983"
"633","7619.052"
"634","7626.555"
"635","7641.123"
"636","7657.229"
"637","7669.753"
"638","7677.151"
"639","7679.8"
"640","7678.089"
"641","7672.719"
"642","7665.933"
"643","7660.453"
"644","7658.988"
"645","7663.214"
"646","7671.961"
"647","7683.569"
"648","7696.376"
"649","7707.927"
"650","7714.509"
"651","7712.309"
"652","7697.855"
"653","7674.382"
"654","7651.275"
"655","7638.124"
"656","7643.127"
"657","7662.203"
"658","7684.821"
"659","7700.427"
"660","7701.52"
"661","7694.414"
"662","7689.322"
"663","7696.412"
"664","7718.849"
"665","7743.176"
"666","7753.551"
"667","7734.591"
"668","7687.056"
"669","7632.581"
"670","7594.132"
"671","7592.811"
"672","7625.74"
"673","7673.009"
"674","7714.405"
"675","7732.623"
"676","7727.726"
"677","7706.261"
"678","7674.773"
"679","7639.638"
"680","7606.787"
"681","7582.052"
"682","7571.178"
"683","7575.54"
"684","7589.948"
"685","7608.683"
"686","7626.116"
"687","7637.88"
"688","7640.601"
"689","7630.938"
"690","7607.422"
"691","7580.664"
"692","7566.063"
"693","7578.99"
"694","7626.22"
"695","7688.827"
"696","7743.126"
"697","7765.795"
"698","7748.861"
"699","7706.669"
"700","7655.285"
"701","7610.25"
"702","7580.18"
"703","7568.667"
"704","7579.17"
"705","7612.786"
"706","7657.372"
"707","7696.218"
"708","7712.665"
"709","7698.531"
"710","7666.641"
"711","7633.008"
"712","7613.28"
"713","7612.659"
"714","7624.106"
"715","7639.896"
"716","7652.806"
"717","7660.333"
"718","7662.612"
"719","7659.808"
"720","7652.498"
"721","7642.901"
"722","7633.63"
"723","7627.281"
"724","7625.277"
"725","7627.011"
"726","7631.683"
"727","7638.396"
"728","7644.842"
"729","7647.564"
"730","7643.094"
"731","7629.436"
"732","7612.992"
"733","7603.104"
"734","7609.08"
"735","7633.299"
"736","7662.064"
"737","7679.416"
"738","7670.198"
"739","7637.889"
"740","7605.033"
"741","7595.007"
"742","7626.748"
"743","7686.57"
"744","7746.195"
"745","7777.331"
"746","7763.329"
"747","7720.784"
"748","7672.169"
"749","7639.55"
"750","7632.646"
"751","7646.372"
"752","7674.773"
"753","7711.634"
"754","7748.337"
"755","7775.048"
"756","7781.932"
"757","7764.79"
"758","7737.345"
"759","7716.878"
"760","7720.26"
"761","7749.734"
"762","7788.765"
"763","7819.604"
"764","7826.556"
"765","7812.479"
"766","7790.136"
"767","7772.362"
"768","7767.5"
"769","7769.444"
"770","7769.195"
"771","7758.03"
"772","7737.019"
"773","7719.535"
"774","7719.726"
"775","7749.128"
"776","7797.112"
"777","7841.819"
"778","7861.333"
"779","7843.868"
"780","7807.469"
"781","7775.624"
"782","7771.182"
"783","7799.024"
"784","7843.747"
"785","7888.873"
"786","7919.649"
"787","7933.591"
"788","7933.617"
"789","7922.657"
"790","7904.741"
"791","7886.59"
"792","7875.333"
"793","7877.64"
"794","7891.2"
"795","7905.311"
"796","7908.961"
"797","7894.14"
"798","7869.468"
"799","7849.292"
"800","7847.869"
"801","7870.618"
"802","7906.254"
"803","7941.641"
"804","7964.464"
"805","7973.223"
"806","7974.068"
"807","7973.301"
"808","7975.494"
"809","7978.391"
"810","7978.07"
"811","7970.74"
"812","7957.995"
"813","7948.695"
"814","7952.216"
"815","7976.214"
"816","8014.245"
"817","8052.941"
"818","8078.906"
"819","8083.287"
"820","8068.822"
"821","8040.073"
"822","8001.773"
"823","7962.002"
"824","7931.854"
"825","7922.52"
"826","7941.538"
"827","7978.55"
"828","8017.725"
"829","8043.39"
"830","8049.349"
"831","8044.353"
"832","8038.458"
"833","8040.874"
"834","8052.836"
"835","8071.184"
"836","8092.707"
"837","8113.891"
"838","8130.344"
"839","8137.539"
"840","8131.334"
"841","8115.388"
"842","8100.558"
"843","8097.971"
"844","8114.837"
"845","8139.533"
"846","8154.778"
"847","8143.604"
"848","8105.661"
"849","8065.319"
"850","8048.956"
"851","8078.659"
"852","8140.773"
"853","8203.848"
"854","8236.374"
"855","8222.853"
"856","8185.685"
"857","8152.756"
"858","8150.305"
"859","8179.868"
"860","8223.889"
"861","8264.323"
"862","8287.318"
"863","8294.769"
"864","8292.264"
"865","8285.365"
"866","8278.725"
"867","8275.938"
"868","8280.553"
"869","8294.466"
"870","8309.953"
"871","8315.808"
"872","8300.969"
"873","8265.768"
"874","8229.531"
"875","8213.393"
"876","8235.205"
"877","8283.299"
"878","8330.366"
"879","8349.007"
"880","8326.628"
"881","8285.942"
"882","8254.814"
"883","8259.152"
"884","8297.486"
"885","8348.125"
"886","8388.905"
"887","8404.402"
"888","8401.833"
"889","8393.166"
"890","8390.187"
"891","8400.469"
"892","8427.408"
"893","8474.228"
"894","8540.135"
"895","8605.749"
"896","8646.297"
"897","8637.653"
"898","8580.689"
"899","8508.668"
"900","8457.021"
"901","8454.474"
"902","8487.971"
"903","8528.366"
"904","8546.728"
"905","8531.65"
"906","8500.719"
"907","8474.235"
"908","8470.37"
"909","8489.742"
"910","8524.344"
"911","8566.11"
"912","8607.479"
"913","8641.926"
"914","8663.045"
"915","8665.36"
"916","8653.255"
"917","8637.075"
"918","8627.244"
"919","8628.878"
"920","8633.708"
"921","8631.372"
"922","8612.526"
"923","8581.634"
"924","8553.14"
"925","8541.712"
"926","8556.56"
"927","8590.399"
"928","8632.841"
"929","8673.813"
"930","8708.705"
"931","8737.488"
"932","8760.278"
"933","8775.731"
"934","8777.373"
"935","8757.59"
"936","8709.502"
"937","8641.802"
"938","8577.996"
"939","8542.179"
"940","8550.324"
"941","8585.759"
"942","8623.604"
"943","8639.806"
"944","8631.226"
"945","8616.746"
"946","8616.308"
"947","8643.547"
"948","8684.074"
"949","8715.69"
"950","8716.854"
"951","8685.471"
"952","8641.572"
"953","8606.396"
"954","8596.879"
"955","8609.244"
"956","8633.505"
"957","8659.734"
"958","8680.339"
"959","8690.532"
"960","8685.69"
"961","8663.313"
"962","8631.625"
"963","8602.242"
"964","8586.579"
"965","8588.74"
"966","8603.733"
"967","8625.993"
"968","8650.27"
"969","8672.94"
"970","8690.918"
"971","8701.141"
"972","8701.705"
"973","8692.173"
"974","8672.194"
"975","8642.503"
"976","8609.447"
"977","8581.205"
"978","8565.739"
"979","8563.125"
"980","8563.578"
"981","8556.696"
"982","8535.902"
"983","8514.204"
"984","8510.828"
"985","8544.364"
"986","8611.389"
"987","8681.744"
"988","8723.643"
"989","8713.765"
"990","8670.201"
"991","8623.672"
"992","8604.155"
"993","8618.718"
"994","8647.862"
"995","8670.603"
"996","8672.03"
"997","8665.095"
"998","8670.705"
"999","8708.894"
"1000","8776.055"
"1001","8842.94"
"1002","8879.007"
"1003","8862.709"
"1004","8810.305"
"1005","8747.974"
"1006","8701.883"
"1007","8688.625"
"1008","8700.705"
"1009","8726.896"
"1010","8756.348"
"1011","8782.119"
"1012","8799.576"
"1013","8804.141"
"1014","8795.03"
"1015","8778.936"
"1016","8763.421"
"1017","8755.436"
"1018","8757.247"
"1019","8768.99"
"1020","8790.749"
"1021","8820.478"
"1022","8852.943"
"1023","8882.647"
"1024","8905.437"
"1025","8924.347"
"1026","8944.814"
"1027","8972.031"
"1028","9004.256"
"1029","9032.11"
"1030","9045.821"
"1031","9039.798"
"1032","9023.904"
"1033","9011.58"
"1034","9015.298"
"1035","9032.483"
"1036","9048.777"
"1037","9049.519"
"1038","9028.962"
"1039","9003.365"
"1040","8992.335"
"1041","9012.62"
"1042","9054.972"
"1043","9096.308"
"1044","9113.626"
"1045","9099.031"
"1046","9069.173"
"1047","9042.962"
"1048","9036.002"
"1049","9045.832"
"1050","9063.851"
"1051","9081.572"
"1052","9093.548"
"1053","9097.521"
"1054","9091.383"
"1055","9075.213"
"1056","9056.185"
"1057","9042.911"
"1058","9043.44"
"1059","9059.12"
"1060","9086.907"
"1061","9123.657"
"1062","9162.7"
"1063","9190.671"
"1064","9193.443"
"1065","9161.392"
"1066","9112.699"
"1067","9076.171"
"1068","9079.702"
"1069","9124.487"
"1070","9182.044"
"1071","9222.317"
"1072","9225.324"
"1073","9204.238"
"1074","9179.057"
"1075","9168.434"
"1076","9175.83"
"1077","9195.139"
"1078","9220.082"
"1079","9244.035"
"1080","9259.749"
"1081","9259.91"
"1082","9240.021"
"1083","9210.614"
"1084","9187.199"
"1085","9184.47"
"1086","9199.864"
"1087","9214.682"
"1088","9209.603"
"1089","9176.62"
"1090","9136.886"
"1091","9116.19"
"1092","9136.136"
"1093","9184.667"
"1094","9233.612"
"1095","9255.268"
"1096","9243.932"
"1097","9221.959"
"1098","9213.543"
"1099","9232.315"
"1100","9254.565"
"1101","9248.323"
"1102","9185.735"
"1103","9084.979"
"1104","8992.973"
"1105","8956.614"
"1106","8990.956"
"1107","9059.918"
"1108","9122.79"
"1109","9147.825"
"1110","9143.145"
"1111","9127.938"
"1112","9120.433"
"1113","9124.848"
"1114","9135.021"
"1115","9144.546"
"1116","9149.332"
"1117","9149.581"
"1118","9145.972"
"1119","9139.217"
"1120","9130.239"
"1121","9120.026"
"1122","9109.681"
"1123","9102.14"
"1124","9101.833"
"1125","9113.207"
"1126","9136.724"
"1127","9164.918"
"1128","9189.379"
"1129","9202.351"
"1130","9199.557"
"1131","9177.872"
"1132","9134.763"
"1133","9077.493"
"1134","9021.366"
"1135","8981.876"
"1136","8967.749"
"1137","8974.513"
"1138","8996.167"
"1139","9026.76"
"1140","9060.604"
"1141","9092.087"
"1142","9115.718"
"1143","9127.773"
"1144","9125.872"
"1145","9107.729"
"1146","9076.223"
"1147","9043.297"
"1148","9021.818"
"1149","9020.859"
"1150","9032.993"
"1151","9046.325"
"1152","9050.298"
"1153","9050.116"
"1154","9061.247"
"1155","9098.979"
"1156","9159.922"
"1157","9213.484"
"1158","9226.918"
"1159","9182.853"
"1160","9116.421"
"1161","9073.945"
"1162","9095.369"
"1163","9165.529"
"1164","9241.156"
"1165","9279.941"
"1166","9274.076"
"1167","9254.327"
"1168","9253.464"
"1169","9286.263"
"1170","9323.052"
"1171","9327.4"
"1172","9272.357"
"1173","9186.442"
"1174","9118.299"
"1175","9113.385"
"1176","9166.433"
"1177","9231.937"
"1178","9263.631"
"1179","9244.489"
"1180","9206.24"
"1181","9185.266"
"1182","9206.037"
"1183","9248.958"
"1184","9284.257"
"1185","9285.841"
"1186","9259.771"
"1187","9228.645"
"1188","9214.646"
"1189","9225.815"
"1190","9255.204"
"1191","9295.143"
"1192","9338.877"
"1193","9381.653"
"1194","9418.98"
"1195","9446.68"
"1196","9462.091"
"1197","9462.997"
"1198","9447.629"
"1199","9419.104"
"1200","9383.578"
"1201","9347.237"
"1202","9315.466"
"1203","9292.672"
"1204","9283.199"
"1205","9287.9"
"1206","9299.084"
"1207","9307.765"
"1208","9307.028"
"1209","9300.739"
"1210","9296.229"
"1211","9300.347"
"1212","9314.22"
"1213","9335.268"
"1214","9360.849"
"1215","9388.225"
"1216","9414.553"
"1217","9436.97"
"1218","9451.985"
"1219","9454.615"
"1220","9439.648"
"1221","9405.651"
"1222","9369.314"
"1223","9352.769"
"1224","9374.882"
"1225","9421.26"
"1226","9458.087"
"1227","9452.593"
"1228","9406.128"
"1229","9356.746"
"1230","9344.159"
"1231","9385.106"
"1232","9450.906"
"1233","9507.537"
"1234","9530.251"
"1235","9529.497"
"1236","9524.052"
"1237","9530.502"
"1238","9548.93"
"1239","9571.956"
"1240","9592.244"
"1241","9603.854"
"1242","9601.989"
"1243","9582.02"
"1244","9546.526"
"1245","9508.408"
"1246","9481.355"
"1247","9473.587"
"1248","9479.268"
"1249","9490.331"
"1250","9500.665"
"1251","9513.442"
"1252","9534.592"
"1253","9568.604"
"1254","9606.852"
"1255","9633.695"
"1256","9634.446"
"1257","9614.408"
"1258","9597.129"
"1259","9606.513"
"1260","9646.854"
"1261","9692.315"
"1262","9714.495"
"1263","9698.213"
"1264","9663.127"
"1265","9634.589"
"1266","9631.867"
"1267","9645.85"
"1268","9659.163"
"1269","9656.909"
"1270","9645.101"
"1271","9640.198"
"1272","9657.531"
"1273","9692.033"
"1274","9721.894"
"1275","9725.165"
"1276","9695.246"
"1277","9645.829"
"1278","9591.984"
"1279","9545.034"
"1280","9508.258"
"1281","9483.898"
"1282","9473.133"
"1283","9473.34"
"1284","9481.045"
"1285","9493.156"
"1286","9508.838"
"1287","9528.084"
"1288","9550.565"
"1289","9572.529"
"1290","9588.188"
"1291","9592.213"
"1292","9588.972"
"1293","9591.744"
"1294","9613.892"
"1295","9656.703"
"1296","9704.486"
"1297","9740.311"
"1298","9755.91"
"1299","9761.795"
"1300","9770.927"
"1301","9789.788"
"1302","9802.857"
"1303","9789.944"
"1304","9737.529"
"1305","9667.936"
"1306","9615.471"
"1307","9609.971"
"1308","9642.536"
"1309","9684.502"
"1310","9708.518"
"1311","9708.891"
"1312","9696.287"
"1313","9681.648"
"1314","9672.181"
"1315","9671.003"
"1316","9680.925"
"1317","9698.55"
"1318","9710.634"
"1319","9703.091"
"1320","9670.787"
"1321","9629.204"
"1322","9596.731"
"1323","9586.402"
"1324","9593.099"
"1325","9607.863"
"1326","9622.544"
"1327","9633.041"
"1328","9636.514"
"1329","9630.992"
"1330","9620.947"
"1331","9613.745"
"1332","9615.761"
"1333","9622.011"
"1334","9620.377"
"1335","9599.318"
"1336","9559.979"
"1337","9514.448"
"1338","9475.056"
"1339","9449.971"
"1340","9442.489"
"1341","9455.477"
"1342","9482.025"
"1343","9499.763"
"1344","9485.033"
"1345","9431.215"
"1346","9368.127"
"1347","9330.291"
"1348","9339.758"
"1349","9382.321"
"1350","9437.229"
"1351","9486.598"
"1352","9523.934"
"1353","9545.549"
"1354","9549.744"
"1355","9545.449"
"1356","9545.146"
"1357","9558.791"
"1358","9577.995"
"1359","9586.271"
"1360","9569.001"
"1361","9530.604"
"1362","9486.409"
"1363","9451.236"
"1364","9431.077"
"1365","9425.477"
"1366","9433.689"
"1367","9452.313"
"1368","9475.487"
"1369","9497.258"
"1370","9511.67"
"1371","9512.768"
"1372","9494.805"
"1373","9462.208"
"1374","9433.878"
"1375","9429.669"
"1376","9454.793"
"1377","9488.771"
"1378","9508.563"
"1379","9503.336"
"1380","9488.605"
"1381","9483.313"
"1382","9497.159"
"1383","9515.335"
"1384","9519.013"
"1385","9495.834"
"1386","9454.416"
"1387","9407.631"
"1388","9367.029"
"1389","9338.961"
"1390","9328.498"
"1391","9337.838"
"1392","9355.531"
"1393","9366.063"
"1394","9357.928"
"1395","9342.578"
"1396","9339.585"
"1397","9364.856"
"1398","9409.184"
"1399","9452.915"
"1400","9477.562"
"1401","9474.356"
"1402","9439.233"
"1403","9370.755"
"1404","9292.223"
"1405","9240.664"
"1406","9248.979"
"1407","9301.887"
"1408","9353.792"
"1409","9362.128"
"1410","9330.9"
"1411","9297.012"
"1412","9295.956"
"1413","9330.195"
"1414","9376.222"
"1415","9410.674"
"1416","9425.847"
"1417","9427.631"
"1418","9422.182"
"1419","9411.689"
"1420","9394.574"
"1421","9369.419"
"1422","9342.038"
"1423","9325.722"
"1424","9333.757"
"1425","9369.593"
"1426","9425.77"
"1427","9494.089"
"1428","9560.963"
"1429","9606.431"
"1430","9610.857"
"1431","9580.296"
"1432","9552.986"
"1433","9568.363"
"1434","9630.597"
"1435","9697.433"
"1436","9724.153"
"1437","9698.787"
"1438","9654.334"
"1439","9626.673"
"1440","9632.015"
"1441","9658.665"
"1442","9692.838"
"1443","9723.351"
"1444","9742.8"
"1445","9744.227"
"1446","9728.888"
"1447","9710.222"
"1448","9702.465"
"1449","9709.997"
"1450","9722.443"
"1451","9728.341"
"1452","9722.908"
"1453","9711.354"
"1454","9699.576"
"1455","9685.949"
"1456","9657.716"
"1457","9601.551"
"1458","9522.688"
"1459","9453.44"
"1460","9427.709"
"1461","9450.956"
"1462","9488.042"
"1463","9501.161"
"1464","9473.656"
"1465","9418.096"
"1466","9349.257"
"1467","9284.006"
"1468","9241.974"
"1469","9242.274"
"1470","9277.16"
"1471","9304.87"
"1472","9282.596"
"1473","9205.867"
"1474","9116.118"
"1475","9056.62"
"1476","9044.568"
"1477","9067.833"
"1478","9112.467"
"1479","9158.223"
"1480","9178.27"
"1481","9146.925"
"1482","9070.682"
"1483","8987.139"
"1484","8933.714"
"1485","8920.005"
"1486","8930.955"
"1487","8951.018"
"1488","8970.85"
"1489","8986.094"
"1490","8992.633"
"1491","8987.793"
"1492","8969.932"
"1493","8938.608"
"1494","8907.014"
"1495","8897.207"
"1496","8927.637"
"1497","8979.143"
"1498","9010.961"
"1499","8988.359"
"1500","8930.064"
"1501","8881.699"
"1502","8881.588"
"1503","8914.096"
"1504","8940.081"
"1505","8928.064"
"1506","8893.541"
"1507","8869.539"
"1508","8880.639"
"1509","8908.52"
"1510","8921.319"
"1511","8897.454"
"1512","8858.736"
"1513","8838.41"
"1514","8856.571"
"1515","8887.479"
"1516","8895.421"
"1517","8860.807"
"1518","8810.243"
"1519","8778.503"
"1520","8784.013"
"1521","8806.845"
"1522","8821.671"
"1523","8814.897"
"1524","8795.425"
"1525","8774.63"
"1526","8759.266"
"1527","8748.876"
"1528","8742.396"
"1529","8739.378"
"1530","8740.154"
"1531","8744.946"
"1532","8749.922"
"1533","8747.109"
"1534","8728.925"
"1535","8697.619"
"1536","8663.501"
"1537","8636.721"
"1538","8622.525"
"1539","8622.959"
"1540","8638.952"
"1541","8662.261"
"1542","8679.947"
"1543","8681.424"
"1544","8671.4"
"1545","8660.596"
"1546","8659.682"
"1547","8678.95"
"1548","8728.597"
"1549","8808.112"
"1550","8879.263"
"1551","8895.512"
"1552","8836.95"
"1553","8753.251"
"1554","8705.103"
"1555","8720.599"
"1556","8764.417"
"1557","8794.286"
"1558","8787.631"
"1559","8750.5"
"1560","8691.665"
"1561","8632.009"
"1562","8605.552"
"1563","8643.905"
"1564","8728.824"
"1565","8801.903"
"1566","8809.434"
"1567","8758.697"
"1568","8692.975"
"1569","8650.874"
"1570","8635.027"
"1571","8632.803"
"1572","8632.602"
"1573","8628.042"
"1574","8614.282"
"1575","8591.02"
"1576","8572.755"
"1577","8576.956"
"1578","8608.372"
"1579","8643.111"
"1580","8653.678"
"1581","8633.639"
"1582","8609.68"
"1583","8610.573"
"1584","8642.011"
"1585","8684.253"
"1586","8717.072"
"1587","8732.912"
"1588","8733.965"
"1589","8722.975"
"1590","8705.408"
"1591","8688.172"
"1592","8676.597"
"1593","8666.937"
"1594","8652.232"
"1595","8629.148"
"1596","8607.624"
"1597","8600.609"
"1598","8612.78"
"1599","8629.199"
"1600","8632.271"
"1601","8616.669"
"1602","8596.225"
"1603","8586.085"
"1604","8592.299"
"1605","8611.457"
"1606","8639.505"
"1607","8669.868"
"1608","8694.231"
"1609","8706.256"
"1610","8714.346"
"1611","8733.444"
"1612","8771.6"
"1613","8806.154"
"1614","8805.983"
"1615","8758.381"
"1616","8700.389"
"1617","8677.018"
"1618","8704.14"
"1619","8748.472"
"1620","8772.85"
"1621","8762.981"
"1622","8729.064"
"1623","8682.877"
"1624","8640.753"
"1625","8622.122"
"1626","8642.248"
"1627","8687.571"
"1628","8732.538"
"1629","8757.584"
"1630","8766.888"
"1631","8770.425"
"1632","8773.188"
"1633","8768.755"
"1634","8749.345"
"1635","8717.806"
"1636","8691.68"
"1637","8688.638"
"1638","8709.701"
"1639","8741.858"
"1640","8772.004"
"1641","8790.065"
"1642","8787.491"
"1643","8760.119"
"1644","8724.017"
"1645","8701.086"
"1646","8704.771"
"1647","8726.726"
"1648","8755.182"
"1649","8780.359"
"1650","8795.453"
"1651","8794.725"
"1652","8787.738"
"1653","8797.379"
"1654","8842.628"
"1655","8905.652"
"1656","8950.113"
"1657","8950.687"
"1658","8931.253"
"1659","8929.166"
"1660","8956.908"
"1661","8968.176"
"1662","8909.415"
"1663","8779.154"
"1664","8644.669"
"1665","8573.635"
"1666","8570.851"
"1667","8594.146"
"1668","8604.834"
"1669","8595.496"
"1670","8571.522"
"1671","8538.239"
"1672","8500.591"
"1673","8463.456"
"1674","8432.257"
"1675","8413.393"
"1676","8412.895"
"1677","8426.148"
"1678","8438.125"
"1679","8434.765"
"1680","8414.915"
"1681","8384.265"
"1682","8348.933"
"1683","8316.622"
"1684","8295.43"
"1685","8286.878"
"1686","8278.205"
"1687","8255.359"
"1688","8222.171"
"1689","8202.868"
"1690","8219.589"
"1691","8260.047"
"1692","8291.169"
"1693","8286.468"
"1694","8252.966"
"1695","8207.809"
"1696","8165.635"
"1697","8135.192"
"1698","8124.131"
"1699","8131.257"
"1700","8144.894"
"1701","8154.483"
"1702","8168.234"
"1703","8205.798"
"1704","8276.721"
"1705","8341.929"
"1706","8348.103"
"1707","8278.707"
"1708","8198.655"
"1709","8181.522"
"1710","8236.008"
"1711","8299.604"
"1712","8312.546"
"1713","8275.863"
"1714","8223.773"
"1715","8184.936"
"1716","8163.957"
"1717","8159.3"
"1718","8164.285"
"1719","8162.665"
"1720","8138.426"
"1721","8100.95"
"1722","8082.641"
"1723","8110.271"
"1724","8164.425"
"1725","8205.684"
"1726","8207.915"
"1727","8185.937"
"1728","8162.107"
"1729","8146.231"
"1730","8130.491"
"1731","8106.811"
"1732","8080.19"
"1733","8064.343"
"1734","8070.791"
"1735","8099.71"
"1736","8147.834"
"1737","8203.854"
"1738","8239.965"
"1739","8227.917"
"1740","8173.907"
"1741","8116.8"
"1742","8091.606"
"1743","8096.465"
"1744","8113.649"
"1745","8130.417"
"1746","8148.588"
"1747","8172.243"
"1748","8192.929"
"1749","8186.363"
"1750","8131.907"
"1751","8055.418"
"1752","8009.294"
"1753","8027.638"
"1754","8073.69"
"1755","8094.352"
"1756","8071.28"
"1757","8041.273"
"1758","8042.539"
"1759","8066.857"
"1760","8073.398"
"1761","8034.26"
"1762","7985.397"
"1763","7981.145"
"1764","8038.314"
"1765","8103.393"
"1766","8118.155"
"1767","8074.919"
"1768","8006.872"
"1769","7945.213"
"1770","7903.821"
"1771","7890.774"
"1772","7909.096"
"1773","7951.299"
"1774","8007.863"
"1775","8056.501"
"1776","8063.767"
"1777","8006.968"
"1778","7927.691"
"1779","7890.325"
"1780","7924.926"
"1781","7987.231"
"1782","8025.599"
"1783","8033.384"
"1784","8043.902"
"1785","8083.339"
"1786","8128.929"
"1787","8140.657"
"1788","8101.871"
"1789","8045.109"
"1790","8007.58"
"1791","7998.388"
"1792","8002.819"
"1793","8006.505"
"1794","8001.075"
"1795","7980.185"
"1796","7945.774"
"1797","7915.64"
"1798","7908.086"
"1799","7921.828"
"1800","7940.674"
"1801","7950.212"
"1802","7945.934"
"1803","7926.229"
"1804","7895.342"
"1805","7867.135"
"1806","7855.916"
"1807","7870.485"
"1808","7916.124"
"1809","7989.212"
"1810","8053.778"
"1811","8067.294"
"1812","8024.838"
"1813","7971.394"
"1814","7948.984"
"1815","7944.479"
"1816","7916.933"
"1817","7846.45"
"1818","7771.917"
"1819","7740.749"
"1820","7762.497"
"1821","7808.411"
"1822","7850.726"
"1823","7878.092"
"1824","7885.234"
"1825","7875.069"
"1826","7866.644"
"1827","7879.063"
"1828","7905.758"
"1829","7921.529"
"1830","7910.487"
"1831","7895.38"
"1832","7907.724"
"1833","7943.479"
"1834","7950.774"
"1835","7885.851"
"1836","7798.542"
"1837","7783.889"
"1838","7878.206"
"1839","7970.617"
"1840","7935.377"
"1841","7791.637"
"1842","7685.079"
"1843","7726.741"
"1844","7843.097"
"1845","7907.589"
"1846","7874.484"
"1847","7820.699"
"1848","7823.792"
"1849","7873.337"
"1850","7912.414"
"1851","7902.716"
"1852","7856.33"
"1853","7793.551"
"1854","7734.239"
"1855","7697.889"
"1856","7696.672"
"1857","7708.788"
"1858","7703.158"
"1859","7678.667"
"1860","7677.47"
"1861","7735.813"
"1862","7813.895"
"1863","7835.079"
"1864","7766.707"
"1865","7679.175"
"1866","7652.494"
"1867","7689.261"
"1868","7732.686"
"1869","7738.789"
"1870","7717.952"
"1871","7693.069"
"1872","7677.806"
"1873","7675.057"
"1874","7686.555"
"1875","7710.667"
"1876","7744.426"
"1877","7779.522"
"1878","7798.403"
"1879","7785.357"
"1880","7751.737"
"1881","7724.015"
"1882","7720.364"
"1883","7737.221"
"1884","7767.161"
"1885","7796.101"
"1886","7804.625"
"1887","7781.158"
"1888","7744.204"
"1889","7718.715"
"1890","7711.695"
"1891","7710.237"
"1892","7700.746"
"1893","7671.69"
"1894","7612.667"
"1895","7538.383"
"1896","7501.219"
"1897","7545.094"
"1898","7625.044"
"1899","7655.594"
"1900","7602.864"
"1901","7536.551"
"1902","7531.282"
"1903","7581.067"
"1904","7631.232"
"1905","7645.028"
"1906","7634.493"
"1907","7618.944"
"1908","7608.593"
"1909","7606.659"
"1910","7615.949"
"1911","7638.456"
"1912","7675.401"
"1913","7715.248"
"1914","7734.352"
"1915","7717.24"
"1916","7685.008"
"1917","7667.63"
"1918","7671.536"
"1919","7676.247"
"1920","7664.666"
"1921","7644.864"
"1922","7632.704"
"1923","7632.441"
"1924","7632.746"
"1925","7624.869"
"1926","7622.653"
"1927","7647.99"
"1928","7693.807"
"1929","7708.463"
"1930","7648.535"
"1931","7556.385"
"1932","7510.83"
"1933","7542.222"
"1934","7597.153"
"1935","7620.668"
"1936","7612.672"
"1937","7599.157"
"1938","7593.906"
"1939","7587.4"
"1940","7569.266"
"1941","7544.292"
"1942","7525.021"
"1943","7515.616"
"1944","7503.341"
"1945","7476.753"
"1946","7455.186"
"1947","7474.479"
"1948","7542.065"
"1949","7606.149"
"1950","7613.729"
"1951","7571.862"
"1952","7520.798"
"1953","7492.401"
"1954","7500.087"
"1955","7550.98"
"1956","7614.235"
"1957","7638.183"
"1958","7599.036"
"1959","7530.923"
"1960","7473.006"
"1961","7444.265"
"1962","7452.807"
"1963","7492.487"
"1964","7529.315"
"1965","7530.853"
"1966","7506.665"
"1967","7487.458"
"1968","7488.706"
"1969","7497.479"
"1970","7499.361"
"1971","7492.324"
"1972","7480.14"
"1973","7468.863"
"1974","7468.298"
"1975","7484.042"
"1976","7490.495"
"1977","7449.757"
"1978","7367.748"
"1979","7315.758"
"1980","7352.387"
"1981","7429.369"
"1982","7461.034"
"1983","7423.509"
"1984","7373.079"
"1985","7358.386"
"1986","7363.549"
"1987","7353.938"
"1988","7324.974"
"1989","7305.138"
"1990","7316.415"
"1991","7347.565"
"1992","7379.297"
"1993","7398.734"
"1994","7398.844"
"1995","7376.94"
"1996","7343.597"
"1997","7311.194"
"1998","7279.806"
"1999","7240.472"
"2000","7194.268"
"2001","7167.836"
"2002","7187.925"
"2003","7242.083"
"2004","7295.27"
"2005","7328.538"
"2006","7354.338"
"2007","7384.044"
"2008","7395.456"
"2009","7352.436"
"2010","7263.666"
"2011","7202.703"
"2012","7224.813"
"2013","7263.762"
"2014","7218.294"
"2015","7099.181"
"2016","7037.5"
"2017","7116.13"
"2018","7221.054"
"2019","7204.46"
"2020","7088.229"
"2021","7026.32"
"2022","7101.779"
"2023","7211.187"
"2024","7235.518"
"2025","7181.473"
"2026","7124.173"
"2027","7097.551"
"2028","7063.626"
"2029","6990.923"
"2030","6929.446"
"2031","6956.963"
"2032","7074.061"
"2033","7191.264"
"2034","7235.057"
"2035","7212.798"
"2036","7151.626"
"2037","7087.25"
"2038","7062.004"
"2039","7087.906"
"2040","7104.096"
"2041","7049.754"
"2042","6956.059"
"2043","6899.756"
"2044","6914.368"
"2045","6967.593"
"2046","7022.8"
"2047","7049.484"
"2048","7020.839"
"2049","6950.429"
"2050","6890.111"
"2051","6873.669"
"2052","6878.349"
"2053","6873.196"
"2054","6847.084"
"2055","6800.543"
"2056","6747.381"
"2057","6723.495"
"2058","6754.484"
"2059","6798.281"
"2060","6792.745"
"2061","6740.131"
"2062","6707.028"
"2063","6734.964"
"2064","6783.203"
"2065","6799.152"
"2066","6763.78"
"2067","6677.756"
"2068","6568.493"
"2069","6506.403"
"2070","6544.72"
"2071","6629.813"
"2072","6678.025"
"2073","6675.388"
"2074","6671.268"
"2075","6693.152"
"2076","6706.221"
"2077","6672.765"
"2078","6613.418"
"2079","6577.063"
"2080","6589.203"
"2081","6643.369"
"2082","6717.774"
"2083","6739.561"
"2084","6633.505"
"2085","6465.258"
"2086","6400.712"
"2087","6501.075"
"2088","6620.645"
"2089","6619.043"
"2090","6525.928"
"2091","6429.792"
"2092","6371.205"
"2093","6343.654"
"2094","6339.771"
"2095","6355.154"
"2096","6384.155"
"2097","6407.347"
"2098","6399.457"
"2099","6368.294"
"2100","6363.859"
"2101","6414.777"
"2102","6465.156"
"2103","6447.727"
"2104","6374.457"
"2105","6305.646"
"2106","6276.658"
"2107","6282.28"
"2108","6309.418"
"2109","6326.382"
"2110","6299.379"
"2111","6237.8"
"2112","6182.77"
"2113","6165.119"
"2114","6194.986"
"2115","6268.731"
"2116","6323.433"
"2117","6283.136"
"2118","6177.858"
"2119","6125.896"
"2120","6173.581"
"2121","6210.63"
"2122","6135.541"
"2123","6012.469"
"2124","5959.436"
"2125","5989.152"
"2126","6019.265"
"2127","6010.54"
"2128","6027.92"
"2129","6127.766"
"2130","6227.85"
"2131","6200.606"
"2132","6057.747"
"2133","5940.349"
"2134","5930.836"
"2135","5967.299"
"2136","5978.624"
"2137","5959.009"
"2138","5926.828"
"2139","5897.658"
"2140","5884.442"
"2141","5887.718"
"2142","5881.29"
"2143","5844.567"
"2144","5808.872"
"2145","5820.877"
"2146","5875.503"
"2147","5923.867"
"2148","5934.118"
"2149","5911.068"
"2150","5863.96"
"2151","5802.546"
"2152","5736.925"
"2153","5679.275"
"2154","5643.238"
"2155","5634.063"
"2156","5642.483"
"2157","5659.738"
"2158","5685.414"
"2159","5719.532"
"2160","5742.524"
"2161","5723.296"
"2162","5676.283"
"2163","5680.999"
"2164","5772.437"
"2165","5819.546"
"2166","5684.55"
"2167","5472.313"
"2168","5404.697"
"2169","5522.55"
"2170","5661.566"
"2171","5705.421"
"2172","5688.363"
"2173","5660.498"
"2174","5623.957"
"2175","5564.135"
"2176","5493.305"
"2177","5446.485"
"2178","5435.43"
"2179","5427.416"
"2180","5393.416"
"2181","5341.401"
"2182","5290.231"
"2183","5268.542"
"2184","5309.668"
"2185","5394.643"
"2186","5436.264"
"2187","5381.51"
"2188","5288.573"
"2189","5227.472"
"2190","5213.623"
"2191","5238.471"
"2192","5265.116"
"2193","5232.372"
"2194","5147.365"
"2195","5144.71"
"2196","5309.222"
"2197","5463.911"
"2198","5393.604"
"2199","5172.01"
"2200","5030.944"
"2201","5037.695"
"2202","5066.095"
"2203","5026.954"
"2204","4947.591"
"2205","4873.213"
"2206","4851.631"
"2207","4925.458"
"2208","5055.373"
"2209","5145.159"
"2210","5142.428"
"2211","5058.689"
"2212","4924.342"
"2213","4810.772"
"2214","4783.117"
"2215","4816.14"
"2216","4850.74"
"2217","4862.104"
"2218","4852.927"
"2219","4817.058"
"2220","4733.135"
"2221","4603.11"
"2222","4509.011"
"2223","4534.248"
"2224","4655.467"
"2225","4803.611"
"2226","4913.282"
"2227","4923.187"
"2228","4835.611"
"2229","4756.672"
"2230","4757.655"
"2231","4762.892"
"2232","4685.826"
"2233","4575.497"
"2234","4533.311"
"2235","4572.389"
"2236","4633.244"
"2237","4667.231"
"2238","4646.072"
"2239","4561.141"
"2240","4458.385"
"2241","4387.697"
"2242","4358.022"
"2243","4361.157"
"2244","4368.874"
"2245","4339.32"
"2246","4278.808"
"2247","4259.53"
"2248","4305.881"
"2249","4307.134"
"2250","4171.663"
"2251","4015.978"
"2252","4003.58"
"2253","4088.684"
"2254","4103.388"
"2255","4009.774"
"2256","3914.719"
"2257","3885.439"
"2258","3894.175"
"2259","3900.487"
"2260","3859.305"
"2261","3739.73"
"2262","3627.123"
"2263","3649.414"
"2264","3755.995"
"2265","3751.716"
"2266","3592.998"
"2267","3463.787"
"2268","3484.105"
"2269","3556.634"
"2270","3569.653"
"2271","3518.114"
"2272","3429.438"
"2273","3324.423"
"2274","3219.879"
"2275","3125.925"
"2276","3046.298"
"2277","2999.059"
"2278","3027.155"
"2279","3131.582"
"2280","3177.479"
"2281","3046.636"
"2282","2863.972"
"2283","2819.696"
"2284","2878.675"
"2285","2871.633"
"2286","2763.429"
"2287","2661.227"
"2288","2613.847"
"2289","2554.214"
"2290","2435.033"
"2291","2307.734"
"2292","2230.905"
"2293","2195.686"
"2294","2171.481"
"2295","2145.208"
"2296","2113.815"
"2297","2065.934"
"2298","1982.3"
"2299","1875.056"
"2300","1808.048"
