,"Scan 01163"
"400","8860.165"
"401","8847.463"
"402","8828.375"
"403","8802.593"
"404","8776.385"
"405","8758.109"
"406","8756.053"
"407","8776.652"
"408","8811.78"
"409","8846.325"
"410","8865.244"
"411","8854.942"
"412","8819.355"
"413","8774.587"
"414","8736.875"
"415","8721.688"
"416","8729.973"
"417","8748.526"
"418","8763.644"
"419","8761.969"
"420","8740.781"
"421","8711.649"
"422","8687.067"
"423","8679.359"
"424","8692.364"
"425","8714.389"
"426","8732.149"
"427","8732.473"
"428","8708.375"
"429","8668.223"
"430","8622.676"
"431","8582.322"
"432","8555.697"
"433","8544.593"
"434","8549.358"
"435","8570.354"
"436","8606.005"
"437","8646.024"
"438","8677.728"
"439","8688.521"
"440","8669.123"
"441","8629.646"
"442","8587.258"
"443","8559.035"
"444","8559.364"
"445","8582.561"
"446","8613.604"
"447","8637.525"
"448","8640.811"
"449","8623.788"
"450","8594.786"
"451","8562.174"
"452","8533.941"
"453","8513.883"
"454","8502.836"
"455","8501.568"
"456","8510.639"
"457","8526.913"
"458","8544.215"
"459","8556.304"
"460","8557.284"
"461","8547.765"
"462","8534.694"
"463","8525.229"
"464","8526.186"
"465","8535.589"
"466","8541.654"
"467","8532.162"
"468","8495.309"
"469","8432.398"
"470","8361.27"
"471","8300.727"
"472","8269.166"
"473","8271.295"
"474","8292.572"
"475","8317.08"
"476","8329.173"
"477","8323.422"
"478","8310.166"
"479","8301.04"
"480","8307.479"
"481","8331.15"
"482","8357.423"
"483","8370.194"
"484","8353.605"
"485","8305.022"
"486","8245.326"
"487","8197.702"
"488","8185.045"
"489","8213.73"
"490","8259.414"
"491","8294.513"
"492","8291.77"
"493","8241.787"
"494","8169.389"
"495","8103.164"
"496","8071.374"
"497","8083.979"
"498","8115.327"
"499","8135.794"
"500","8116.084"
"501","8045.909"
"502","7951.877"
"503","7864.717"
"504","7814.815"
"505","7814.362"
"506","7840.839"
"507","7867.938"
"508","7869.634"
"509","7833.971"
"510","7774.911"
"511","7709.14"
"512","7653.166"
"513","7615.117"
"514","7588.473"
"515","7565.245"
"516","7537.573"
"517","7503.453"
"518","7470.517"
"519","7447.264"
"520","7442.018"
"521","7455.563"
"522","7477.207"
"523","7495.354"
"524","7498.638"
"525","7483.61"
"526","7457.796"
"527","7429.49"
"528","7406.78"
"529","7391.791"
"530","7379.24"
"531","7363.405"
"532","7338.831"
"533","7306.755"
"534","7275.783"
"535","7254.86"
"536","7252.399"
"537","7266.268"
"538","7284.194"
"539","7293.554"
"540","7282.514"
"541","7251.497"
"542","7211.061"
"543","7172.022"
"544","7144.486"
"545","7129.948"
"546","7123.877"
"547","7121.636"
"548","7119.109"
"549","7117.253"
"550","7119.987"
"551","7131.241"
"552","7153.76"
"553","7180.958"
"554","7201.834"
"555","7205.408"
"556","7183.226"
"557","7142.125"
"558","7094.722"
"559","7053.59"
"560","7028.835"
"561","7019.099"
"562","7019.618"
"563","7025.661"
"564","7033.313"
"565","7041.56"
"566","7050.05"
"567","7058.437"
"568","7066.581"
"569","7074.913"
"570","7083.965"
"571","7094.257"
"572","7105.691"
"573","7116.887"
"574","7126.32"
"575","7132.471"
"576","7134.068"
"577","7130.203"
"578","7120.004"
"579","7102.688"
"580","7079.91"
"581","7056.117"
"582","7035.894"
"583","7023.505"
"584","7018.112"
"585","7014.589"
"586","7007.691"
"587","6992.826"
"588","6972.148"
"589","6951.936"
"590","6938.481"
"591","6937.162"
"592","6946.963"
"593","6964.135"
"594","6984.936"
"595","7005.776"
"596","7023.736"
"597","7036.099"
"598","7040.16"
"599","7034.148"
"600","7019.167"
"601","6996.875"
"602","6968.931"
"603","6939.108"
"604","6915.53"
"605","6906.831"
"606","6921.369"
"607","6956.374"
"608","6993.688"
"609","7014.091"
"610","6999.482"
"611","6952.969"
"612","6897.311"
"613","6855.93"
"614","6849.972"
"615","6876.695"
"616","6918.763"
"617","6958.692"
"618","6981.538"
"619","6988.12"
"620","6985.386"
"621","6980.28"
"622","6977.323"
"623","6971.89"
"624","6957.193"
"625","6926.495"
"626","6879.72"
"627","6832.076"
"628","6800.869"
"629","6803.012"
"630","6839.452"
"631","6888.516"
"632","6926.875"
"633","6932.534"
"634","6906.652"
"635","6870.754"
"636","6846.988"
"637","6854.76"
"638","6888.966"
"639","6931.41"
"640","6963.825"
"641","6971.911"
"642","6960.834"
"643","6941.793"
"644","6925.942"
"645","6919.785"
"646","6916.993"
"647","6909.051"
"648","6887.625"
"649","6854.004"
"650","6824.696"
"651","6817.512"
"652","6849.088"
"653","6913.597"
"654","6984.553"
"655","7034.772"
"656","7040.493"
"657","7007.961"
"658","6959.193"
"659","6916.274"
"660","6896.817"
"661","6898.259"
"662","6912.312"
"663","6930.726"
"664","6947.518"
"665","6962.086"
"666","6974.613"
"667","6985.264"
"668","6993.755"
"669","6999.203"
"670","7000.697"
"671","6997.322"
"672","6988.21"
"673","6972.515"
"674","6949.401"
"675","6918.931"
"676","6886.662"
"677","6860.179"
"678","6847.055"
"679","6851.983"
"680","6871.163"
"681","6899.25"
"682","6930.93"
"683","6961.922"
"684","6989.502"
"685","7011.083"
"686","7024.195"
"687","7028.165"
"688","7023.739"
"689","7011.694"
"690","6993.425"
"691","6974.322"
"692","6961.361"
"693","6961.497"
"694","6976.924"
"695","6995.581"
"696","7002.772"
"697","6984.116"
"698","6939.397"
"699","6889.01"
"700","6854.919"
"701","6857.31"
"702","6892.255"
"703","6938.306"
"704","6973.656"
"705","6980.808"
"706","6966.122"
"707","6944.222"
"708","6929.702"
"709","6931.206"
"710","6942.676"
"711","6955.815"
"712","6962.504"
"713","6959.629"
"714","6949.951"
"715","6936.556"
"716","6922.539"
"717","6911.121"
"718","6905.587"
"719","6909.22"
"720","6923.74"
"721","6944.744"
"722","6966.317"
"723","6982.592"
"724","6990.227"
"725","6990.225"
"726","6984.021"
"727","6973.177"
"728","6961.363"
"729","6953.921"
"730","6956.236"
"731","6971.636"
"732","6991.875"
"733","7004.628"
"734","6997.625"
"735","6968.503"
"736","6937.886"
"737","6929.623"
"738","6966.383"
"739","7043.354"
"740","7127.593"
"741","7184.932"
"742","7186.438"
"743","7141.511"
"744","7076.726"
"745","7018.679"
"746","6986.509"
"747","6978.075"
"748","6987.461"
"749","7008.775"
"750","7036.65"
"751","7066.337"
"752","7093.131"
"753","7112.914"
"754","7126.524"
"755","7137.354"
"756","7148.814"
"757","7163.495"
"758","7181.387"
"759","7201.964"
"760","7224.685"
"761","7248.391"
"762","7271.124"
"763","7290.882"
"764","7305.535"
"765","7311.826"
"766","7305.895"
"767","7283.877"
"768","7245.477"
"769","7201.857"
"770","7166.472"
"771","7152.514"
"772","7164.187"
"773","7194.4"
"774","7235.352"
"775","7279.42"
"776","7320.479"
"777","7353.159"
"778","7372.106"
"779","7375.596"
"780","7372.607"
"781","7374.068"
"782","7390.543"
"783","7422.376"
"784","7458.376"
"785","7486.741"
"786","7497.396"
"787","7492.634"
"788","7480.173"
"789","7467.744"
"790","7460.145"
"791","7455.003"
"792","7448.863"
"793","7438.542"
"794","7426.329"
"795","7419.611"
"796","7425.969"
"797","7450.239"
"798","7482.038"
"799","7505.745"
"800","7505.857"
"801","7479.564"
"802","7448.021"
"803","7435.036"
"804","7462.085"
"805","7519.993"
"806","7577.875"
"807","7604.418"
"808","7579.137"
"809","7523.973"
"810","7471.249"
"811","7452.76"
"812","7478.776"
"813","7530.51"
"814","7587.129"
"815","7629.606"
"816","7653.76"
"817","7662.694"
"818","7659.563"
"819","7648.037"
"820","7633.098"
"821","7619.941"
"822","7613.482"
"823","7613.541"
"824","7615.334"
"825","7613.922"
"826","7606.286"
"827","7598.832"
"828","7600.845"
"829","7621.445"
"830","7659.531"
"831","7697.896"
"832","7717.918"
"833","7703.783"
"834","7666.105"
"835","7630.07"
"836","7620.979"
"837","7652.031"
"838","7703.126"
"839","7748.494"
"840","7763.496"
"841","7745.936"
"842","7714.331"
"843","7687.971"
"844","7681.813"
"845","7690.003"
"846","7700.429"
"847","7701.175"
"848","7690.83"
"849","7683.599"
"850","7694.951"
"851","7737.407"
"852","7798.836"
"853","7854.847"
"854","7881.01"
"855","7866.076"
"856","7829.998"
"857","7797.242"
"858","7790.718"
"859","7810.065"
"860","7836.929"
"861","7852.492"
"862","7843.311"
"863","7816.133"
"864","7782.445"
"865","7753.592"
"866","7736.824"
"867","7734.664"
"868","7749.381"
"869","7781.867"
"870","7824.974"
"871","7868.64"
"872","7902.894"
"873","7924.45"
"874","7941.181"
"875","7962.021"
"876","7994.326"
"877","8031.203"
"878","8058.225"
"879","8060.928"
"880","8034.603"
"881","7997.808"
"882","7972.496"
"883","7978.983"
"884","8014.653"
"885","8059.947"
"886","8094.918"
"887","8105.552"
"888","8097.789"
"889","8081.755"
"890","8067.432"
"891","8061.401"
"892","8066.884"
"893","8086.953"
"894","8122.418"
"895","8163.569"
"896","8197.65"
"897","8212.188"
"898","8205.551"
"899","8190.185"
"900","8179.462"
"901","8184.279"
"902","8200.024"
"903","8216.132"
"904","8222.12"
"905","8215.266"
"906","8205.674"
"907","8204.649"
"908","8221.975"
"909","8254.934"
"910","8294.667"
"911","8332.283"
"912","8360.856"
"913","8377.512"
"914","8379.879"
"915","8366.329"
"916","8343.2"
"917","8321.642"
"918","8312.857"
"919","8321.58"
"920","8336.193"
"921","8342.532"
"922","8327.653"
"923","8295.24"
"924","8260.995"
"925","8240.883"
"926","8246.719"
"927","8277.74"
"928","8330.831"
"929","8402.28"
"930","8478.468"
"931","8537.436"
"932","8556.965"
"933","8524.678"
"934","8462.957"
"935","8401.847"
"936","8370.306"
"937","8374.162"
"938","8397.247"
"939","8422.502"
"940","8436.071"
"941","8436.909"
"942","8427.193"
"943","8409.259"
"944","8389.41"
"945","8378.135"
"946","8386.12"
"947","8419.435"
"948","8463.587"
"949","8498.356"
"950","8504.146"
"951","8479.655"
"952","8444.414"
"953","8419.09"
"954","8419.963"
"955","8442.221"
"956","8474.718"
"957","8506.423"
"958","8530.318"
"959","8544.21"
"960","8546.187"
"961","8535.696"
"962","8519.034"
"963","8504.664"
"964","8500.85"
"965","8508.734"
"966","8520.598"
"967","8528.164"
"968","8525.183"
"969","8515.943"
"970","8508.155"
"971","8509.315"
"972","8519.082"
"973","8527.251"
"974","8522.982"
"975","8498.917"
"976","8465.883"
"977","8440.611"
"978","8439.386"
"979","8462.244"
"980","8488.915"
"981","8497.832"
"982","8474.182"
"983","8437.553"
"984","8418.49"
"985","8446.665"
"986","8521.733"
"987","8606.892"
"988","8663.12"
"989","8661.121"
"990","8619.125"
"991","8569.853"
"992","8545.32"
"993","8555.402"
"994","8584.318"
"995","8614.849"
"996","8633.252"
"997","8641.759"
"998","8647.151"
"999","8655.978"
"1000","8668.39"
"1001","8677.594"
"1002","8676.449"
"1003","8660.863"
"1004","8639.55"
"1005","8624.581"
"1006","8628.024"
"1007","8654.854"
"1008","8692.229"
"1009","8724.544"
"1010","8737.737"
"1011","8733.783"
"1012","8724.122"
"1013","8720.274"
"1014","8727.107"
"1015","8736.406"
"1016","8738.42"
"1017","8725.66"
"1018","8707.667"
"1019","8701.739"
"1020","8724.876"
"1021","8775.146"
"1022","8822.297"
"1023","8833.748"
"1024","8786.646"
"1025","8710.336"
"1026","8651.573"
"1027","8655.578"
"1028","8724.203"
"1029","8811.518"
"1030","8869.124"
"1031","8865.572"
"1032","8832.138"
"1033","8814.597"
"1034","8855.528"
"1035","8947.919"
"1036","9045.913"
"1037","9102.648"
"1038","9092.397"
"1039","9041.648"
"1040","8984.833"
"1041","8953.501"
"1042","8952.896"
"1043","8974.287"
"1044","9008.782"
"1045","9046.232"
"1046","9074.434"
"1047","9080.99"
"1048","9057.383"
"1049","9016.251"
"1050","8977.428"
"1051","8960.205"
"1052","8969.893"
"1053","8997.141"
"1054","9031.899"
"1055","9065.235"
"1056","9091.846"
"1057","9107.161"
"1058","9107.488"
"1059","9099.574"
"1060","9096.966"
"1061","9113.25"
"1062","9152.131"
"1063","9198.498"
"1064","9235.127"
"1065","9248.156"
"1066","9244.521"
"1067","9239.095"
"1068","9246.331"
"1069","9268.063"
"1070","9292.108"
"1071","9305.531"
"1072","9300.385"
"1073","9285.086"
"1074","9271.425"
"1075","9270.042"
"1076","9278.532"
"1077","9286.272"
"1078","9282.599"
"1079","9265.067"
"1080","9245.623"
"1081","9237.664"
"1082","9250.798"
"1083","9274.357"
"1084","9290.945"
"1085","9284.034"
"1086","9255.186"
"1087","9222.895"
"1088","9206.3"
"1089","9216.283"
"1090","9242.408"
"1091","9270.835"
"1092","9289.177"
"1093","9296.593"
"1094","9297.782"
"1095","9297.426"
"1096","9298.25"
"1097","9300.476"
"1098","9304.167"
"1099","9308.193"
"1100","9307.243"
"1101","9295.07"
"1102","9266.401"
"1103","9226.822"
"1104","9188.694"
"1105","9164.403"
"1106","9160.424"
"1107","9173.746"
"1108","9200.506"
"1109","9235.807"
"1110","9270.181"
"1111","9292.894"
"1112","9294.145"
"1113","9277.515"
"1114","9256.537"
"1115","9244.912"
"1116","9248.727"
"1117","9259.863"
"1118","9268.651"
"1119","9267.856"
"1120","9262.678"
"1121","9262.256"
"1122","9275.143"
"1123","9300.214"
"1124","9328.476"
"1125","9350.721"
"1126","9361.391"
"1127","9362.188"
"1128","9355.674"
"1129","9344.265"
"1130","9329.598"
"1131","9313.06"
"1132","9296.12"
"1133","9281.771"
"1134","9274.229"
"1135","9277.716"
"1136","9291.243"
"1137","9303.688"
"1138","9302.752"
"1139","9280.416"
"1140","9250.2"
"1141","9232.366"
"1142","9245.586"
"1143","9284.848"
"1144","9327.114"
"1145","9349.029"
"1146","9340.21"
"1147","9313.049"
"1148","9282.253"
"1149","9260.708"
"1150","9253.334"
"1151","9262.91"
"1152","9291.557"
"1153","9333.73"
"1154","9378.887"
"1155","9416.438"
"1156","9438.571"
"1157","9441.478"
"1158","9421.683"
"1159","9381.22"
"1160","9340.965"
"1161","9325.804"
"1162","9356.537"
"1163","9418.664"
"1164","9479.685"
"1165","9507.87"
"1166","9498.273"
"1167","9475.887"
"1168","9467.271"
"1169","9487.154"
"1170","9521.068"
"1171","9550.1"
"1172","9558.851"
"1173","9552.474"
"1174","9543.578"
"1175","9544.005"
"1176","9553.228"
"1177","9560.917"
"1178","9556.576"
"1179","9537.55"
"1180","9514.27"
"1181","9498.425"
"1182","9498.537"
"1183","9511.453"
"1184","9531.314"
"1185","9552.219"
"1186","9567.886"
"1187","9571.836"
"1188","9558.016"
"1189","9531.349"
"1190","9508.377"
"1191","9506.169"
"1192","9532.426"
"1193","9574.479"
"1194","9616.973"
"1195","9648.165"
"1196","9673.508"
"1197","9703.538"
"1198","9747.216"
"1199","9795.964"
"1200","9830.316"
"1201","9831.187"
"1202","9798.443"
"1203","9755.185"
"1204","9725.913"
"1205","9723.903"
"1206","9734.869"
"1207","9740.38"
"1208","9726.5"
"1209","9702.678"
"1210","9685.896"
"1211","9691.858"
"1212","9721.13"
"1213","9764.476"
"1214","9812.443"
"1215","9853.98"
"1216","9876.065"
"1217","9865.574"
"1218","9820.712"
"1219","9766.53"
"1220","9731.989"
"1221","9738.528"
"1222","9771.407"
"1223","9805.048"
"1224","9816.183"
"1225","9805.239"
"1226","9786.463"
"1227","9773.985"
"1228","9774.148"
"1229","9784.911"
"1230","9803.805"
"1231","9827.175"
"1232","9849.019"
"1233","9863.054"
"1234","9865.566"
"1235","9862.617"
"1236","9862.566"
"1237","9872.705"
"1238","9892.234"
"1239","9916.69"
"1240","9941.658"
"1241","9963.745"
"1242","9980.394"
"1243","9989.161"
"1244","9991.927"
"1245","9996.756"
"1246","10012.19"
"1247","10040.97"
"1248","10071.04"
"1249","10087.93"
"1250","10081.53"
"1251","10062.19"
"1252","10046.37"
"1253","10048.54"
"1254","10065.07"
"1255","10082.67"
"1256","10088.56"
"1257","10082.4"
"1258","10075.14"
"1259","10078.05"
"1260","10095.32"
"1261","10120.22"
"1262","10145.11"
"1263","10162.81"
"1264","10167.41"
"1265","10153.18"
"1266","10118.69"
"1267","10082.42"
"1268","10068.65"
"1269","10097.33"
"1270","10151.91"
"1271","10197.57"
"1272","10201.4"
"1273","10164.67"
"1274","10116.8"
"1275","10087.62"
"1276","10090.97"
"1277","10119.49"
"1278","10164.35"
"1279","10215.06"
"1280","10257.56"
"1281","10277.3"
"1282","10265.25"
"1283","10232"
"1284","10192.46"
"1285","10159.62"
"1286","10134.58"
"1287","10114.04"
"1288","10095.63"
"1289","10086.44"
"1290","10099.18"
"1291","10145.35"
"1292","10210.72"
"1293","10257.38"
"1294","10247.34"
"1295","10180.26"
"1296","10108.81"
"1297","10089.52"
"1298","10147.95"
"1299","10242.69"
"1300","10323.52"
"1301","10353.35"
"1302","10339.69"
"1303","10299.52"
"1304","10249.53"
"1305","10205.07"
"1306","10181"
"1307","10190.06"
"1308","10226.36"
"1309","10274.54"
"1310","10319.57"
"1311","10352.36"
"1312","10368.35"
"1313","10363.42"
"1314","10341.95"
"1315","10317.75"
"1316","10304.93"
"1317","10307.25"
"1318","10312.12"
"1319","10305.49"
"1320","10282.9"
"1321","10261.96"
"1322","10263.42"
"1323","10298.75"
"1324","10348.2"
"1325","10385.39"
"1326","10389.46"
"1327","10367.07"
"1328","10333.49"
"1329","10303.08"
"1330","10283.28"
"1331","10278.46"
"1332","10292.31"
"1333","10321.15"
"1334","10356.68"
"1335","10390.54"
"1336","10414.94"
"1337","10422.61"
"1338","10406.68"
"1339","10372.35"
"1340","10339.01"
"1341","10326.59"
"1342","10339.76"
"1343","10359"
"1344","10362.68"
"1345","10341.82"
"1346","10314.44"
"1347","10302.06"
"1348","10316.72"
"1349","10343.03"
"1350","10360.62"
"1351","10356.31"
"1352","10345.43"
"1353","10350.35"
"1354","10387.79"
"1355","10444.14"
"1356","10495.69"
"1357","10520.57"
"1358","10510.68"
"1359","10463.96"
"1360","10380.71"
"1361","10284.39"
"1362","10211.69"
"1363","10196.68"
"1364","10234.39"
"1365","10291.36"
"1366","10334.75"
"1367","10357.72"
"1368","10377.33"
"1369","10410.73"
"1370","10450.5"
"1371","10461.03"
"1372","10406.01"
"1373","10290.33"
"1374","10177.56"
"1375","10135.27"
"1376","10185.31"
"1377","10269.23"
"1378","10320.63"
"1379","10305.74"
"1380","10261.43"
"1381","10233.73"
"1382","10249.71"
"1383","10286.1"
"1384","10311.38"
"1385","10305.81"
"1386","10287.78"
"1387","10283.41"
"1388","10308.06"
"1389","10334.6"
"1390","10325.41"
"1391","10256.66"
"1392","10170.18"
"1393","10127.36"
"1394","10174.81"
"1395","10274.77"
"1396","10359.62"
"1397","10372.41"
"1398","10329.54"
"1399","10277.88"
"1400","10258.63"
"1401","10266.15"
"1402","10272.14"
"1403","10251.4"
"1404","10209.64"
"1405","10169.72"
"1406","10152.75"
"1407","10157.94"
"1408","10170.71"
"1409","10177.47"
"1410","10180.81"
"1411","10194.69"
"1412","10231.94"
"1413","10283.7"
"1414","10324.1"
"1415","10328.3"
"1416","10299.24"
"1417","10263.9"
"1418","10248.99"
"1419","10257.89"
"1420","10271.78"
"1421","10271.73"
"1422","10256.76"
"1423","10244.43"
"1424","10252.67"
"1425","10286.07"
"1426","10334.42"
"1427","10386.67"
"1428","10429.99"
"1429","10449.42"
"1430","10430.5"
"1431","10380.75"
"1432","10335.31"
"1433","10330.45"
"1434","10376.58"
"1435","10450.12"
"1436","10525.28"
"1437","10582.65"
"1438","10611.58"
"1439","10602.43"
"1440","10562.21"
"1441","10521.59"
"1442","10512.59"
"1443","10542.04"
"1444","10580.05"
"1445","10594.26"
"1446","10573.93"
"1447","10540.4"
"1448","10517.38"
"1449","10515.68"
"1450","10526.84"
"1451","10540.85"
"1452","10548.27"
"1453","10540.52"
"1454","10509.31"
"1455","10457.68"
"1456","10405.52"
"1457","10373.83"
"1458","10370.74"
"1459","10385.58"
"1460","10406.24"
"1461","10424.32"
"1462","10436.71"
"1463","10440.67"
"1464","10432.85"
"1465","10409.08"
"1466","10365.24"
"1467","10303.93"
"1468","10236.58"
"1469","10175.17"
"1470","10129"
"1471","10103.94"
"1472","10105.15"
"1473","10122.47"
"1474","10127.29"
"1475","10091.21"
"1476","10022.72"
"1477","9971.847"
"1478","9988.395"
"1479","10061.42"
"1480","10116.35"
"1481","10079.27"
"1482","9956.64"
"1483","9832.667"
"1484","9790.628"
"1485","9835.668"
"1486","9903.694"
"1487","9931.416"
"1488","9907.946"
"1489","9864.618"
"1490","9832.525"
"1491","9822.561"
"1492","9830.954"
"1493","9852.99"
"1494","9876.73"
"1495","9885.556"
"1496","9865.235"
"1497","9826.284"
"1498","9793.435"
"1499","9788.426"
"1500","9806.086"
"1501","9827.7"
"1502","9836.469"
"1503","9830.096"
"1504","9812.605"
"1505","9788.063"
"1506","9760.604"
"1507","9734.4"
"1508","9713.374"
"1509","9700.213"
"1510","9697.223"
"1511","9705.956"
"1512","9724.795"
"1513","9751.287"
"1514","9781.828"
"1515","9808.811"
"1516","9823.747"
"1517","9823.501"
"1518","9820.226"
"1519","9828.767"
"1520","9851.349"
"1521","9860.627"
"1522","9825.241"
"1523","9740.855"
"1524","9654.895"
"1525","9620.034"
"1526","9648.939"
"1527","9691.831"
"1528","9694.662"
"1529","9647.521"
"1530","9596.487"
"1531","9589.578"
"1532","9633.751"
"1533","9693.884"
"1534","9734.154"
"1535","9739.341"
"1536","9711.135"
"1537","9653.414"
"1538","9589.81"
"1539","9556.849"
"1540","9584.705"
"1541","9646.667"
"1542","9686.953"
"1543","9660.335"
"1544","9590.687"
"1545","9529.064"
"1546","9515.048"
"1547","9533.174"
"1548","9551.642"
"1549","9548.242"
"1550","9534.706"
"1551","9530.222"
"1552","9546.829"
"1553","9577.819"
"1554","9613.457"
"1555","9643.676"
"1556","9657.787"
"1557","9645.256"
"1558","9607.58"
"1559","9563.727"
"1560","9533.484"
"1561","9521.109"
"1562","9513.999"
"1563","9499.601"
"1564","9480.012"
"1565","9469.118"
"1566","9479.248"
"1567","9503.007"
"1568","9521.354"
"1569","9517.808"
"1570","9494.863"
"1571","9463.054"
"1572","9432.255"
"1573","9409.009"
"1574","9398.866"
"1575","9405.47"
"1576","9426.192"
"1577","9457.121"
"1578","9491.057"
"1579","9513.446"
"1580","9508.914"
"1581","9474.823"
"1582","9428.549"
"1583","9388.889"
"1584","9365.092"
"1585","9355.876"
"1586","9359.143"
"1587","9368.68"
"1588","9375.113"
"1589","9370.627"
"1590","9362.22"
"1591","9364.737"
"1592","9388.495"
"1593","9417.59"
"1594","9426.855"
"1595","9398.193"
"1596","9339.507"
"1597","9264.666"
"1598","9193.037"
"1599","9156.978"
"1600","9190.168"
"1601","9290.359"
"1602","9399.201"
"1603","9455.32"
"1604","9444.865"
"1605","9403.359"
"1606","9366.886"
"1607","9348.896"
"1608","9347.295"
"1609","9359.464"
"1610","9381.196"
"1611","9407.581"
"1612","9432.496"
"1613","9444.553"
"1614","9430.908"
"1615","9390.027"
"1616","9350.903"
"1617","9347.315"
"1618","9387.364"
"1619","9435.843"
"1620","9454.526"
"1621","9436.231"
"1622","9406.99"
"1623","9392.548"
"1624","9394.455"
"1625","9397.896"
"1626","9390.379"
"1627","9377.335"
"1628","9371.66"
"1629","9381.157"
"1630","9393.555"
"1631","9391.703"
"1632","9367.556"
"1633","9333.962"
"1634","9306.586"
"1635","9295.508"
"1636","9303.085"
"1637","9330.831"
"1638","9375.217"
"1639","9428.477"
"1640","9482.061"
"1641","9521.973"
"1642","9531.444"
"1643","9500.623"
"1644","9451.66"
"1645","9415.937"
"1646","9413.138"
"1647","9432.793"
"1648","9459.638"
"1649","9478.45"
"1650","9474.084"
"1651","9433.203"
"1652","9375.416"
"1653","9349.001"
"1654","9394.589"
"1655","9479.723"
"1656","9535.233"
"1657","9511.293"
"1658","9444.703"
"1659","9396.033"
"1660","9396.255"
"1661","9406.352"
"1662","9378.32"
"1663","9310.903"
"1664","9264.525"
"1665","9298.692"
"1666","9398.095"
"1667","9491.524"
"1668","9516.822"
"1669","9481.968"
"1670","9423.713"
"1671","9372.944"
"1672","9340.118"
"1673","9331.238"
"1674","9339.313"
"1675","9334.099"
"1676","9284.5"
"1677","9194.777"
"1678","9103.827"
"1679","9047.456"
"1680","9020.001"
"1681","8993.802"
"1682","8952.422"
"1683","8929.003"
"1684","8969.937"
"1685","9079.491"
"1686","9170.539"
"1687","9147.217"
"1688","9013.908"
"1689","8889.411"
"1690","8885.775"
"1691","8974.895"
"1692","9044.064"
"1693","9006.813"
"1694","8909.951"
"1695","8840.473"
"1696","8845.146"
"1697","8876.849"
"1698","8876.529"
"1699","8833.424"
"1700","8794.006"
"1701","8803.296"
"1702","8854.109"
"1703","8907.469"
"1704","8931.52"
"1705","8930.539"
"1706","8919.461"
"1707","8909.146"
"1708","8901.425"
"1709","8896.855"
"1710","8894.482"
"1711","8891.687"
"1712","8885.701"
"1713","8873.215"
"1714","8850.625"
"1715","8816.47"
"1716","8778.02"
"1717","8744.738"
"1718","8723.017"
"1719","8713.524"
"1720","8716.178"
"1721","8728.599"
"1722","8746.313"
"1723","8764.021"
"1724","8771.162"
"1725","8754.896"
"1726","8711.095"
"1727","8662.313"
"1728","8635.843"
"1729","8641.184"
"1730","8662.901"
"1731","8684.516"
"1732","8699.914"
"1733","8709.892"
"1734","8715.996"
"1735","8722.806"
"1736","8735.755"
"1737","8753.189"
"1738","8758.874"
"1739","8736.02"
"1740","8694.596"
"1741","8669.956"
"1742","8691.203"
"1743","8735.896"
"1744","8759.386"
"1745","8736.485"
"1746","8698.373"
"1747","8685.431"
"1748","8704.383"
"1749","8719.4"
"1750","8697.238"
"1751","8657.717"
"1752","8650.933"
"1753","8708.106"
"1754","8787.204"
"1755","8829.205"
"1756","8804.955"
"1757","8732.706"
"1758","8635.892"
"1759","8550.105"
"1760","8519.505"
"1761","8572.088"
"1762","8659.125"
"1763","8709.744"
"1764","8693.17"
"1765","8653.813"
"1766","8641.373"
"1767","8656.208"
"1768","8658.774"
"1769","8618.089"
"1770","8555.645"
"1771","8510.441"
"1772","8507"
"1773","8539.659"
"1774","8598.524"
"1775","8665.448"
"1776","8715.061"
"1777","8725.801"
"1778","8699.754"
"1779","8647.469"
"1780","8586.519"
"1781","8549.551"
"1782","8568.66"
"1783","8627.266"
"1784","8665.575"
"1785","8636.167"
"1786","8571.415"
"1787","8531.869"
"1788","8549.61"
"1789","8596.705"
"1790","8638.453"
"1791","8655.229"
"1792","8640.186"
"1793","8591.874"
"1794","8535.255"
"1795","8503.844"
"1796","8509.326"
"1797","8521.513"
"1798","8508.185"
"1799","8477.849"
"1800","8469.99"
"1801","8512.408"
"1802","8575.849"
"1803","8615.07"
"1804","8606.15"
"1805","8560.229"
"1806","8492.868"
"1807","8432.66"
"1808","8416.587"
"1809","8463.898"
"1810","8528.258"
"1811","8549.371"
"1812","8513.837"
"1813","8470.49"
"1814","8464.829"
"1815","8476.722"
"1816","8452.945"
"1817","8370.669"
"1818","8291.744"
"1819","8289.695"
"1820","8368.421"
"1821","8461.427"
"1822","8508.892"
"1823","8510.171"
"1824","8486.411"
"1825","8458.038"
"1826","8443.938"
"1827","8460.477"
"1828","8491.401"
"1829","8496.771"
"1830","8453.745"
"1831","8409.45"
"1832","8426.857"
"1833","8502.506"
"1834","8543.572"
"1835","8468.329"
"1836","8337.171"
"1837","8279.174"
"1838","8355.699"
"1839","8458.01"
"1840","8458.363"
"1841","8362.333"
"1842","8291.903"
"1843","8338.698"
"1844","8431.835"
"1845","8453.943"
"1846","8372.078"
"1847","8281.353"
"1848","8276.483"
"1849","8350.341"
"1850","8441.951"
"1851","8502.271"
"1852","8515.244"
"1853","8471.992"
"1854","8398.394"
"1855","8351.263"
"1856","8373.153"
"1857","8435.115"
"1858","8487.831"
"1859","8500.896"
"1860","8471.278"
"1861","8401.745"
"1862","8324.766"
"1863","8287.205"
"1864","8311.653"
"1865","8363.876"
"1866","8403.207"
"1867","8414.727"
"1868","8403.245"
"1869","8376.147"
"1870","8348.533"
"1871","8336.835"
"1872","8341.442"
"1873","8344.05"
"1874","8330.244"
"1875","8315.648"
"1876","8326.79"
"1877","8365.181"
"1878","8388.897"
"1879","8358.41"
"1880","8299.892"
"1881","8276.177"
"1882","8317.442"
"1883","8369.108"
"1884","8367.15"
"1885","8312.045"
"1886","8255.879"
"1887","8239.468"
"1888","8255.583"
"1889","8285.905"
"1890","8317.177"
"1891","8341.767"
"1892","8353.094"
"1893","8348.823"
"1894","8328.145"
"1895","8296.188"
"1896","8266.992"
"1897","8253.737"
"1898","8257.173"
"1899","8272.294"
"1900","8288.118"
"1901","8281.809"
"1902","8233.796"
"1903","8174.825"
"1904","8166.022"
"1905","8234.675"
"1906","8318.483"
"1907","8344.86"
"1908","8305.962"
"1909","8243.718"
"1910","8197.377"
"1911","8192.551"
"1912","8249.658"
"1913","8338.426"
"1914","8380.427"
"1915","8320.62"
"1916","8211.046"
"1917","8130.458"
"1918","8110.87"
"1919","8130.859"
"1920","8166.215"
"1921","8193.746"
"1922","8191.037"
"1923","8157.35"
"1924","8121.059"
"1925","8108.247"
"1926","8118.111"
"1927","8139.635"
"1928","8158.113"
"1929","8153.2"
"1930","8111.027"
"1931","8067.152"
"1932","8077.885"
"1933","8148.748"
"1934","8197.712"
"1935","8149.519"
"1936","8053.54"
"1937","8018.206"
"1938","8087.443"
"1939","8183.124"
"1940","8222.629"
"1941","8203.54"
"1942","8164.632"
"1943","8128.112"
"1944","8082.277"
"1945","8015.781"
"1946","7958.003"
"1947","7960.165"
"1948","8035.577"
"1949","8118.513"
"1950","8141.433"
"1951","8114.966"
"1952","8092.848"
"1953","8102.636"
"1954","8116.039"
"1955","8102.297"
"1956","8074.423"
"1957","8069.396"
"1958","8096.569"
"1959","8107.9"
"1960","8057.81"
"1961","7988.862"
"1962","7990.356"
"1963","8081.755"
"1964","8143.916"
"1965","8061.889"
"1966","7897.81"
"1967","7802.812"
"1968","7846.524"
"1969","7946.957"
"1970","8013.771"
"1971","8020.174"
"1972","7969.22"
"1973","7886.257"
"1974","7833.639"
"1975","7862.634"
"1976","7923.582"
"1977","7925.823"
"1978","7849.191"
"1979","7778.873"
"1980","7789.602"
"1981","7842.965"
"1982","7860.75"
"1983","7820.799"
"1984","7773.655"
"1985","7760.668"
"1986","7753.533"
"1987","7704.909"
"1988","7633.826"
"1989","7632.31"
"1990","7757.142"
"1991","7907.749"
"1992","7949.994"
"1993","7872.75"
"1994","7777.023"
"1995","7742.185"
"1996","7764.485"
"1997","7822.72"
"1998","7883.623"
"1999","7905.042"
"2000","7863.837"
"2001","7785.003"
"2002","7700.445"
"2003","7636.389"
"2004","7615.658"
"2005","7640.383"
"2006","7673.184"
"2007","7676.746"
"2008","7647.418"
"2009","7596.592"
"2010","7546.762"
"2011","7536.339"
"2012","7589.726"
"2013","7652.144"
"2014","7646.093"
"2015","7570.614"
"2016","7506.95"
"2017","7515.348"
"2018","7564.683"
"2019","7604.553"
"2020","7607.744"
"2021","7565.128"
"2022","7489.575"
"2023","7447.6"
"2024","7496.147"
"2025","7523.127"
"2026","7326.123"
"2027","6911.624"
"2028","6645.631"
"2029","6841.567"
"2030","7281.528"
"2031","7559.713"
"2032","7553.219"
"2033","7469.518"
"2034","7478.328"
"2035","7533.274"
"2036","7542.079"
"2037","7496.312"
"2038","7452.784"
"2039","7445.17"
"2040","7447.566"
"2041","7430.45"
"2042","7407.896"
"2043","7415.242"
"2044","7449.439"
"2045","7449.293"
"2046","7369.626"
"2047","7268.589"
"2048","7232.307"
"2049","7263.917"
"2050","7287.799"
"2051","7256"
"2052","7209.301"
"2053","7197.743"
"2054","7203.732"
"2055","7171.018"
"2056","7093.57"
"2057","7050.91"
"2058","7109.288"
"2059","7217.564"
"2060","7287.351"
"2061","7285.581"
"2062","7234.472"
"2063","7163.036"
"2064","7112.911"
"2065","7122.073"
"2066","7167.024"
"2067","7189.246"
"2068","7162.81"
"2069","7115.599"
"2070","7077.772"
"2071","7065.711"
"2072","7089.948"
"2073","7130.023"
"2074","7137.321"
"2075","7086.001"
"2076","7011.559"
"2077","6956.954"
"2078","6945.404"
"2079","6989.674"
"2080","7068.006"
"2081","7112.042"
"2082","7072.282"
"2083","6987.374"
"2084","6915.817"
"2085","6888.925"
"2086","6918.382"
"2087","6992.926"
"2088","7057.821"
"2089","7064.355"
"2090","7028.399"
"2091","6987.931"
"2092","6957.155"
"2093","6926.931"
"2094","6891.023"
"2095","6853.541"
"2096","6820.392"
"2097","6798.079"
"2098","6793.131"
"2099","6801.643"
"2100","6806.391"
"2101","6794.914"
"2102","6774.541"
"2103","6757.034"
"2104","6754.925"
"2105","6780.854"
"2106","6821.963"
"2107","6825.19"
"2108","6755.847"
"2109","6675.459"
"2110","6666.175"
"2111","6728.06"
"2112","6800.793"
"2113","6830.38"
"2114","6777.479"
"2115","6631.009"
"2116","6517.499"
"2117","6595.205"
"2118","6803.149"
"2119","6897.663"
"2120","6776.438"
"2121","6645.526"
"2122","6696.05"
"2123","6806.803"
"2124","6757.166"
"2125","6565.338"
"2126","6465.036"
"2127","6567.065"
"2128","6689.67"
"2129","6651.955"
"2130","6522.14"
"2131","6455.874"
"2132","6483.752"
"2133","6520.078"
"2134","6510.656"
"2135","6482.84"
"2136","6467.818"
"2137","6451.892"
"2138","6406.915"
"2139","6349.987"
"2140","6339.179"
"2141","6387.282"
"2142","6405.484"
"2143","6321.027"
"2144","6228.549"
"2145","6272.206"
"2146","6429.748"
"2147","6538.169"
"2148","6499.689"
"2149","6355.057"
"2150","6170.374"
"2151","6055.956"
"2152","6123.277"
"2153","6295.313"
"2154","6354.86"
"2155","6223.343"
"2156","6066.882"
"2157","6028.69"
"2158","6051.986"
"2159","6036.516"
"2160","5987.567"
"2161","5976.266"
"2162","6021.514"
"2163","6066.267"
"2164","6063.728"
"2165","6021.344"
"2166","5960.023"
"2167","5918.376"
"2168","5941.905"
"2169","6012.945"
"2170","6042.633"
"2171","5987.069"
"2172","5926.556"
"2173","5939.168"
"2174","5967.868"
"2175","5911.645"
"2176","5804.94"
"2177","5796.862"
"2178","5937.477"
"2179","6086.406"
"2180","6117.422"
"2181","6055.642"
"2182","5964.95"
"2183","5888.141"
"2184","5854.132"
"2185","5849.827"
"2186","5807.661"
"2187","5695.464"
"2188","5592.896"
"2189","5580.036"
"2190","5604.837"
"2191","5566.728"
"2192","5477.235"
"2193","5446.227"
"2194","5517.037"
"2195","5603.838"
"2196","5627.384"
"2197","5593.633"
"2198","5532.099"
"2199","5488.706"
"2200","5516.684"
"2201","5605.03"
"2202","5667.999"
"2203","5649.531"
"2204","5576.091"
"2205","5486.159"
"2206","5416.331"
"2207","5399.035"
"2208","5418.465"
"2209","5425.414"
"2210","5400.372"
"2211","5366.884"
"2212","5335.021"
"2213","5265.683"
"2214","5129.291"
"2215","5016.015"
"2216","5054.187"
"2217","5216.469"
"2218","5351.06"
"2219","5372.247"
"2220","5305.028"
"2221","5187.41"
"2222","5067.491"
"2223","4990.451"
"2224","4965.042"
"2225","4983.536"
"2226","5023.008"
"2227","5048.014"
"2228","5046.256"
"2229","5044.01"
"2230","5055.098"
"2231","5040.536"
"2232","4964.379"
"2233","4887.808"
"2234","4904.902"
"2235","4969.25"
"2236","4921.279"
"2237","4755.529"
"2238","4711.227"
"2239","4918.315"
"2240","5109.298"
"2241","5009.988"
"2242","4778.695"
"2243","4717.028"
"2244","4798.384"
"2245","4759.215"
"2246","4540.904"
"2247","4371.124"
"2248","4400.542"
"2249","4528.071"
"2250","4627.294"
"2251","4647.98"
"2252","4571.625"
"2253","4461.813"
"2254","4428.361"
"2255","4481.502"
"2256","4521.314"
"2257","4485.407"
"2258","4398.493"
"2259","4303.602"
"2260","4273.437"
"2261","4361.284"
"2262","4419.057"
"2263","4226.25"
"2264","3893.425"
"2265","3798.556"
"2266","4007.143"
"2267","4117.082"
"2268","3884.123"
"2269","3580.602"
"2270","3494.074"
"2271","3563.251"
"2272","3628.785"
"2273","3635.553"
"2274","3587.697"
"2275","3496.544"
"2276","3380.009"
"2277","3264.745"
"2278","3191.75"
"2279","3182.334"
"2280","3192.946"
"2281","3175.752"
"2282","3129.628"
"2283","3068.481"
"2284","2991.327"
"2285","2888.997"
"2286","2778.212"
"2287","2702.696"
"2288","2678.582"
"2289","2670.589"
"2290","2637.093"
"2291","2533.706"
"2292","2342.853"
"2293","2199.837"
"2294","2266.854"
"2295","2428.854"
"2296","2416.203"
"2297","2206.507"
"2298","2022.63"
"2299","1994.1"
"2300","2080.624"
