,"Scan 01181"
"400","9549.407"
"401","9589.848"
"402","9606.096"
"403","9576.937"
"404","9513.909"
"405","9439.007"
"406","9374.062"
"407","9338.114"
"408","9328.772"
"409","9333.345"
"410","9339.16"
"411","9334.578"
"412","9320.275"
"413","9305.483"
"414","9299.528"
"415","9311.294"
"416","9340.944"
"417","9380.16"
"418","9420.325"
"419","9453.01"
"420","9475.198"
"421","9491.138"
"422","9505.563"
"423","9523.139"
"424","9545.02"
"425","9565.925"
"426","9579.923"
"427","9581.132"
"428","9567.593"
"429","9547.086"
"430","9528.842"
"431","9522.022"
"432","9531.532"
"433","9548.033"
"434","9559.234"
"435","9552.946"
"436","9520.822"
"437","9471.666"
"438","9419.062"
"439","9376.495"
"440","9355.549"
"441","9356.933"
"442","9377.354"
"443","9413.537"
"444","9461.448"
"445","9510.965"
"446","9549.164"
"447","9563.198"
"448","9541.936"
"449","9490.842"
"450","9424.964"
"451","9359.359"
"452","9308.279"
"453","9276.574"
"454","9262.518"
"455","9264.242"
"456","9279.688"
"457","9302.996"
"458","9325.165"
"459","9337.154"
"460","9330.408"
"461","9305.761"
"462","9273.171"
"463","9242.907"
"464","9224.89"
"465","9220.59"
"466","9222.065"
"467","9220.926"
"468","9209.067"
"469","9187.118"
"470","9166.731"
"471","9160.207"
"472","9179.479"
"473","9223.086"
"474","9270.682"
"475","9300.62"
"476","9291.673"
"477","9239.891"
"478","9168"
"479","9100.899"
"480","9063.129"
"481","9063.835"
"482","9086.523"
"483","9112.339"
"484","9122.659"
"485","9109.525"
"486","9083.881"
"487","9058.564"
"488","9046.25"
"489","9051.092"
"490","9061.379"
"491","9063.731"
"492","9044.922"
"493","9000.283"
"494","8941.563"
"495","8882.305"
"496","8835.923"
"497","8809.273"
"498","8796.482"
"499","8790.236"
"500","8783.283"
"501","8770.239"
"502","8749.313"
"503","8719.147"
"504","8678.4"
"505","8627.29"
"506","8569.009"
"507","8507.064"
"508","8444.951"
"509","8386.273"
"510","8334.857"
"511","8294.538"
"512","8269.084"
"513","8258.318"
"514","8255.142"
"515","8251.778"
"516","8240.575"
"517","8218.863"
"518","8192.204"
"519","8166.89"
"520","8149.122"
"521","8141.494"
"522","8141.107"
"523","8144.62"
"524","8148.729"
"525","8151.202"
"526","8151.275"
"527","8148.301"
"528","8141.625"
"529","8130.165"
"530","8112.309"
"531","8086.417"
"532","8051.01"
"533","8008.7"
"534","7966.627"
"535","7932.121"
"536","7912.163"
"537","7906.988"
"538","7910.334"
"539","7915.705"
"540","7916.821"
"541","7910.464"
"542","7895.954"
"543","7872.693"
"544","7840.495"
"545","7804.624"
"546","7774.139"
"547","7758.133"
"548","7764.292"
"549","7786.294"
"550","7809.679"
"551","7819.948"
"552","7804.852"
"553","7769.497"
"554","7727.225"
"555","7691.368"
"556","7673.234"
"557","7671.984"
"558","7682.17"
"559","7698.36"
"560","7715.662"
"561","7731.629"
"562","7744.549"
"563","7752.718"
"564","7755.214"
"565","7753.926"
"566","7751.372"
"567","7750.054"
"568","7750.751"
"569","7749.549"
"570","7741.76"
"571","7722.744"
"572","7692.188"
"573","7658.627"
"574","7631.645"
"575","7620.646"
"576","7626.886"
"577","7639.143"
"578","7645.191"
"579","7633.261"
"580","7603.781"
"581","7571.115"
"582","7550.316"
"583","7555.487"
"584","7585.271"
"585","7625.309"
"586","7660.902"
"587","7678.712"
"588","7679.503"
"589","7672.618"
"590","7667.485"
"591","7671.786"
"592","7681.16"
"593","7686.09"
"594","7677.08"
"595","7647.47"
"596","7603.746"
"597","7556.221"
"598","7515.159"
"599","7488.729"
"600","7478.67"
"601","7485.477"
"602","7509.615"
"603","7547.561"
"604","7587.557"
"605","7616.869"
"606","7623.048"
"607","7604.143"
"608","7572.732"
"609","7542.406"
"610","7526.188"
"611","7526.464"
"612","7535.771"
"613","7546.292"
"614","7550.924"
"615","7549.878"
"616","7547.851"
"617","7549.58"
"618","7558.493"
"619","7569.754"
"620","7575.327"
"621","7567.188"
"622","7540.766"
"623","7504.52"
"624","7469.98"
"625","7448.619"
"626","7445.961"
"627","7453.913"
"628","7462.492"
"629","7461.89"
"630","7448.568"
"631","7427.884"
"632","7405.85"
"633","7388.255"
"634","7377.086"
"635","7370.979"
"636","7368.466"
"637","7368.187"
"638","7369.806"
"639","7373.53"
"640","7379.57"
"641","7387.879"
"642","7397.136"
"643","7405.627"
"644","7411.645"
"645","7414.446"
"646","7415.968"
"647","7418.597"
"648","7424.686"
"649","7434.717"
"650","7446.236"
"651","7456.528"
"652","7462.938"
"653","7463.811"
"654","7458.403"
"655","7446.019"
"656","7426.43"
"657","7403.712"
"658","7384.186"
"659","7374.175"
"660","7378.386"
"661","7394.208"
"662","7416.957"
"663","7441.972"
"664","7464.861"
"665","7481.875"
"666","7489.371"
"667","7483.828"
"668","7466.472"
"669","7444.651"
"670","7426.1"
"671","7418.053"
"672","7421.348"
"673","7432.275"
"674","7447.044"
"675","7461.758"
"676","7471.858"
"677","7472.55"
"678","7459.047"
"679","7430.9"
"680","7400.444"
"681","7382.339"
"682","7390.977"
"683","7427.533"
"684","7473.301"
"685","7507.975"
"686","7512.527"
"687","7487.092"
"688","7446.914"
"689","7407.604"
"690","7383.064"
"691","7376.303"
"692","7385.993"
"693","7410.797"
"694","7447.398"
"695","7486.539"
"696","7517.87"
"697","7531.227"
"698","7524.529"
"699","7507.455"
"700","7490.581"
"701","7483.755"
"702","7486.931"
"703","7492.882"
"704","7494.228"
"705","7485.389"
"706","7470.792"
"707","7458.326"
"708","7455.853"
"709","7466.928"
"710","7484.405"
"711","7499.53"
"712","7503.805"
"713","7496.517"
"714","7486.065"
"715","7481.354"
"716","7490.123"
"717","7509.042"
"718","7528.586"
"719","7539.18"
"720","7534.515"
"721","7521.097"
"722","7508.576"
"723","7506.517"
"724","7518.354"
"725","7536.995"
"726","7554.303"
"727","7562.55"
"728","7560.117"
"729","7550.237"
"730","7536.282"
"731","7521.58"
"732","7509.259"
"733","7502.374"
"734","7503.968"
"735","7514.875"
"736","7530.817"
"737","7546.788"
"738","7557.928"
"739","7562.499"
"740","7561.95"
"741","7557.884"
"742","7552.077"
"743","7547.613"
"744","7548.179"
"745","7557.444"
"746","7576.863"
"747","7601.549"
"748","7625.493"
"749","7642.836"
"750","7652.235"
"751","7657.771"
"752","7663.83"
"753","7673.77"
"754","7681.996"
"755","7678.319"
"756","7652.536"
"757","7601.315"
"758","7543.252"
"759","7501.285"
"760","7497.817"
"761","7536.121"
"762","7594.914"
"763","7651.326"
"764","7684.804"
"765","7695.637"
"766","7695.26"
"767","7695.182"
"768","7703.577"
"769","7717.855"
"770","7733.268"
"771","7745.198"
"772","7753.584"
"773","7764.089"
"774","7782.729"
"775","7814.1"
"776","7850.622"
"777","7878.552"
"778","7884.118"
"779","7860.686"
"780","7822.625"
"781","7788.141"
"782","7775.015"
"783","7789.229"
"784","7823.451"
"785","7869.636"
"786","7919.785"
"787","7966.116"
"788","8000.958"
"789","8016.656"
"790","8009.191"
"791","7983.486"
"792","7945.806"
"793","7902.553"
"794","7862.942"
"795","7838.814"
"796","7842.103"
"797","7880.891"
"798","7941.935"
"799","8004.637"
"800","8048.515"
"801","8063.871"
"802","8061.386"
"803","8054.005"
"804","8053.752"
"805","8060.673"
"806","8066.331"
"807","8062.115"
"808","8042.816"
"809","8016.539"
"810","7994.643"
"811","7988.296"
"812","8000.529"
"813","8023.395"
"814","8048.173"
"815","8067.117"
"816","8080.477"
"817","8092.429"
"818","8107.168"
"819","8126.243"
"820","8144.442"
"821","8155.491"
"822","8153.47"
"823","8139.181"
"824","8119.475"
"825","8101.404"
"826","8090.328"
"827","8083.221"
"828","8074.509"
"829","8058.717"
"830","8036.723"
"831","8019.43"
"832","8018.606"
"833","8044.35"
"834","8090.903"
"835","8143.77"
"836","8188.381"
"837","8214.65"
"838","8224.805"
"839","8223.178"
"840","8214.074"
"841","8201.365"
"842","8188.523"
"843","8178.999"
"844","8175.512"
"845","8177.247"
"846","8182.321"
"847","8188.881"
"848","8196.258"
"849","8205.534"
"850","8217.95"
"851","8234.405"
"852","8253.059"
"853","8270.695"
"854","8284.098"
"855","8290.611"
"856","8288.931"
"857","8277.94"
"858","8256.982"
"859","8232.269"
"860","8215.315"
"861","8217.771"
"862","8245.81"
"863","8284.998"
"864","8316.064"
"865","8320.396"
"866","8298.791"
"867","8274.392"
"868","8271.575"
"869","8308.826"
"870","8370.235"
"871","8427.43"
"872","8452.278"
"873","8436.059"
"874","8402.424"
"875","8378.105"
"876","8386.886"
"877","8426.055"
"878","8478.865"
"879","8528.46"
"880","8562.885"
"881","8581.879"
"882","8586.888"
"883","8579.524"
"884","8563.775"
"885","8545.389"
"886","8530.145"
"887","8522.44"
"888","8522.017"
"889","8527.632"
"890","8538.086"
"891","8553.04"
"892","8573.007"
"893","8598.54"
"894","8629.095"
"895","8659.044"
"896","8681.284"
"897","8688.921"
"898","8682.833"
"899","8674"
"900","8674.063"
"901","8692.288"
"902","8723.058"
"903","8755.029"
"904","8776.94"
"905","8783.798"
"906","8780.995"
"907","8774.899"
"908","8771.383"
"909","8772.286"
"910","8777.461"
"911","8786.738"
"912","8798.802"
"913","8809.956"
"914","8816.209"
"915","8814.406"
"916","8810.294"
"917","8815.005"
"918","8839.724"
"919","8886.495"
"920","8934.262"
"921","8958.371"
"922","8936.461"
"923","8877.419"
"924","8812.724"
"925","8774.358"
"926","8782.816"
"927","8823.888"
"928","8876.822"
"929","8921.564"
"930","8949.925"
"931","8963.688"
"932","8964.938"
"933","8956.177"
"934","8941.32"
"935","8924.601"
"936","8910.114"
"937","8899.014"
"938","8889.646"
"939","8880.249"
"940","8869.994"
"941","8861.804"
"942","8859.542"
"943","8866.921"
"944","8883.758"
"945","8905.775"
"946","8928.499"
"947","8947.709"
"948","8960.361"
"949","8963.729"
"950","8955.229"
"951","8936.507"
"952","8914.011"
"953","8894.455"
"954","8883.039"
"955","8877.673"
"956","8874.08"
"957","8868.132"
"958","8860.509"
"959","8857.69"
"960","8866.5"
"961","8891.043"
"962","8921.645"
"963","8944.284"
"964","8945.289"
"965","8923.496"
"966","8893.308"
"967","8870.109"
"968","8866.229"
"969","8878.091"
"970","8896.961"
"971","8914.271"
"972","8927.593"
"973","8942.231"
"974","8963.991"
"975","8996.068"
"976","9028.082"
"977","9045.243"
"978","9033.159"
"979","8992.076"
"980","8940.524"
"981","8898.199"
"982","8880.947"
"983","8884.987"
"984","8900.292"
"985","8916.963"
"986","8929.679"
"987","8938.686"
"988","8944.562"
"989","8948.081"
"990","8950.967"
"991","8955.226"
"992","8962.81"
"993","8973.83"
"994","8986.26"
"995","8997.959"
"996","9007.871"
"997","9019.923"
"998","9039.467"
"999","9071.586"
"1000","9114.248"
"1001","9157.684"
"1002","9191.737"
"1003","9208.968"
"1004","9213.321"
"1005","9211.75"
"1006","9211.188"
"1007","9214.894"
"1008","9216.869"
"1009","9209.685"
"1010","9187.037"
"1011","9154.331"
"1012","9123.882"
"1013","9108.05"
"1014","9112.573"
"1015","9130.154"
"1016","9151.974"
"1017","9169.863"
"1018","9180.609"
"1019","9183.251"
"1020","9176.946"
"1021","9166.547"
"1022","9165.415"
"1023","9187.624"
"1024","9241.703"
"1025","9306.497"
"1026","9350.936"
"1027","9345.115"
"1028","9291.863"
"1029","9230.053"
"1030","9200.43"
"1031","9230.133"
"1032","9295.937"
"1033","9362.976"
"1034","9398.356"
"1035","9399.787"
"1036","9388.942"
"1037","9388.126"
"1038","9410.577"
"1039","9447.11"
"1040","9485.142"
"1041","9512.728"
"1042","9523.803"
"1043","9515.444"
"1044","9484.864"
"1045","9437.959"
"1046","9394.712"
"1047","9376.405"
"1048","9398.885"
"1049","9448.268"
"1050","9500.575"
"1051","9532.499"
"1052","9538.121"
"1053","9529.756"
"1054","9520.584"
"1055","9520.043"
"1056","9525.426"
"1057","9531.563"
"1058","9533.736"
"1059","9532.597"
"1060","9532.297"
"1061","9537.035"
"1062","9548.574"
"1063","9564.042"
"1064","9580.052"
"1065","9594.455"
"1066","9612.813"
"1067","9643.634"
"1068","9694.869"
"1069","9758.825"
"1070","9810.402"
"1071","9823.576"
"1072","9783.897"
"1073","9715.015"
"1074","9648.405"
"1075","9613.013"
"1076","9608.897"
"1077","9617.915"
"1078","9621.736"
"1079","9612.07"
"1080","9598.188"
"1081","9591.136"
"1082","9599.783"
"1083","9621.363"
"1084","9649.247"
"1085","9676.853"
"1086","9698.771"
"1087","9710.676"
"1088","9708.289"
"1089","9690.788"
"1090","9666.256"
"1091","9644.191"
"1092","9633.234"
"1093","9635.092"
"1094","9648.147"
"1095","9670.664"
"1096","9697.145"
"1097","9717.298"
"1098","9720.513"
"1099","9701.054"
"1100","9670.407"
"1101","9643.872"
"1102","9635.31"
"1103","9642.531"
"1104","9653.33"
"1105","9655.466"
"1106","9645.668"
"1107","9635.039"
"1108","9635.987"
"1109","9656.214"
"1110","9682.464"
"1111","9695.673"
"1112","9678.329"
"1113","9635.213"
"1114","9587.676"
"1115","9557.381"
"1116","9555.781"
"1117","9575.294"
"1118","9606.261"
"1119","9640.021"
"1120","9673.051"
"1121","9703.451"
"1122","9729.313"
"1123","9748.509"
"1124","9758.753"
"1125","9757.757"
"1126","9745.095"
"1127","9724.039"
"1128","9698.309"
"1129","9671.212"
"1130","9643.938"
"1131","9616.97"
"1132","9591.063"
"1133","9571.352"
"1134","9566.579"
"1135","9585.526"
"1136","9628.359"
"1137","9678.456"
"1138","9717.251"
"1139","9730.842"
"1140","9728.832"
"1141","9728.174"
"1142","9744.266"
"1143","9769.351"
"1144","9778.035"
"1145","9744.755"
"1146","9668.457"
"1147","9591.105"
"1148","9559.049"
"1149","9603.678"
"1150","9691.479"
"1151","9771.358"
"1152","9796.675"
"1153","9773.539"
"1154","9742.392"
"1155","9743.727"
"1156","9789.303"
"1157","9849.01"
"1158","9889.42"
"1159","9887.84"
"1160","9858.214"
"1161","9822.295"
"1162","9800.042"
"1163","9795.899"
"1164","9806.394"
"1165","9827.925"
"1166","9854.961"
"1167","9879.833"
"1168","9894.75"
"1169","9894.539"
"1170","9880.463"
"1171","9854.77"
"1172","9821.54"
"1173","9795.551"
"1174","9795.475"
"1175","9838.2"
"1176","9912.476"
"1177","9984.74"
"1178","10021.07"
"1179","10008.96"
"1180","9971.674"
"1181","9935.849"
"1182","9921.981"
"1183","9927.758"
"1184","9945.598"
"1185","9968.188"
"1186","9990.553"
"1187","10008.93"
"1188","10019.72"
"1189","10024.06"
"1190","10028.01"
"1191","10037.89"
"1192","10054.72"
"1193","10068.15"
"1194","10066.31"
"1195","10042.08"
"1196","10011.02"
"1197","9995.365"
"1198","10014.56"
"1199","10056.73"
"1200","10090.57"
"1201","10085.4"
"1202","10041.88"
"1203","9999.116"
"1204","9998.535"
"1205","10057.99"
"1206","10137.5"
"1207","10188.39"
"1208","10173.5"
"1209","10115.6"
"1210","10056.77"
"1211","10035.95"
"1212","10054.71"
"1213","10090.47"
"1214","10120.55"
"1215","10133.56"
"1216","10132.08"
"1217","10119.51"
"1218","10101.5"
"1219","10088.92"
"1220","10093.43"
"1221","10121.71"
"1222","10156.46"
"1223","10173.22"
"1224","10150.88"
"1225","10102.71"
"1226","10062.01"
"1227","10061.31"
"1228","10106.2"
"1229","10173.24"
"1230","10237.61"
"1231","10282.24"
"1232","10305.39"
"1233","10307.12"
"1234","10289.22"
"1235","10259.99"
"1236","10229.29"
"1237","10206.14"
"1238","10193.51"
"1239","10191.55"
"1240","10200.27"
"1241","10216.65"
"1242","10235.25"
"1243","10250.62"
"1244","10260.87"
"1245","10269.23"
"1246","10279.33"
"1247","10292.54"
"1248","10304.46"
"1249","10309.78"
"1250","10305.75"
"1251","10301.91"
"1252","10311.44"
"1253","10345.02"
"1254","10390.43"
"1255","10423.24"
"1256","10420.24"
"1257","10385.1"
"1258","10346"
"1259","10331.67"
"1260","10350.33"
"1261","10378.63"
"1262","10390.51"
"1263","10371.62"
"1264","10338.41"
"1265","10312.32"
"1266","10310.4"
"1267","10328.94"
"1268","10358.21"
"1269","10388.54"
"1270","10410.8"
"1271","10416.13"
"1272","10396.61"
"1273","10359.74"
"1274","10325.7"
"1275","10314.74"
"1276","10333.76"
"1277","10372.04"
"1278","10417.64"
"1279","10458.83"
"1280","10484.34"
"1281","10482.97"
"1282","10449.71"
"1283","10401.74"
"1284","10361.13"
"1285","10346.57"
"1286","10356.13"
"1287","10380.26"
"1288","10409.38"
"1289","10433.75"
"1290","10443.56"
"1291","10429.76"
"1292","10398.96"
"1293","10372.14"
"1294","10370.5"
"1295","10400.03"
"1296","10445.3"
"1297","10489.29"
"1298","10519.51"
"1299","10533.24"
"1300","10529.06"
"1301","10508.87"
"1302","10485.83"
"1303","10475.54"
"1304","10489.75"
"1305","10519.81"
"1306","10550.2"
"1307","10566.48"
"1308","10563.43"
"1309","10540.54"
"1310","10498.33"
"1311","10451.55"
"1312","10425.79"
"1313","10445.89"
"1314","10509.92"
"1315","10586.52"
"1316","10643.04"
"1317","10660.88"
"1318","10643.74"
"1319","10597.31"
"1320","10530.67"
"1321","10460.79"
"1322","10405.71"
"1323","10379.28"
"1324","10381.05"
"1325","10407.59"
"1326","10452.59"
"1327","10495.65"
"1328","10511.95"
"1329","10483.08"
"1330","10438.29"
"1331","10428.2"
"1332","10497.21"
"1333","10618.29"
"1334","10719.48"
"1335","10731.67"
"1336","10650.81"
"1337","10528.99"
"1338","10419.39"
"1339","10349.64"
"1340","10317.49"
"1341","10318.85"
"1342","10343.16"
"1343","10369.52"
"1344","10376.19"
"1345","10356.75"
"1346","10337.52"
"1347","10349"
"1348","10406.33"
"1349","10479.92"
"1350","10532.11"
"1351","10537.12"
"1352","10516.36"
"1353","10502.88"
"1354","10523.08"
"1355","10567.77"
"1356","10615.83"
"1357","10647.67"
"1358","10654.76"
"1359","10633.49"
"1360","10582"
"1361","10515.85"
"1362","10460.62"
"1363","10440.32"
"1364","10455.68"
"1365","10490.39"
"1366","10528.17"
"1367","10560.12"
"1368","10584.2"
"1369","10598.55"
"1370","10598.58"
"1371","10576.61"
"1372","10525.15"
"1373","10454.21"
"1374","10398.74"
"1375","10395.27"
"1376","10451.01"
"1377","10521.73"
"1378","10558.09"
"1379","10536.02"
"1380","10486.03"
"1381","10445.77"
"1382","10439.7"
"1383","10457.45"
"1384","10482.91"
"1385","10502.51"
"1386","10510.96"
"1387","10504.61"
"1388","10482.33"
"1389","10453"
"1390","10427.94"
"1391","10416.3"
"1392","10416.83"
"1393","10425.2"
"1394","10437.1"
"1395","10448.49"
"1396","10455.39"
"1397","10454.32"
"1398","10445.14"
"1399","10429.12"
"1400","10407.48"
"1401","10381.02"
"1402","10350.35"
"1403","10317"
"1404","10291.66"
"1405","10290.05"
"1406","10325.54"
"1407","10383.95"
"1408","10433.84"
"1409","10445.92"
"1410","10423.08"
"1411","10390.99"
"1412","10374.61"
"1413","10380.66"
"1414","10401.48"
"1415","10428.87"
"1416","10451.54"
"1417","10455.54"
"1418","10427.66"
"1419","10372.67"
"1420","10312.38"
"1421","10268.84"
"1422","10252.83"
"1423","10263.57"
"1424","10299.47"
"1425","10352.39"
"1426","10406.91"
"1427","10447.48"
"1428","10467.31"
"1429","10469.96"
"1430","10459.69"
"1431","10444.36"
"1432","10436.3"
"1433","10447.9"
"1434","10480.92"
"1435","10523.17"
"1436","10561.68"
"1437","10591.34"
"1438","10617.83"
"1439","10647.45"
"1440","10677.89"
"1441","10694.68"
"1442","10682.71"
"1443","10642.75"
"1444","10598.6"
"1445","10575.65"
"1446","10584.13"
"1447","10611.88"
"1448","10644.93"
"1449","10672.07"
"1450","10686.17"
"1451","10680.48"
"1452","10652.38"
"1453","10605.41"
"1454","10543.71"
"1455","10477.28"
"1456","10424.74"
"1457","10405.11"
"1458","10420.14"
"1459","10446.39"
"1460","10458.72"
"1461","10446.94"
"1462","10422.25"
"1463","10397.32"
"1464","10377.37"
"1465","10357.29"
"1466","10331.4"
"1467","10301.11"
"1468","10277.27"
"1469","10271"
"1470","10279.79"
"1471","10283.83"
"1472","10262.75"
"1473","10214.53"
"1474","10159.18"
"1475","10117.53"
"1476","10097.46"
"1477","10092.23"
"1478","10094.18"
"1479","10092.15"
"1480","10071.31"
"1481","10017.8"
"1482","9942.781"
"1483","9881.562"
"1484","9868.513"
"1485","9901.044"
"1486","9943.823"
"1487","9962.217"
"1488","9951.636"
"1489","9931.693"
"1490","9921.56"
"1491","9924.626"
"1492","9932.822"
"1493","9938.237"
"1494","9937.909"
"1495","9932.085"
"1496","9921.184"
"1497","9906.794"
"1498","9891.183"
"1499","9876.366"
"1500","9862.191"
"1501","9847.41"
"1502","9830.972"
"1503","9813.312"
"1504","9795.508"
"1505","9780.055"
"1506","9777.934"
"1507","9803.316"
"1508","9863.188"
"1509","9928.265"
"1510","9957.789"
"1511","9925.217"
"1512","9863.954"
"1513","9823.201"
"1514","9835.678"
"1515","9876.634"
"1516","9908.799"
"1517","9907.446"
"1518","9883.771"
"1519","9855.339"
"1520","9834.71"
"1521","9822.654"
"1522","9818.244"
"1523","9817.513"
"1524","9810.694"
"1525","9787.532"
"1526","9747.847"
"1527","9707.2"
"1528","9682.215"
"1529","9677.069"
"1530","9680.182"
"1531","9679.07"
"1532","9664.456"
"1533","9630.341"
"1534","9572.007"
"1535","9503.699"
"1536","9455.228"
"1537","9454.198"
"1538","9496.322"
"1539","9556.521"
"1540","9610.964"
"1541","9649.959"
"1542","9671.02"
"1543","9672.391"
"1544","9656.588"
"1545","9627.81"
"1546","9591.941"
"1547","9562.797"
"1548","9556.567"
"1549","9581.477"
"1550","9617.672"
"1551","9639.109"
"1552","9633.118"
"1553","9621.955"
"1554","9633.376"
"1555","9676.346"
"1556","9723.245"
"1557","9742.641"
"1558","9724.658"
"1559","9690.74"
"1560","9664.237"
"1561","9652.581"
"1562","9645.946"
"1563","9634.108"
"1564","9614.465"
"1565","9590.554"
"1566","9566.106"
"1567","9544.929"
"1568","9530.884"
"1569","9527.183"
"1570","9532.505"
"1571","9543.593"
"1572","9557.353"
"1573","9571.481"
"1574","9583.912"
"1575","9592.625"
"1576","9595.768"
"1577","9591.525"
"1578","9578.941"
"1579","9559.005"
"1580","9533.02"
"1581","9505.396"
"1582","9485.419"
"1583","9482.274"
"1584","9490.354"
"1585","9487.748"
"1586","9454.098"
"1587","9405.115"
"1588","9384.28"
"1589","9429.504"
"1590","9521.818"
"1591","9612.199"
"1592","9657.305"
"1593","9648.045"
"1594","9587.409"
"1595","9488.118"
"1596","9398.406"
"1597","9374.551"
"1598","9438.18"
"1599","9528.802"
"1600","9574.691"
"1601","9549.531"
"1602","9497.906"
"1603","9469.137"
"1604","9476.017"
"1605","9493.371"
"1606","9496.053"
"1607","9482.005"
"1608","9465.032"
"1609","9458.605"
"1610","9471.293"
"1611","9509.496"
"1612","9572.589"
"1613","9628.956"
"1614","9638.424"
"1615","9584.322"
"1616","9513.472"
"1617","9482.904"
"1618","9515.827"
"1619","9578.398"
"1620","9631.811"
"1621","9651.815"
"1622","9629.75"
"1623","9560.178"
"1624","9468.212"
"1625","9399.66"
"1626","9393.711"
"1627","9441.577"
"1628","9514.521"
"1629","9585.507"
"1630","9634.546"
"1631","9643.417"
"1632","9608.179"
"1633","9557.633"
"1634","9524.828"
"1635","9526.696"
"1636","9557.883"
"1637","9610.807"
"1638","9667.72"
"1639","9702.311"
"1640","9691.619"
"1641","9643.658"
"1642","9582.058"
"1643","9528.065"
"1644","9491.205"
"1645","9477.622"
"1646","9487.926"
"1647","9508.479"
"1648","9523.557"
"1649","9527.283"
"1650","9528.377"
"1651","9536.283"
"1652","9551.83"
"1653","9568.354"
"1654","9579.335"
"1655","9581.627"
"1656","9573.77"
"1657","9556.938"
"1658","9543.813"
"1659","9550.214"
"1660","9578.197"
"1661","9597.313"
"1662","9573.21"
"1663","9504.622"
"1664","9433.97"
"1665","9403.675"
"1666","9412.677"
"1667","9427.424"
"1668","9418.821"
"1669","9393.098"
"1670","9370.97"
"1671","9367.793"
"1672","9380.457"
"1673","9401.874"
"1674","9420.09"
"1675","9414.473"
"1676","9365.284"
"1677","9293.253"
"1678","9258.723"
"1679","9312.258"
"1680","9400.403"
"1681","9414.507"
"1682","9283.349"
"1683","9100.619"
"1684","9004.399"
"1685","9057.438"
"1686","9158.848"
"1687","9189.303"
"1688","9123.141"
"1689","9041.605"
"1690","9023.115"
"1691","9052.744"
"1692","9059.217"
"1693","8992.01"
"1694","8905.183"
"1695","8884.266"
"1696","8962.888"
"1697","9053.572"
"1698","9054.282"
"1699","8952.753"
"1700","8843.156"
"1701","8816.884"
"1702","8867.395"
"1703","8928.49"
"1704","8946.376"
"1705","8930.354"
"1706","8908.331"
"1707","8897.961"
"1708","8894.154"
"1709","8889.096"
"1710","8884.109"
"1711","8890.543"
"1712","8917.9"
"1713","8953.54"
"1714","8972.719"
"1715","8958.75"
"1716","8928.262"
"1717","8906.195"
"1718","8901.651"
"1719","8894.211"
"1720","8861.817"
"1721","8813.911"
"1722","8788.481"
"1723","8816.448"
"1724","8870.831"
"1725","8899.581"
"1726","8872.765"
"1727","8828.443"
"1728","8816.87"
"1729","8850.602"
"1730","8889.32"
"1731","8892.189"
"1732","8860.934"
"1733","8825.665"
"1734","8811.897"
"1735","8820.442"
"1736","8844.706"
"1737","8872.951"
"1738","8882.923"
"1739","8852.615"
"1740","8793.514"
"1741","8748.854"
"1742","8755.073"
"1743","8791.207"
"1744","8811.571"
"1745","8790.27"
"1746","8758.709"
"1747","8757.633"
"1748","8792.398"
"1749","8823.632"
"1750","8814.111"
"1751","8776.953"
"1752","8753.996"
"1753","8770.58"
"1754","8788.005"
"1755","8753.041"
"1756","8659.721"
"1757","8577.01"
"1758","8574.144"
"1759","8635.173"
"1760","8684.308"
"1761","8664.574"
"1762","8613.273"
"1763","8594.951"
"1764","8633.237"
"1765","8675.088"
"1766","8662.91"
"1767","8603.508"
"1768","8555.771"
"1769","8565.821"
"1770","8602.618"
"1771","8609.485"
"1772","8564.976"
"1773","8520.952"
"1774","8535.135"
"1775","8603.34"
"1776","8667.276"
"1777","8677.788"
"1778","8649.28"
"1779","8618.771"
"1780","8610.526"
"1781","8621.105"
"1782","8643.313"
"1783","8667.341"
"1784","8681.046"
"1785","8674.168"
"1786","8647.727"
"1787","8606.796"
"1788","8564.727"
"1789","8552.206"
"1790","8599.033"
"1791","8680.387"
"1792","8725.131"
"1793","8679.745"
"1794","8592.124"
"1795","8543.229"
"1796","8567.484"
"1797","8609.994"
"1798","8610.137"
"1799","8573.326"
"1800","8555.207"
"1801","8595.152"
"1802","8652.332"
"1803","8663.659"
"1804","8611.955"
"1805","8555.455"
"1806","8553.607"
"1807","8597.719"
"1808","8635.433"
"1809","8628.55"
"1810","8593.663"
"1811","8559.726"
"1812","8547.086"
"1813","8564.651"
"1814","8616.285"
"1815","8669.643"
"1816","8674.094"
"1817","8607.502"
"1818","8526.87"
"1819","8500.126"
"1820","8530.567"
"1821","8556.137"
"1822","8525.796"
"1823","8472.028"
"1824","8457.84"
"1825","8506.32"
"1826","8561.682"
"1827","8563.431"
"1828","8514.874"
"1829","8465.6"
"1830","8455.07"
"1831","8478.146"
"1832","8518.543"
"1833","8555.502"
"1834","8562.262"
"1835","8517.167"
"1836","8443.742"
"1837","8387.359"
"1838","8375.377"
"1839","8389.797"
"1840","8406.395"
"1841","8414.875"
"1842","8417.108"
"1843","8415.914"
"1844","8416.648"
"1845","8425.229"
"1846","8436.225"
"1847","8427"
"1848","8379.104"
"1849","8324.893"
"1850","8323.589"
"1851","8401.785"
"1852","8499.298"
"1853","8544.302"
"1854","8514.592"
"1855","8432.096"
"1856","8325.726"
"1857","8249.285"
"1858","8262.618"
"1859","8360.769"
"1860","8445.214"
"1861","8425.875"
"1862","8342.318"
"1863","8296.948"
"1864","8341.483"
"1865","8408.479"
"1866","8418.205"
"1867","8362.441"
"1868","8287.811"
"1869","8234.348"
"1870","8211.632"
"1871","8221.804"
"1872","8257.965"
"1873","8302.675"
"1874","8339.862"
"1875","8365.555"
"1876","8380.309"
"1877","8388.328"
"1878","8400.104"
"1879","8424.853"
"1880","8453.277"
"1881","8465.758"
"1882","8453.01"
"1883","8432.579"
"1884","8424.517"
"1885","8420.879"
"1886","8391.317"
"1887","8320.303"
"1888","8250.333"
"1889","8235.759"
"1890","8279.136"
"1891","8325.572"
"1892","8328.141"
"1893","8299.563"
"1894","8272.358"
"1895","8267.25"
"1896","8287.183"
"1897","8331.472"
"1898","8382.917"
"1899","8416.747"
"1900","8414.128"
"1901","8368.242"
"1902","8277.33"
"1903","8178.36"
"1904","8131.697"
"1905","8166.619"
"1906","8230.216"
"1907","8260.145"
"1908","8253.202"
"1909","8251.654"
"1910","8285.552"
"1911","8339.827"
"1912","8390.188"
"1913","8417.872"
"1914","8409.375"
"1915","8359.519"
"1916","8297.368"
"1917","8260.197"
"1918","8259.371"
"1919","8276.631"
"1920","8294.639"
"1921","8309.3"
"1922","8320.516"
"1923","8318.676"
"1924","8281.422"
"1925","8195.505"
"1926","8108.914"
"1927","8091.824"
"1928","8153.689"
"1929","8210.49"
"1930","8185.541"
"1931","8111.802"
"1932","8069.08"
"1933","8099.115"
"1934","8177.681"
"1935","8272.047"
"1936","8334.436"
"1937","8310.225"
"1938","8195.106"
"1939","8079.397"
"1940","8050.857"
"1941","8081.741"
"1942","8085.109"
"1943","8028.064"
"1944","7986.814"
"1945","8039.16"
"1946","8155.619"
"1947","8248.852"
"1948","8269.258"
"1949","8246.883"
"1950","8217.919"
"1951","8182.279"
"1952","8119.936"
"1953","8033.105"
"1954","7970.929"
"1955","7981.507"
"1956","8045.771"
"1957","8107.731"
"1958","8136.09"
"1959","8151.273"
"1960","8176.435"
"1961","8201.103"
"1962","8196.932"
"1963","8156.146"
"1964","8111.881"
"1965","8097.921"
"1966","8111.961"
"1967","8133.448"
"1968","8146.371"
"1969","8143.4"
"1970","8118.765"
"1971","8071.739"
"1972","8004.227"
"1973","7938.545"
"1974","7931.135"
"1975","8024.318"
"1976","8140.953"
"1977","8155.603"
"1978","8041.662"
"1979","7920.199"
"1980","7900.778"
"1981","7952.76"
"1982","7995.483"
"1983","7988.386"
"1984","7943.012"
"1985","7878.939"
"1986","7837.942"
"1987","7866.551"
"1988","7950.992"
"1989","8011.167"
"1990","7987.298"
"1991","7915.693"
"1992","7855.102"
"1993","7828.964"
"1994","7828.531"
"1995","7842.955"
"1996","7858.524"
"1997","7862.537"
"1998","7865.016"
"1999","7892.697"
"2000","7951.572"
"2001","7994.909"
"2002","7972.944"
"2003","7888.423"
"2004","7774.552"
"2005","7668.345"
"2006","7613.22"
"2007","7643.263"
"2008","7718.827"
"2009","7768.627"
"2010","7767.422"
"2011","7756.814"
"2012","7770.751"
"2013","7776.269"
"2014","7721.406"
"2015","7623.16"
"2016","7572.554"
"2017","7626.697"
"2018","7706.022"
"2019","7706.796"
"2020","7632.415"
"2021","7569.686"
"2022","7574.313"
"2023","7618.397"
"2024","7659.813"
"2025","7644.53"
"2026","7512.98"
"2027","7294.628"
"2028","7171.5"
"2029","7294.676"
"2030","7537.838"
"2031","7676.794"
"2032","7643.815"
"2033","7553.864"
"2034","7505.806"
"2035","7497.032"
"2036","7501.466"
"2037","7502.066"
"2038","7488.844"
"2039","7461.66"
"2040","7443.458"
"2041","7457.15"
"2042","7496.219"
"2043","7539.325"
"2044","7565.233"
"2045","7553.084"
"2046","7492.008"
"2047","7420.367"
"2048","7389.374"
"2049","7399.694"
"2050","7404.042"
"2051","7373.727"
"2052","7339.105"
"2053","7336.863"
"2054","7360.218"
"2055","7377.319"
"2056","7371.49"
"2057","7352.248"
"2058","7328.708"
"2059","7294.102"
"2060","7237.527"
"2061","7176.159"
"2062","7155.196"
"2063","7197.663"
"2064","7257.568"
"2065","7281.035"
"2066","7263.409"
"2067","7228.356"
"2068","7195.315"
"2069","7176.236"
"2070","7177.643"
"2071","7182.135"
"2072","7166.06"
"2073","7130.952"
"2074","7101.226"
"2075","7097.052"
"2076","7125.345"
"2077","7184.174"
"2078","7216.012"
"2079","7138.311"
"2080","6974.94"
"2081","6894.108"
"2082","7009.089"
"2083","7174.625"
"2084","7196.83"
"2085","7091.646"
"2086","7024.723"
"2087","7070.875"
"2088","7122.646"
"2089","7076.569"
"2090","6974.282"
"2091","6906.87"
"2092","6906.274"
"2093","6946.366"
"2094","7003.44"
"2095","7066.871"
"2096","7124.439"
"2097","7134.318"
"2098","7042.353"
"2099","6873.674"
"2100","6754.519"
"2101","6768.684"
"2102","6827.761"
"2103","6817.674"
"2104","6757.292"
"2105","6746.068"
"2106","6810.841"
"2107","6861.879"
"2108","6828.03"
"2109","6765.152"
"2110","6757.726"
"2111","6803.091"
"2112","6834.68"
"2113","6812.095"
"2114","6746.684"
"2115","6660.396"
"2116","6600.391"
"2117","6617.352"
"2118","6681.477"
"2119","6695.925"
"2120","6619.567"
"2121","6532.524"
"2122","6512.261"
"2123","6531.88"
"2124","6530.236"
"2125","6505.141"
"2126","6507.627"
"2127","6557.961"
"2128","6603.307"
"2129","6593.178"
"2130","6552.455"
"2131","6531.511"
"2132","6523.585"
"2133","6468.952"
"2134","6359.494"
"2135","6308.331"
"2136","6409.999"
"2137","6544.658"
"2138","6522.327"
"2139","6351.612"
"2140","6221.535"
"2141","6236.178"
"2142","6300.289"
"2143","6312.669"
"2144","6287.927"
"2145","6278.999"
"2146","6297.694"
"2147","6320.998"
"2148","6336.215"
"2149","6353.354"
"2150","6380.304"
"2151","6400.922"
"2152","6392.906"
"2153","6354.474"
"2154","6299.326"
"2155","6245.288"
"2156","6216.557"
"2157","6224.656"
"2158","6224.967"
"2159","6165.05"
"2160","6073.148"
"2161","6027.639"
"2162","6055.178"
"2163","6107.513"
"2164","6141.758"
"2165","6152.662"
"2166","6141.956"
"2167","6104.276"
"2168","6031.354"
"2169","5935.102"
"2170","5850.18"
"2171","5799.537"
"2172","5773.058"
"2173","5760.103"
"2174","5778.748"
"2175","5854.381"
"2176","5947.87"
"2177","5965.613"
"2178","5876.762"
"2179","5770.079"
"2180","5727.251"
"2181","5742.715"
"2182","5785.932"
"2183","5810.063"
"2184","5760.003"
"2185","5652.112"
"2186","5595.999"
"2187","5654.98"
"2188","5741.704"
"2189","5756.923"
"2190","5703.232"
"2191","5624.767"
"2192","5558.003"
"2193","5532.336"
"2194","5553.014"
"2195","5581.118"
"2196","5585.608"
"2197","5587.709"
"2198","5615.634"
"2199","5634.498"
"2200","5575.933"
"2201","5441.178"
"2202","5312.853"
"2203","5257.844"
"2204","5293.306"
"2205","5414.641"
"2206","5539.775"
"2207","5568.617"
"2208","5509.755"
"2209","5447.471"
"2210","5421.496"
"2211","5406.191"
"2212","5371.885"
"2213","5291.912"
"2214","5154.335"
"2215","5039.162"
"2216","5054.462"
"2217","5168.614"
"2218","5238.63"
"2219","5201.335"
"2220","5125.339"
"2221","5067.691"
"2222","5009.355"
"2223","4925.385"
"2224","4858.015"
"2225","4874.175"
"2226","4966.897"
"2227","5066.693"
"2228","5120.198"
"2229","5103.891"
"2230","5017.889"
"2231","4931.062"
"2232","4915.65"
"2233","4967.347"
"2234","5047.337"
"2235","5084.164"
"2236","4981.474"
"2237","4759.02"
"2238","4618.057"
"2239","4685.352"
"2240","4812.388"
"2241","4828.787"
"2242","4755.912"
"2243","4684.936"
"2244","4651.496"
"2245","4650.086"
"2246","4664.541"
"2247","4665.53"
"2248","4637.213"
"2249","4600.994"
"2250","4575.187"
"2251","4531.997"
"2252","4436.444"
"2253","4334.134"
"2254","4316.339"
"2255","4385.423"
"2256","4445.359"
"2257","4436.988"
"2258","4385.702"
"2259","4310.841"
"2260","4169.894"
"2261","3928.227"
"2262","3722.614"
"2263","3752.199"
"2264","3945.622"
"2265","4012.014"
"2266","3864.631"
"2267","3724.309"
"2268","3738.83"
"2269","3797.613"
"2270","3771.889"
"2271","3654.243"
"2272","3478.688"
"2273","3315.509"
"2274","3251.167"
"2275","3269.611"
"2276","3254.187"
"2277","3166.617"
"2278","3110.424"
"2279","3149.8"
"2280","3185.378"
"2281","3112.135"
"2282","2971.361"
"2283","2851.168"
"2284","2787.681"
"2285","2783.489"
"2286","2805.159"
"2287","2782.521"
"2288","2696.777"
"2289","2623.667"
"2290","2606.482"
"2291","2557.331"
"2292","2395.733"
"2293","2225.168"
"2294","2192.576"
"2295","2229.256"
"2296","2147.033"
"2297","1965.8"
"2298","1910.309"
"2299","2031.698"
"2300","2083.593"
