,"Scan 01180"
"400","10773.53"
"401","10779.51"
"402","10777.54"
"403","10759.46"
"404","10730.11"
"405","10698.47"
"406","10673.46"
"407","10662.78"
"408","10664.72"
"409","10673.09"
"410","10681.7"
"411","10684.8"
"412","10681.98"
"413","10676.55"
"414","10671.86"
"415","10671.11"
"416","10674.53"
"417","10679.46"
"418","10683.17"
"419","10683"
"420","10679.41"
"421","10677.1"
"422","10681.04"
"423","10696.09"
"424","10722.11"
"425","10749.77"
"426","10768.8"
"427","10769.05"
"428","10746.14"
"429","10710.11"
"430","10673.14"
"431","10647.35"
"432","10641.16"
"433","10650.87"
"434","10670.22"
"435","10692.99"
"436","10713.59"
"437","10729.04"
"438","10737.11"
"439","10735.59"
"440","10723.12"
"441","10703.43"
"442","10682.09"
"443","10664.63"
"444","10655.47"
"445","10650.46"
"446","10641.5"
"447","10620.54"
"448","10580.68"
"449","10526.55"
"450","10469.4"
"451","10420.48"
"452","10390.32"
"453","10380.6"
"454","10386.84"
"455","10404.46"
"456","10428.78"
"457","10453.12"
"458","10469.13"
"459","10468.45"
"460","10443.39"
"461","10399.35"
"462","10354.5"
"463","10327.4"
"464","10335.81"
"465","10377.99"
"466","10430.37"
"467","10468.4"
"468","10468.21"
"469","10426.26"
"470","10364.62"
"471","10306.91"
"472","10276.25"
"473","10279.39"
"474","10300.12"
"475","10320.56"
"476","10323.16"
"477","10302.85"
"478","10273.83"
"479","10251.87"
"480","10252.48"
"481","10279.31"
"482","10316.18"
"483","10345.1"
"484","10348.33"
"485","10319.55"
"486","10272.7"
"487","10223.72"
"488","10188.4"
"489","10173.35"
"490","10168.2"
"491","10160.77"
"492","10139"
"493","10098.68"
"494","10050.55"
"495","10007.02"
"496","9980.331"
"497","9973.383"
"498","9970.851"
"499","9955.391"
"500","9909.864"
"501","9830.473"
"502","9739.303"
"503","9661.314"
"504","9621.177"
"505","9626.942"
"506","9654.964"
"507","9678.145"
"508","9669.691"
"509","9618.148"
"510","9540.343"
"511","9456.064"
"512","9384.905"
"513","9338.253"
"514","9313.129"
"515","9305.112"
"516","9309.797"
"517","9322.211"
"518","9336.438"
"519","9346.493"
"520","9346.501"
"521","9334.597"
"522","9315.022"
"523","9292.516"
"524","9271.726"
"525","9254.442"
"526","9238.513"
"527","9221.498"
"528","9201.054"
"529","9177.587"
"530","9154.927"
"531","9137.104"
"532","9127.955"
"533","9126.398"
"534","9125.956"
"535","9119.894"
"536","9101.854"
"537","9072.769"
"538","9040.589"
"539","9013.499"
"540","8999.193"
"541","8997.521"
"542","9001.858"
"543","9005.421"
"544","9001.938"
"545","8991.48"
"546","8978.561"
"547","8967.756"
"548","8963.026"
"549","8962.125"
"550","8959.211"
"551","8948.425"
"552","8925.002"
"553","8892.741"
"554","8859.494"
"555","8833.102"
"556","8819.756"
"557","8815.666"
"558","8813.27"
"559","8805.029"
"560","8786.184"
"561","8765.038"
"562","8753.74"
"563","8764.379"
"564","8802.837"
"565","8852.624"
"566","8892.269"
"567","8900.413"
"568","8865.635"
"569","8803.482"
"570","8733.995"
"571","8677.071"
"572","8645.507"
"573","8637.613"
"574","8649.944"
"575","8679.003"
"576","8717.587"
"577","8752.798"
"578","8771.311"
"579","8760.369"
"580","8722.451"
"581","8677.432"
"582","8646.049"
"583","8647.721"
"584","8680.47"
"585","8724.339"
"586","8758.889"
"587","8765.545"
"588","8744.951"
"589","8709.447"
"590","8671.483"
"591","8642.3"
"592","8624.882"
"593","8618.671"
"594","8623.097"
"595","8636.668"
"596","8653.552"
"597","8666.666"
"598","8668.962"
"599","8656.545"
"600","8635.266"
"601","8612.84"
"602","8596.922"
"603","8590.891"
"604","8589.341"
"605","8585.795"
"606","8573.929"
"607","8553.014"
"608","8530.059"
"609","8512.617"
"610","8507.895"
"611","8516.526"
"612","8533.079"
"613","8551.902"
"614","8567.724"
"615","8579.075"
"616","8586.832"
"617","8591.896"
"618","8595.037"
"619","8596.19"
"620","8594.973"
"621","8591"
"622","8583.57"
"623","8570.776"
"624","8550.429"
"625","8520.363"
"626","8481.428"
"627","8441.405"
"628","8409.026"
"629","8392.87"
"630","8395.267"
"631","8409.723"
"632","8429.092"
"633","8446.408"
"634","8457.712"
"635","8461.678"
"636","8457.075"
"637","8443.227"
"638","8424.46"
"639","8407.777"
"640","8400.183"
"641","8406.873"
"642","8424.136"
"643","8445.51"
"644","8464.558"
"645","8477.451"
"646","8487.581"
"647","8499.563"
"648","8517.914"
"649","8541.696"
"650","8561.351"
"651","8566.579"
"652","8547.735"
"653","8507.504"
"654","8459.933"
"655","8419.448"
"656","8398.762"
"657","8395.571"
"658","8399.682"
"659","8400.854"
"660","8392.017"
"661","8380.39"
"662","8377.236"
"663","8393.756"
"664","8432.447"
"665","8475.108"
"666","8500.582"
"667","8488.29"
"668","8438.107"
"669","8376.358"
"670","8331.051"
"671","8327.942"
"672","8363.806"
"673","8414.829"
"674","8456.826"
"675","8469.464"
"676","8455.412"
"677","8425.934"
"678","8392.271"
"679","8363.536"
"680","8342.586"
"681","8331.12"
"682","8330.807"
"683","8341.331"
"684","8359.409"
"685","8381.519"
"686","8404.218"
"687","8425.178"
"688","8442.955"
"689","8456.13"
"690","8463.771"
"691","8468.108"
"692","8472.621"
"693","8480.787"
"694","8493.493"
"695","8503.895"
"696","8503.721"
"697","8484.9"
"698","8448.578"
"699","8409.306"
"700","8382.659"
"701","8382.961"
"702","8407.642"
"703","8441.854"
"704","8470.502"
"705","8481.542"
"706","8479.857"
"707","8476.195"
"708","8481.271"
"709","8500.297"
"710","8524.836"
"711","8544.386"
"712","8548.706"
"713","8535.152"
"714","8509.969"
"715","8479.904"
"716","8451.472"
"717","8429.06"
"718","8415.871"
"719","8415.081"
"720","8428.271"
"721","8450.704"
"722","8476.102"
"723","8498.223"
"724","8513.318"
"725","8521.919"
"726","8524.98"
"727","8523.39"
"728","8517.095"
"729","8505.288"
"730","8487.144"
"731","8462.853"
"732","8438.403"
"733","8421.818"
"734","8421.089"
"735","8439.403"
"736","8468.82"
"737","8499.815"
"738","8523.093"
"739","8534.068"
"740","8533.001"
"741","8520.364"
"742","8497.514"
"743","8472.286"
"744","8455.428"
"745","8457.663"
"746","8483.944"
"747","8522.664"
"748","8559.311"
"749","8579.722"
"750","8580.834"
"751","8572.89"
"752","8566.903"
"753","8572.573"
"754","8588.25"
"755","8606.476"
"756","8619.757"
"757","8623.478"
"758","8622.192"
"759","8622.279"
"760","8629.975"
"761","8646.567"
"762","8666.983"
"763","8685.743"
"764","8697.932"
"765","8703.768"
"766","8706.202"
"767","8708.211"
"768","8711.24"
"769","8711.821"
"770","8705.497"
"771","8688.058"
"772","8664.07"
"773","8649.135"
"774","8659.532"
"775","8708.381"
"776","8781.869"
"777","8852.542"
"778","8892.879"
"779","8887.257"
"780","8855.074"
"781","8822.125"
"782","8813.524"
"783","8835.159"
"784","8871.237"
"785","8904.811"
"786","8920.918"
"787","8918.793"
"788","8903.91"
"789","8881.752"
"790","8857.699"
"791","8836.877"
"792","8824.367"
"793","8824.989"
"794","8838.35"
"795","8859.19"
"796","8882.078"
"797","8902.225"
"798","8918.432"
"799","8930.744"
"800","8939.201"
"801","8943.633"
"802","8943.458"
"803","8938.053"
"804","8926.996"
"805","8912.558"
"806","8898.905"
"807","8890.254"
"808","8890.008"
"809","8898.441"
"810","8915.063"
"811","8939.276"
"812","8966.262"
"813","8985.475"
"814","8985.983"
"815","8959.385"
"816","8918.155"
"817","8885.017"
"818","8882.715"
"819","8920.734"
"820","8974.686"
"821","9014.849"
"822","9013.155"
"823","8972.554"
"824","8923.898"
"825","8899.022"
"826","8922.007"
"827","8978.982"
"828","9044.461"
"829","9093.168"
"830","9112.021"
"831","9107.172"
"832","9086.456"
"833","9057.997"
"834","9032.703"
"835","9023.007"
"836","9041.336"
"837","9091.331"
"838","9152.433"
"839","9199.968"
"840","9210.482"
"841","9184.835"
"842","9146.316"
"843","9119.046"
"844","9120.833"
"845","9139.081"
"846","9152.066"
"847","9138.417"
"848","9096.075"
"849","9051.68"
"850","9034.201"
"851","9068.009"
"852","9139.093"
"853","9214.358"
"854","9260.625"
"855","9258.88"
"856","9223.657"
"857","9174.345"
"858","9129.575"
"859","9096.706"
"860","9074.38"
"861","9061.011"
"862","9055.409"
"863","9057.856"
"864","9068.979"
"865","9089.348"
"866","9117.852"
"867","9151.431"
"868","9186.936"
"869","9221.109"
"870","9250.155"
"871","9270.085"
"872","9276.98"
"873","9272.487"
"874","9267.528"
"875","9273.911"
"876","9301.539"
"877","9343.228"
"878","9382.727"
"879","9403.744"
"880","9398.581"
"881","9380.048"
"882","9363.955"
"883","9365.118"
"884","9384.499"
"885","9412.838"
"886","9440.628"
"887","9460.549"
"888","9472.593"
"889","9478.291"
"890","9479.285"
"891","9479.649"
"892","9485.89"
"893","9504.614"
"894","9539.139"
"895","9577.536"
"896","9603.46"
"897","9600.979"
"898","9570.475"
"899","9533.466"
"900","9512.876"
"901","9527.111"
"902","9566.406"
"903","9610.143"
"904","9637.858"
"905","9641.832"
"906","9635.434"
"907","9633.997"
"908","9650.518"
"909","9678.654"
"910","9702.581"
"911","9706.474"
"912","9686.437"
"913","9663.187"
"914","9660.485"
"915","9699.119"
"916","9767.942"
"917","9836.511"
"918","9874.13"
"919","9862.657"
"920","9815.66"
"921","9751.627"
"922","9688.502"
"923","9636.581"
"924","9600.649"
"925","9585.367"
"926","9593.401"
"927","9621.401"
"928","9664.874"
"929","9719.132"
"930","9776.019"
"931","9824.467"
"932","9853.312"
"933","9856.009"
"934","9842.275"
"935","9825.419"
"936","9818.284"
"937","9823.838"
"938","9835.66"
"939","9846.95"
"940","9851.504"
"941","9845.528"
"942","9825.84"
"943","9789.679"
"944","9745.318"
"945","9712.638"
"946","9712.068"
"947","9755.882"
"948","9820.011"
"949","9870.263"
"950","9873.477"
"951","9826.844"
"952","9762.101"
"953","9712.864"
"954","9705.137"
"955","9728.272"
"956","9760.619"
"957","9780.948"
"958","9782.403"
"959","9775.412"
"960","9771.425"
"961","9778.863"
"962","9790.731"
"963","9795.181"
"964","9780.691"
"965","9747.797"
"966","9712.028"
"967","9689.851"
"968","9694.259"
"969","9720.102"
"970","9756.359"
"971","9792.078"
"972","9818.981"
"973","9832.17"
"974","9826.964"
"975","9801.028"
"976","9764.328"
"977","9730.815"
"978","9714.116"
"979","9715.891"
"980","9722.841"
"981","9720.723"
"982","9699.555"
"983","9671.124"
"984","9654.144"
"985","9666.843"
"986","9710.819"
"987","9767.461"
"988","9816.932"
"989","9843.383"
"990","9850.468"
"991","9847.792"
"992","9844.785"
"993","9845.478"
"994","9847.626"
"995","9848.641"
"996","9847.061"
"997","9846.574"
"998","9852.343"
"999","9869.251"
"1000","9894.725"
"1001","9918.085"
"1002","9928.258"
"1003","9918.005"
"1004","9896.274"
"1005","9876.269"
"1006","9871.168"
"1007","9887.377"
"1008","9914.247"
"1009","9938.479"
"1010","9947.942"
"1011","9942.54"
"1012","9929.284"
"1013","9915.27"
"1014","9905.833"
"1015","9902.864"
"1016","9907.846"
"1017","9921.842"
"1018","9942.733"
"1019","9966.954"
"1020","9990.957"
"1021","10012.97"
"1022","10033.89"
"1023","10054.83"
"1024","10075.97"
"1025","10092.72"
"1026","10098.87"
"1027","10088.53"
"1028","10065.33"
"1029","10043.35"
"1030","10037.22"
"1031","10056.71"
"1032","10093.64"
"1033","10135.65"
"1034","10170.79"
"1035","10193.02"
"1036","10200.98"
"1037","10193.43"
"1038","10173.06"
"1039","10152.29"
"1040","10145.04"
"1041","10163.17"
"1042","10200.18"
"1043","10239.76"
"1044","10265.64"
"1045","10271.24"
"1046","10265.69"
"1047","10259.54"
"1048","10261.55"
"1049","10270.45"
"1050","10281.59"
"1051","10290.41"
"1052","10295.11"
"1053","10296.78"
"1054","10296.65"
"1055","10295.75"
"1056","10294.52"
"1057","10293.31"
"1058","10292.38"
"1059","10291.32"
"1060","10289.27"
"1061","10285.36"
"1062","10280.68"
"1063","10279.99"
"1064","10288.44"
"1065","10309.47"
"1066","10335.92"
"1067","10356.53"
"1068","10360.47"
"1069","10348.88"
"1070","10336.23"
"1071","10337.66"
"1072","10362.18"
"1073","10398.49"
"1074","10431.12"
"1075","10445.85"
"1076","10442.61"
"1077","10430.21"
"1078","10417.6"
"1079","10409.66"
"1080","10404.24"
"1081","10398.46"
"1082","10390.15"
"1083","10380.84"
"1084","10373.28"
"1085","10370.18"
"1086","10372.97"
"1087","10381.91"
"1088","10397.21"
"1089","10416.55"
"1090","10431.14"
"1091","10431.13"
"1092","10409.03"
"1093","10375.87"
"1094","10351.63"
"1095","10355.86"
"1096","10390.59"
"1097","10435.46"
"1098","10468.68"
"1099","10474.37"
"1100","10457.65"
"1101","10428.28"
"1102","10395.71"
"1103","10365.9"
"1104","10342.6"
"1105","10329.49"
"1106","10326.28"
"1107","10326.3"
"1108","10322.32"
"1109","10308.72"
"1110","10287.18"
"1111","10261.4"
"1112","10235.32"
"1113","10216.35"
"1114","10214.46"
"1115","10239.6"
"1116","10290.69"
"1117","10346.09"
"1118","10381.94"
"1119","10380.58"
"1120","10356.1"
"1121","10332.67"
"1122","10332.95"
"1123","10354.95"
"1124","10376.64"
"1125","10375.5"
"1126","10345.33"
"1127","10312.45"
"1128","10307"
"1129","10350.85"
"1130","10421.84"
"1131","10483.26"
"1132","10500.41"
"1133","10471.96"
"1134","10423.92"
"1135","10383.06"
"1136","10365.67"
"1137","10367.64"
"1138","10382.49"
"1139","10403.82"
"1140","10425.71"
"1141","10442.36"
"1142","10448.3"
"1143","10442.83"
"1144","10428.86"
"1145","10409.42"
"1146","10386.89"
"1147","10362.53"
"1148","10337.52"
"1149","10314.35"
"1150","10301.22"
"1151","10307.85"
"1152","10342.38"
"1153","10393.7"
"1154","10438.21"
"1155","10452.43"
"1156","10431.27"
"1157","10396.43"
"1158","10371.75"
"1159","10374.76"
"1160","10401.53"
"1161","10443.57"
"1162","10492.05"
"1163","10535.61"
"1164","10561.53"
"1165","10557.67"
"1166","10528.65"
"1167","10497.83"
"1168","10489.54"
"1169","10514.57"
"1170","10550.28"
"1171","10568.94"
"1172","10549.3"
"1173","10507.93"
"1174","10475.12"
"1175","10479.39"
"1176","10521.14"
"1177","10578.45"
"1178","10628.87"
"1179","10657.98"
"1180","10664.74"
"1181","10649.39"
"1182","10614.65"
"1183","10572.45"
"1184","10536.83"
"1185","10520.19"
"1186","10520.38"
"1187","10527.82"
"1188","10533.08"
"1189","10533.17"
"1190","10531.93"
"1191","10533.52"
"1192","10541.71"
"1193","10559.43"
"1194","10589.52"
"1195","10632.46"
"1196","10677.57"
"1197","10710.93"
"1198","10719.79"
"1199","10705.1"
"1200","10676.27"
"1201","10642.92"
"1202","10617.04"
"1203","10613.54"
"1204","10647.47"
"1205","10720.18"
"1206","10799.37"
"1207","10847.66"
"1208","10837.13"
"1209","10788.83"
"1210","10739.63"
"1211","10723.32"
"1212","10737.58"
"1213","10756.71"
"1214","10755.14"
"1215","10727.01"
"1216","10690.65"
"1217","10665.91"
"1218","10665.36"
"1219","10684.41"
"1220","10715.96"
"1221","10751.96"
"1222","10779.86"
"1223","10785.74"
"1224","10757.98"
"1225","10708.39"
"1226","10662.43"
"1227","10644.94"
"1228","10658.98"
"1229","10684.2"
"1230","10699.15"
"1231","10694.01"
"1232","10681.94"
"1233","10678.78"
"1234","10695.29"
"1235","10723"
"1236","10748.87"
"1237","10762.22"
"1238","10770.02"
"1239","10787.27"
"1240","10827.74"
"1241","10884.88"
"1242","10935.58"
"1243","10956.51"
"1244","10940.39"
"1245","10902.87"
"1246","10861.39"
"1247","10831.36"
"1248","10823.05"
"1249","10845.88"
"1250","10903.09"
"1251","10968.47"
"1252","11007.02"
"1253","10988.43"
"1254","10924.92"
"1255","10851.43"
"1256","10802.1"
"1257","10790.89"
"1258","10813.25"
"1259","10863.91"
"1260","10931.79"
"1261","10996.94"
"1262","11038.68"
"1263","11042.28"
"1264","11008.85"
"1265","10942.08"
"1266","10850.28"
"1267","10763.31"
"1268","10717.33"
"1269","10742.73"
"1270","10821.23"
"1271","10910.23"
"1272","10968.82"
"1273","10987.61"
"1274","10983.08"
"1275","10972.31"
"1276","10963.51"
"1277","10953.22"
"1278","10937.23"
"1279","10914.26"
"1280","10889.51"
"1281","10868.96"
"1282","10856.91"
"1283","10851.58"
"1284","10849.84"
"1285","10848.96"
"1286","10848.74"
"1287","10849.9"
"1288","10853.13"
"1289","10858.78"
"1290","10866.97"
"1291","10877.79"
"1292","10889.89"
"1293","10900.67"
"1294","10907.51"
"1295","10910.49"
"1296","10913.48"
"1297","10920.6"
"1298","10934.09"
"1299","10952.05"
"1300","10972.03"
"1301","10991.06"
"1302","11004.29"
"1303","11006.51"
"1304","10994.67"
"1305","10977.51"
"1306","10967.69"
"1307","10976.04"
"1308","10997.21"
"1309","11017.63"
"1310","11024.34"
"1311","11013.89"
"1312","10990.12"
"1313","10957.1"
"1314","10921.27"
"1315","10891.71"
"1316","10877.53"
"1317","10881.84"
"1318","10898.34"
"1319","10919.85"
"1320","10940.8"
"1321","10959.31"
"1322","10973.98"
"1323","10983.6"
"1324","10987.46"
"1325","10985"
"1326","10976.59"
"1327","10967.49"
"1328","10964.43"
"1329","10972.78"
"1330","10987.34"
"1331","10998.2"
"1332","10996.87"
"1333","10990.74"
"1334","10997.27"
"1335","11032.5"
"1336","11084.61"
"1337","11117.68"
"1338","11096.11"
"1339","11019.56"
"1340","10929"
"1341","10867.42"
"1342","10853.17"
"1343","10865.62"
"1344","10880.77"
"1345","10886.11"
"1346","10893.7"
"1347","10918.81"
"1348","10965.75"
"1349","11007.06"
"1350","11009.52"
"1351","10953.88"
"1352","10875.96"
"1353","10825.25"
"1354","10839.98"
"1355","10897.99"
"1356","10956.94"
"1357","10979.7"
"1358","10966.9"
"1359","10935.84"
"1360","10903.13"
"1361","10877.58"
"1362","10863.56"
"1363","10864.7"
"1364","10875.36"
"1365","10883.07"
"1366","10876.11"
"1367","10860.03"
"1368","10856.28"
"1369","10885.98"
"1370","10942.12"
"1371","10985.36"
"1372","10975.38"
"1373","10909.59"
"1374","10839.19"
"1375","10819.05"
"1376","10865.65"
"1377","10928.04"
"1378","10948.54"
"1379","10900.33"
"1380","10823.13"
"1381","10765.37"
"1382","10758.14"
"1383","10786.54"
"1384","10828.18"
"1385","10863.46"
"1386","10881.91"
"1387","10874.93"
"1388","10839.51"
"1389","10794.77"
"1390","10765.28"
"1391","10769.29"
"1392","10794.75"
"1393","10820.66"
"1394","10829.49"
"1395","10823.9"
"1396","10813.67"
"1397","10807.76"
"1398","10809.33"
"1399","10819.16"
"1400","10836.91"
"1401","10853.52"
"1402","10855.7"
"1403","10832.49"
"1404","10795.58"
"1405","10769.2"
"1406","10774.86"
"1407","10801.93"
"1408","10819.54"
"1409","10799.03"
"1410","10745.07"
"1411","10685.87"
"1412","10648.9"
"1413","10641.77"
"1414","10656.5"
"1415","10684.73"
"1416","10719.17"
"1417","10753.5"
"1418","10781.43"
"1419","10797.94"
"1420","10799.12"
"1421","10781.45"
"1422","10749.58"
"1423","10716.51"
"1424","10695.43"
"1425","10692.91"
"1426","10708.16"
"1427","10739.76"
"1428","10777.61"
"1429","10801.36"
"1430","10790.68"
"1431","10748.62"
"1432","10707.45"
"1433","10700.63"
"1434","10732.68"
"1435","10770.01"
"1436","10777.11"
"1437","10749.09"
"1438","10723.11"
"1439","10738.76"
"1440","10803.53"
"1441","10879.4"
"1442","10925.34"
"1443","10925.65"
"1444","10901.44"
"1445","10876.6"
"1446","10866.48"
"1447","10873.83"
"1448","10900.2"
"1449","10938.75"
"1450","10970.05"
"1451","10973.93"
"1452","10944.51"
"1453","10897.3"
"1454","10849.52"
"1455","10813.06"
"1456","10792.01"
"1457","10789.66"
"1458","10802.19"
"1459","10815.34"
"1460","10814.26"
"1461","10794.65"
"1462","10767.37"
"1463","10744.17"
"1464","10726.5"
"1465","10701.49"
"1466","10655.64"
"1467","10592.06"
"1468","10535.93"
"1469","10513.36"
"1470","10527.02"
"1471","10549.96"
"1472","10553.91"
"1473","10529.94"
"1474","10492.32"
"1475","10456.42"
"1476","10430"
"1477","10412.23"
"1478","10401.87"
"1479","10398.54"
"1480","10402.77"
"1481","10414.88"
"1482","10429.58"
"1483","10436.21"
"1484","10424.58"
"1485","10398.19"
"1486","10372.64"
"1487","10362.82"
"1488","10364.69"
"1489","10359"
"1490","10327.57"
"1491","10273.04"
"1492","10213.18"
"1493","10165.84"
"1494","10145.62"
"1495","10165.02"
"1496","10233.08"
"1497","10324.71"
"1498","10395.22"
"1499","10405.54"
"1500","10366.78"
"1501","10315.2"
"1502","10283.25"
"1503","10274.18"
"1504","10278.54"
"1505","10288.17"
"1506","10303.14"
"1507","10326.58"
"1508","10358.07"
"1509","10379.09"
"1510","10365.4"
"1511","10303.9"
"1512","10228.39"
"1513","10185.02"
"1514","10202.61"
"1515","10249.55"
"1516","10281.08"
"1517","10271.14"
"1518","10247.34"
"1519","10246.75"
"1520","10283.51"
"1521","10318.06"
"1522","10303.37"
"1523","10225.49"
"1524","10133.73"
"1525","10083.99"
"1526","10094.47"
"1527","10124.46"
"1528","10128.95"
"1529","10094.16"
"1530","10045.99"
"1531","10012.15"
"1532","10003.11"
"1533","10011.65"
"1534","10029.65"
"1535","10047.92"
"1536","10056.34"
"1537","10046.1"
"1538","10024.41"
"1539","10008.92"
"1540","10015.4"
"1541","10041.77"
"1542","10076.85"
"1543","10109.66"
"1544","10130.93"
"1545","10132.05"
"1546","10107.9"
"1547","10069.8"
"1548","10033.98"
"1549","10014.34"
"1550","10016.55"
"1551","10044.46"
"1552","10095.01"
"1553","10147.08"
"1554","10176.73"
"1555","10172.29"
"1556","10145.94"
"1557","10112.53"
"1558","10083.13"
"1559","10063.24"
"1560","10057.6"
"1561","10062.59"
"1562","10065.43"
"1563","10053.81"
"1564","10029.59"
"1565","10006.11"
"1566","9995.558"
"1567","9995.087"
"1568","9992.941"
"1569","9978.924"
"1570","9954.53"
"1571","9926.204"
"1572","9900.382"
"1573","9883.32"
"1574","9881.231"
"1575","9896.44"
"1576","9918.602"
"1577","9934.797"
"1578","9937.481"
"1579","9931.192"
"1580","9922.108"
"1581","9914.585"
"1582","9910.131"
"1583","9910.026"
"1584","9916.384"
"1585","9932.221"
"1586","9959.715"
"1587","9987.719"
"1588","9994.834"
"1589","9963.465"
"1590","9912.687"
"1591","9880.976"
"1592","9897.5"
"1593","9937.254"
"1594","9956.076"
"1595","9925.496"
"1596","9874.605"
"1597","9845.613"
"1598","9861.435"
"1599","9899.223"
"1600","9929.705"
"1601","9937.629"
"1602","9929.639"
"1603","9914.227"
"1604","9898.175"
"1605","9886.503"
"1606","9883.717"
"1607","9888.938"
"1608","9897.564"
"1609","9905.728"
"1610","9915.476"
"1611","9931.476"
"1612","9955.686"
"1613","9978.007"
"1614","9985.016"
"1615","9969.487"
"1616","9940.962"
"1617","9911.763"
"1618","9892.904"
"1619","9893.173"
"1620","9920.439"
"1621","9964.048"
"1622","9993.533"
"1623","9980.414"
"1624","9933.28"
"1625","9885.807"
"1626","9867.797"
"1627","9879.275"
"1628","9907.872"
"1629","9941.98"
"1630","9973.14"
"1631","9993.668"
"1632","9997.352"
"1633","9981.377"
"1634","9943.674"
"1635","9894.479"
"1636","9861.028"
"1637","9869.928"
"1638","9914.764"
"1639","9961.309"
"1640","9978.666"
"1641","9971.896"
"1642","9964.19"
"1643","9972.546"
"1644","9984.572"
"1645","9979.429"
"1646","9947.789"
"1647","9909.983"
"1648","9890.748"
"1649","9897.595"
"1650","9912.487"
"1651","9916.484"
"1652","9912.152"
"1653","9920.762"
"1654","9959.798"
"1655","10009.34"
"1656","10030.66"
"1657","9997.629"
"1658","9940.152"
"1659","9903.542"
"1660","9909.517"
"1661","9924.099"
"1662","9906.122"
"1663","9850.978"
"1664","9802.314"
"1665","9803.213"
"1666","9840.588"
"1667","9859.394"
"1668","9816.004"
"1669","9750.348"
"1670","9736.674"
"1671","9817.736"
"1672","9928.601"
"1673","9981.901"
"1674","9939.958"
"1675","9854.113"
"1676","9783.104"
"1677","9743.07"
"1678","9708.429"
"1679","9655.275"
"1680","9590.922"
"1681","9539.241"
"1682","9521.356"
"1683","9545.669"
"1684","9617.047"
"1685","9720.443"
"1686","9797.658"
"1687","9786.868"
"1688","9689.301"
"1689","9578.161"
"1690","9524.122"
"1691","9528.052"
"1692","9548.686"
"1693","9550.337"
"1694","9527.393"
"1695","9483.341"
"1696","9426.139"
"1697","9374.16"
"1698","9346.845"
"1699","9349.336"
"1700","9369.827"
"1701","9395.69"
"1702","9416.314"
"1703","9422.305"
"1704","9408.172"
"1705","9386.887"
"1706","9376.85"
"1707","9387.091"
"1708","9405.856"
"1709","9419.015"
"1710","9423.89"
"1711","9430.391"
"1712","9447.12"
"1713","9464.394"
"1714","9462.536"
"1715","9428.957"
"1716","9380.372"
"1717","9340.813"
"1718","9320.741"
"1719","9305.322"
"1720","9278.132"
"1721","9246.094"
"1722","9237.294"
"1723","9274.029"
"1724","9331.831"
"1725","9365.991"
"1726","9350.761"
"1727","9318.724"
"1728","9312.901"
"1729","9343.198"
"1730","9373.078"
"1731","9365.721"
"1732","9323.904"
"1733","9276.813"
"1734","9248.749"
"1735","9238.154"
"1736","9235.761"
"1737","9234.665"
"1738","9232.871"
"1739","9229.127"
"1740","9225.352"
"1741","9226.452"
"1742","9236.428"
"1743","9251.904"
"1744","9266.336"
"1745","9274.149"
"1746","9272.654"
"1747","9259.654"
"1748","9233.009"
"1749","9190.629"
"1750","9133.024"
"1751","9086.257"
"1752","9090.991"
"1753","9167.616"
"1754","9258.754"
"1755","9289.303"
"1756","9237.756"
"1757","9167.641"
"1758","9145.265"
"1759","9173.139"
"1760","9208.976"
"1761","9219.745"
"1762","9220.347"
"1763","9239.467"
"1764","9280.04"
"1765","9296.758"
"1766","9242.888"
"1767","9135.72"
"1768","9044.339"
"1769","9025.417"
"1770","9060.302"
"1771","9105.237"
"1772","9135.655"
"1773","9166.978"
"1774","9218.18"
"1775","9281.626"
"1776","9326.413"
"1777","9326.096"
"1778","9284.663"
"1779","9216.985"
"1780","9143.031"
"1781","9093.665"
"1782","9099.158"
"1783","9150.839"
"1784","9205.427"
"1785","9225.52"
"1786","9214.531"
"1787","9190.333"
"1788","9168.427"
"1789","9159.218"
"1790","9171.331"
"1791","9193.095"
"1792","9195.627"
"1793","9158.814"
"1794","9111.984"
"1795","9100.536"
"1796","9140.365"
"1797","9190.778"
"1798","9207.155"
"1799","9182.703"
"1800","9139.396"
"1801","9096.628"
"1802","9058.609"
"1803","9025.322"
"1804","9003.321"
"1805","9009.906"
"1806","9059.82"
"1807","9126.369"
"1808","9156.284"
"1809","9116.72"
"1810","9051.499"
"1811","9021.047"
"1812","9043.608"
"1813","9081.443"
"1814","9096.619"
"1815","9082.999"
"1816","9050.485"
"1817","9011.636"
"1818","8985.939"
"1819","8993.119"
"1820","9029.391"
"1821","9067.209"
"1822","9083.37"
"1823","9087.175"
"1824","9099.744"
"1825","9122.791"
"1826","9119.694"
"1827","9053.99"
"1828","8953.9"
"1829","8894.602"
"1830","8927.121"
"1831","9002.278"
"1832","9047.032"
"1833","9032.532"
"1834","8989.425"
"1835","8950.287"
"1836","8928.822"
"1837","8929.624"
"1838","8951.496"
"1839","8978.995"
"1840","8995.113"
"1841","8995.029"
"1842","8984.55"
"1843","8970.315"
"1844","8961.124"
"1845","8966.299"
"1846","8987.647"
"1847","9015.562"
"1848","9039.654"
"1849","9051.264"
"1850","9042.653"
"1851","9015.155"
"1852","8993.978"
"1853","9006.299"
"1854","9042.063"
"1855","9058.12"
"1856","9023.981"
"1857","8973.51"
"1858","8958.558"
"1859","8995.914"
"1860","9051.688"
"1861","9090.479"
"1862","9097.39"
"1863","9067.485"
"1864","9005.919"
"1865","8941.125"
"1866","8903.131"
"1867","8895.179"
"1868","8899.972"
"1869","8902.32"
"1870","8897.084"
"1871","8881.781"
"1872","8863.537"
"1873","8860.658"
"1874","8886.71"
"1875","8922.661"
"1876","8937.611"
"1877","8925.262"
"1878","8922.069"
"1879","8963.188"
"1880","9029.422"
"1881","9071.242"
"1882","9058.065"
"1883","9008.839"
"1884","8950.083"
"1885","8903.614"
"1886","8887.523"
"1887","8910.59"
"1888","8947.031"
"1889","8963.96"
"1890","8958.086"
"1891","8958.951"
"1892","8987.043"
"1893","9004.623"
"1894","8955.423"
"1895","8841.82"
"1896","8754.268"
"1897","8775.36"
"1898","8871.028"
"1899","8953.846"
"1900","8972.531"
"1901","8948.745"
"1902","8911.886"
"1903","8880.837"
"1904","8868.156"
"1905","8881.515"
"1906","8915.996"
"1907","8963.796"
"1908","9004.621"
"1909","9008.559"
"1910","8959.944"
"1911","8891.855"
"1912","8846.207"
"1913","8834.231"
"1914","8838.001"
"1915","8840.896"
"1916","8836.775"
"1917","8822.617"
"1918","8806.63"
"1919","8809.851"
"1920","8846.398"
"1921","8891.082"
"1922","8906.789"
"1923","8886.645"
"1924","8864.369"
"1925","8870.013"
"1926","8893.278"
"1927","8908.8"
"1928","8901.237"
"1929","8870.742"
"1930","8822.758"
"1931","8790.681"
"1932","8819.381"
"1933","8901.153"
"1934","8937.762"
"1935","8841.84"
"1936","8685.862"
"1937","8617.987"
"1938","8694.073"
"1939","8795.456"
"1940","8800.259"
"1941","8729.385"
"1942","8677.063"
"1943","8698.086"
"1944","8766.951"
"1945","8848.141"
"1946","8902.607"
"1947","8889.515"
"1948","8801.914"
"1949","8703.146"
"1950","8658.645"
"1951","8668.902"
"1952","8698.514"
"1953","8720.543"
"1954","8726.689"
"1955","8712.947"
"1956","8694.14"
"1957","8695.395"
"1958","8727.289"
"1959","8770.192"
"1960","8801.153"
"1961","8801.563"
"1962","8755.271"
"1963","8669.201"
"1964","8595.677"
"1965","8584.443"
"1966","8616.572"
"1967","8638.589"
"1968","8624.834"
"1969","8601.438"
"1970","8596.03"
"1971","8604.087"
"1972","8606.253"
"1973","8595.445"
"1974","8585.336"
"1975","8588.714"
"1976","8598.657"
"1977","8600.117"
"1978","8584.938"
"1979","8555.309"
"1980","8514.888"
"1981","8470.966"
"1982","8432.084"
"1983","8403.286"
"1984","8385.065"
"1985","8377.876"
"1986","8383.418"
"1987","8403.564"
"1988","8434.406"
"1989","8465.657"
"1990","8486.304"
"1991","8483.854"
"1992","8446.793"
"1993","8390.95"
"1994","8357.078"
"1995","8370.791"
"1996","8406.094"
"1997","8428.406"
"1998","8428.332"
"1999","8415.028"
"2000","8393.991"
"2001","8360.494"
"2002","8310.858"
"2003","8267.711"
"2004","8268.658"
"2005","8315.455"
"2006","8340.922"
"2007","8286.052"
"2008","8208.608"
"2009","8215.963"
"2010","8318.272"
"2011","8384.841"
"2012","8308.693"
"2013","8163.956"
"2014","8079.838"
"2015","8095.675"
"2016","8154.261"
"2017","8203.113"
"2018","8224.647"
"2019","8210.212"
"2020","8167.993"
"2021","8119.319"
"2022","8086.063"
"2023","8090.427"
"2024","8148.746"
"2025","8221.169"
"2026","8237.517"
"2027","8173.558"
"2028","8084.414"
"2029","8025.742"
"2030","8008.685"
"2031","8027.333"
"2032","8056.057"
"2033","8046.292"
"2034","7971.589"
"2035","7894.722"
"2036","7893.642"
"2037","7951.667"
"2038","7978.518"
"2039","7930.151"
"2040","7877.839"
"2041","7896.896"
"2042","7952.438"
"2043","7955.297"
"2044","7882.927"
"2045","7813.963"
"2046","7814.812"
"2047","7849.274"
"2048","7852.501"
"2049","7822.251"
"2050","7815.681"
"2051","7861.189"
"2052","7897.715"
"2053","7857.944"
"2054","7774.792"
"2055","7738.63"
"2056","7776.752"
"2057","7808.763"
"2058","7764.852"
"2059","7689.677"
"2060","7663.627"
"2061","7700.089"
"2062","7745.529"
"2063","7755.535"
"2064","7721.475"
"2065","7644.627"
"2066","7560.187"
"2067","7522.438"
"2068","7547.341"
"2069","7588.106"
"2070","7601.968"
"2071","7595.956"
"2072","7592.343"
"2073","7606.814"
"2074","7649.019"
"2075","7706.582"
"2076","7711.232"
"2077","7601.067"
"2078","7441.374"
"2079","7358.294"
"2080","7394.193"
"2081","7477.301"
"2082","7541.048"
"2083","7572.257"
"2084","7572.146"
"2085","7559.464"
"2086","7565.268"
"2087","7586.419"
"2088","7553.181"
"2089","7412.356"
"2090","7251.23"
"2091","7202.402"
"2092","7280.813"
"2093","7385.984"
"2094","7444.063"
"2095","7465.355"
"2096","7472.522"
"2097","7476.133"
"2098","7480.483"
"2099","7472.941"
"2100","7419.381"
"2101","7308.138"
"2102","7210.974"
"2103","7208.632"
"2104","7278.653"
"2105","7335.684"
"2106","7331.372"
"2107","7277.396"
"2108","7192.292"
"2109","7101.225"
"2110","7030.916"
"2111","7002.83"
"2112","7034.322"
"2113","7111.962"
"2114","7165.245"
"2115","7137.647"
"2116","7077.943"
"2117","7063.752"
"2118","7085.469"
"2119","7060.806"
"2120","6961.474"
"2121","6877.098"
"2122","6890.183"
"2123","6955.388"
"2124","6985.522"
"2125","6968.556"
"2126","6960.316"
"2127","6983.754"
"2128","6982.816"
"2129","6907.86"
"2130","6813.957"
"2131","6791.476"
"2132","6847.125"
"2133","6909.803"
"2134","6927.13"
"2135","6896.078"
"2136","6825.643"
"2137","6756.354"
"2138","6736.859"
"2139","6742.213"
"2140","6680.825"
"2141","6529.936"
"2142","6421.585"
"2143","6472.254"
"2144","6593.326"
"2145","6631.229"
"2146","6560.152"
"2147","6462.591"
"2148","6403.273"
"2149","6404.597"
"2150","6474.529"
"2151","6573.239"
"2152","6646.606"
"2153","6652.507"
"2154","6558.505"
"2155","6391.576"
"2156","6280.361"
"2157","6318.739"
"2158","6410.616"
"2159","6421.854"
"2160","6357.549"
"2161","6310.169"
"2162","6328.177"
"2163","6395.224"
"2164","6477.908"
"2165","6502.708"
"2166","6405.265"
"2167","6273.178"
"2168","6265.782"
"2169","6383.363"
"2170","6446.334"
"2171","6352.191"
"2172","6219.352"
"2173","6177.581"
"2174","6210.919"
"2175","6249.719"
"2176","6258.275"
"2177","6230.068"
"2178","6175.739"
"2179","6135.934"
"2180","6138.497"
"2181","6141.847"
"2182","6093.681"
"2183","6028.739"
"2184","6033.036"
"2185","6112.457"
"2186","6167.466"
"2187","6137.487"
"2188","6093.959"
"2189","6116.483"
"2190","6180.648"
"2191","6220.105"
"2192","6187.249"
"2193","6051.764"
"2194","5851.943"
"2195","5751.339"
"2196","5861.629"
"2197","6024.596"
"2198","6035.074"
"2199","5911.001"
"2200","5793.751"
"2201","5741.38"
"2202","5713.398"
"2203","5686.452"
"2204","5692.195"
"2205","5754.716"
"2206","5813.091"
"2207","5784.424"
"2208","5674.631"
"2209","5551.866"
"2210","5466.3"
"2211","5440.659"
"2212","5480.71"
"2213","5548.429"
"2214","5604.129"
"2215","5649.962"
"2216","5701.531"
"2217","5724.045"
"2218","5643.491"
"2219","5476.402"
"2220","5384.582"
"2221","5466.751"
"2222","5573.572"
"2223","5536.366"
"2224","5408.095"
"2225","5329.793"
"2226","5317.482"
"2227","5281.921"
"2228","5202.189"
"2229","5174.632"
"2230","5257.408"
"2231","5346.855"
"2232","5326.345"
"2233","5222.595"
"2234","5120.981"
"2235","5069.294"
"2236","5083.889"
"2237","5157.961"
"2238","5250.159"
"2239","5316.477"
"2240","5314.466"
"2241","5215.018"
"2242","5071.167"
"2243","4964.115"
"2244","4924.249"
"2245","4943.832"
"2246","4982.46"
"2247","4956.649"
"2248","4827.171"
"2249","4676.839"
"2250","4592.774"
"2251","4583.833"
"2252","4631.248"
"2253","4686.891"
"2254","4686.98"
"2255","4629.49"
"2256","4580.472"
"2257","4577.527"
"2258","4593.859"
"2259","4597.369"
"2260","4565.499"
"2261","4482.463"
"2262","4367.057"
"2263","4253.601"
"2264","4170.869"
"2265","4142.199"
"2266","4149.13"
"2267","4112.549"
"2268","3992.284"
"2269","3864.051"
"2270","3805.239"
"2271","3805.937"
"2272","3825.972"
"2273","3795.362"
"2274","3632.971"
"2275","3390.465"
"2276","3249.736"
"2277","3290.723"
"2278","3408.769"
"2279","3487.869"
"2280","3433.986"
"2281","3197.613"
"2282","2958.894"
"2283","2951.57"
"2284","3105.458"
"2285","3169.272"
"2286","3069.109"
"2287","2919.821"
"2288","2801.254"
"2289","2714.829"
"2290","2646.989"
"2291","2562.756"
"2292","2434.416"
"2293","2298.479"
"2294","2210.39"
"2295","2189.304"
"2296","2230.754"
"2297","2285.181"
"2298","2259.937"
"2299","2145.307"
"2300","2069.852"
