,"Scan 01193"
"400","10696.09"
"401","10717.96"
"402","10720.65"
"403","10695.71"
"404","10647.56"
"405","10584.7"
"406","10515.56"
"407","10448.34"
"408","10389.86"
"409","10346.28"
"410","10323.67"
"411","10327.41"
"412","10354.32"
"413","10395.22"
"414","10440.92"
"415","10482.45"
"416","10514.84"
"417","10537.05"
"418","10548.2"
"419","10547.49"
"420","10537.81"
"421","10526.96"
"422","10523.07"
"423","10534.11"
"424","10560.33"
"425","10587.87"
"426","10601.41"
"427","10585.78"
"428","10534.98"
"429","10465.84"
"430","10398.54"
"431","10353.16"
"432","10343.42"
"433","10362.08"
"434","10397.5"
"435","10438.11"
"436","10473.39"
"437","10497.16"
"438","10504.52"
"439","10490.58"
"440","10452.83"
"441","10402.62"
"442","10356.37"
"443","10330.38"
"444","10338"
"445","10370.24"
"446","10407.75"
"447","10431.24"
"448","10423.61"
"449","10388.59"
"450","10341.96"
"451","10299.51"
"452","10275.89"
"453","10271.76"
"454","10278"
"455","10285.33"
"456","10285"
"457","10275.91"
"458","10263.37"
"459","10252.83"
"460","10249.49"
"461","10253.2"
"462","10258.69"
"463","10260.5"
"464","10253.26"
"465","10233.89"
"466","10201.79"
"467","10156.52"
"468","10097.85"
"469","10033.1"
"470","9979.172"
"471","9953.5"
"472","9972.988"
"473","10034.96"
"474","10109.17"
"475","10163.47"
"476","10166.3"
"477","10110.36"
"478","10025.78"
"479","9945.736"
"480","9902.922"
"481","9910.261"
"482","9947.677"
"483","9992.063"
"484","10020.58"
"485","10022.12"
"486","10006.38"
"487","9985.139"
"488","9970.063"
"489","9966.969"
"490","9970.84"
"491","9975.494"
"492","9974.813"
"493","9965.09"
"494","9947.235"
"495","9922.669"
"496","9892.811"
"497","9858.466"
"498","9819.286"
"499","9774.785"
"500","9724.489"
"501","9669.497"
"502","9613.947"
"503","9562.321"
"504","9519.036"
"505","9486.069"
"506","9460.729"
"507","9439.798"
"508","9420.099"
"509","9399.289"
"510","9376.572"
"511","9351.326"
"512","9322.945"
"513","9292.153"
"514","9262.027"
"515","9235.86"
"516","9216.89"
"517","9205.486"
"518","9197.293"
"519","9187.537"
"520","9171.511"
"521","9147.039"
"522","9115.803"
"523","9079.797"
"524","9041.023"
"525","9002.254"
"526","8967.35"
"527","8940.223"
"528","8924.646"
"529","8919.879"
"530","8919.559"
"531","8917.013"
"532","8905.857"
"533","8887.006"
"534","8869.405"
"535","8862.383"
"536","8874.625"
"537","8902.102"
"538","8928.558"
"539","8937.315"
"540","8912.885"
"541","8858.317"
"542","8792"
"543","8732.691"
"544","8697.681"
"545","8686.176"
"546","8684.727"
"547","8679.679"
"548","8659.169"
"549","8628.917"
"550","8604.874"
"551","8603.046"
"552","8636.107"
"553","8690.808"
"554","8741.605"
"555","8763.01"
"556","8735.146"
"557","8672.192"
"558","8601.209"
"559","8549.146"
"560","8536.463"
"561","8553.183"
"562","8580.35"
"563","8599.098"
"564","8596.337"
"565","8579.633"
"566","8561.199"
"567","8553.174"
"568","8563.087"
"569","8585.922"
"570","8614.58"
"571","8642.001"
"572","8662.944"
"573","8675.851"
"574","8679.62"
"575","8673.179"
"576","8656.645"
"577","8631.956"
"578","8601.212"
"579","8566.509"
"580","8530.412"
"581","8496.03"
"582","8466.485"
"583","8444.835"
"584","8433.176"
"585","8432.806"
"586","8444.984"
"587","8470.48"
"588","8504.744"
"589","8540.004"
"590","8568.466"
"591","8583.268"
"592","8583.864"
"593","8572.421"
"594","8551.105"
"595","8522.225"
"596","8488.787"
"597","8453.996"
"598","8421.038"
"599","8393.155"
"600","8373.769"
"601","8366.329"
"602","8374.244"
"603","8397.17"
"604","8427.025"
"605","8454.808"
"606","8471.672"
"607","8474.664"
"608","8468.963"
"609","8460.325"
"610","8454.325"
"611","8453.274"
"612","8456.451"
"613","8463.027"
"614","8471.774"
"615","8477.114"
"616","8470.816"
"617","8444.644"
"618","8393.388"
"619","8330.934"
"620","8278.567"
"621","8257.517"
"622","8280.771"
"623","8330.141"
"624","8380.08"
"625","8405.182"
"626","8391.438"
"627","8350.979"
"628","8299.547"
"629","8252.696"
"630","8219.374"
"631","8199.188"
"632","8191.035"
"633","8193.764"
"634","8205.275"
"635","8222.638"
"636","8242.903"
"637","8263.28"
"638","8282.332"
"639","8299.354"
"640","8313.65"
"641","8324.198"
"642","8328.368"
"643","8323.026"
"644","8305.06"
"645","8273.64"
"646","8234.261"
"647","8193.49"
"648","8157.854"
"649","8132.592"
"650","8120.913"
"651","8125.84"
"652","8149.983"
"653","8187.786"
"654","8226.189"
"655","8251.888"
"656","8253.452"
"657","8235.925"
"658","8212.996"
"659","8198.397"
"660","8202.499"
"661","8220.514"
"662","8243.362"
"663","8262.002"
"664","8270.521"
"665","8270.433"
"666","8264.326"
"667","8254.776"
"668","8244.054"
"669","8234.045"
"670","8226.604"
"671","8223.448"
"672","8224.622"
"673","8228.963"
"674","8235.294"
"675","8242.412"
"676","8248.989"
"677","8253.648"
"678","8255.015"
"679","8252.577"
"680","8248.356"
"681","8244.844"
"682","8244.471"
"683","8247.104"
"684","8248.737"
"685","8245.06"
"686","8232.211"
"687","8213.233"
"688","8196.618"
"689","8190.977"
"690","8202.89"
"691","8225.897"
"692","8248.355"
"693","8258.643"
"694","8250.045"
"695","8230.532"
"696","8210.791"
"697","8201.362"
"698","8206.378"
"699","8220.668"
"700","8238.34"
"701","8253.853"
"702","8266.345"
"703","8278.367"
"704","8292.535"
"705","8310.659"
"706","8330.025"
"707","8346.353"
"708","8355.383"
"709","8354.483"
"710","8345.091"
"711","8329.25"
"712","8309.04"
"713","8287.65"
"714","8269.565"
"715","8259.337"
"716","8260.955"
"717","8273.055"
"718","8291.28"
"719","8311.256"
"720","8329.69"
"721","8347.563"
"722","8366.909"
"723","8389.707"
"724","8413.77"
"725","8429.732"
"726","8427.535"
"727","8398.118"
"728","8347.968"
"729","8295.934"
"730","8261.176"
"731","8258.566"
"732","8278.78"
"733","8303.979"
"734","8316.385"
"735","8306.937"
"736","8286.828"
"737","8270.094"
"738","8270.201"
"739","8287.39"
"740","8308.354"
"741","8319.204"
"742","8308.625"
"743","8284.281"
"744","8262.324"
"745","8258.911"
"746","8283.341"
"747","8325.33"
"748","8371.129"
"749","8407.235"
"750","8427.389"
"751","8434.021"
"752","8430.073"
"753","8418.398"
"754","8401.062"
"755","8379.727"
"756","8356.057"
"757","8334.078"
"758","8325.377"
"759","8343.031"
"760","8399.596"
"761","8488.427"
"762","8578.23"
"763","8636.133"
"764","8633.882"
"765","8585.046"
"766","8525.515"
"767","8491.337"
"768","8505.327"
"769","8547.753"
"770","8590.345"
"771","8605.503"
"772","8588.45"
"773","8563.1"
"774","8555.162"
"775","8586.588"
"776","8647.382"
"777","8711.365"
"778","8752.262"
"779","8753.897"
"780","8729.784"
"781","8698.863"
"782","8679.669"
"783","8679.455"
"784","8692.736"
"785","8713.35"
"786","8735.067"
"787","8751.133"
"788","8754.57"
"789","8738.43"
"790","8702.575"
"791","8663.672"
"792","8640.897"
"793","8652.479"
"794","8697.552"
"795","8757.452"
"796","8812.859"
"797","8846.869"
"798","8855.941"
"799","8841.151"
"800","8803.631"
"801","8750.888"
"802","8702.48"
"803","8679.294"
"804","8700.021"
"805","8754.567"
"806","8812.452"
"807","8842.787"
"808","8825.33"
"809","8781.529"
"810","8743.029"
"811","8740.899"
"812","8782.261"
"813","8841.908"
"814","8892.368"
"815","8909.89"
"816","8901.301"
"817","8888.449"
"818","8893.24"
"819","8925.578"
"820","8964.705"
"821","8985.047"
"822","8962.452"
"823","8899.655"
"824","8823.595"
"825","8762.041"
"826","8737.785"
"827","8749.183"
"828","8787.12"
"829","8842.443"
"830","8903.428"
"831","8954.308"
"832","8978.96"
"833","8963.93"
"834","8920.92"
"835","8875.492"
"836","8853.326"
"837","8869.047"
"838","8906.898"
"839","8945.941"
"840","8966.221"
"841","8967.243"
"842","8966.475"
"843","8982.054"
"844","9026.063"
"845","9081.468"
"846","9122.484"
"847","9123.757"
"848","9082.623"
"849","9030.185"
"850","9000.274"
"851","9021.551"
"852","9079.509"
"853","9138.158"
"854","9161.433"
"855","9131.971"
"856","9076.715"
"857","9029.011"
"858","9020.117"
"859","9050.017"
"860","9094.502"
"861","9128.756"
"862","9135.655"
"863","9126.998"
"864","9121.376"
"865","9136.897"
"866","9177.296"
"867","9229.771"
"868","9280.609"
"869","9317.222"
"870","9333.55"
"871","9325.91"
"872","9290.768"
"873","9235.653"
"874","9186.569"
"875","9171.263"
"876","9212.851"
"877","9292.746"
"878","9370.267"
"879","9404.606"
"880","9376.527"
"881","9318.209"
"882","9269.33"
"883","9266.827"
"884","9308.979"
"885","9365.533"
"886","9405.576"
"887","9408.562"
"888","9388.79"
"889","9367.877"
"890","9366.734"
"891","9390.323"
"892","9427.779"
"893","9467.561"
"894","9499.544"
"895","9520.21"
"896","9527.951"
"897","9521.327"
"898","9505.491"
"899","9494.144"
"900","9501.55"
"901","9538.422"
"902","9593.308"
"903","9646.215"
"904","9677.313"
"905","9679.267"
"906","9665.416"
"907","9651.046"
"908","9649.704"
"909","9660.696"
"910","9676.335"
"911","9688.899"
"912","9693.758"
"913","9692.646"
"914","9688.091"
"915","9682.563"
"916","9677.953"
"917","9675.795"
"918","9677.616"
"919","9682.998"
"920","9686.601"
"921","9682.321"
"922","9664.782"
"923","9638.551"
"924","9615.376"
"925","9607.171"
"926","9620.97"
"927","9649.068"
"928","9680.989"
"929","9706.598"
"930","9721.68"
"931","9726.993"
"932","9723.447"
"933","9712.966"
"934","9701.052"
"935","9693.992"
"936","9697.685"
"937","9709.678"
"938","9719.586"
"939","9716.7"
"940","9694.697"
"941","9664.859"
"942","9642.89"
"943","9643.912"
"944","9668.313"
"945","9700.95"
"946","9725.951"
"947","9731.472"
"948","9723.687"
"949","9713.771"
"950","9712.583"
"951","9721.31"
"952","9730.147"
"953","9728.689"
"954","9709.591"
"955","9680.229"
"956","9652.403"
"957","9637.652"
"958","9638.883"
"959","9648.602"
"960","9658.702"
"961","9662.993"
"962","9664.951"
"963","9671.122"
"964","9687.838"
"965","9713.846"
"966","9738.471"
"967","9750.434"
"968","9741.496"
"969","9719.167"
"970","9696.074"
"971","9684.567"
"972","9686.88"
"973","9692.487"
"974","9690.057"
"975","9671.383"
"976","9644.631"
"977","9623.276"
"978","9620.425"
"979","9635.518"
"980","9650.929"
"981","9647.946"
"982","9613.797"
"983","9566.028"
"984","9531.836"
"985","9537.723"
"986","9586.532"
"987","9652.342"
"988","9707.492"
"989","9730.229"
"990","9727.717"
"991","9715.921"
"992","9710.51"
"993","9717.396"
"994","9731.19"
"995","9745.879"
"996","9756.426"
"997","9762.328"
"998","9764.374"
"999","9763.366"
"1000","9760.594"
"1001","9757.855"
"1002","9756.985"
"1003","9759.549"
"1004","9765.982"
"1005","9776.438"
"1006","9791.058"
"1007","9809.466"
"1008","9829.952"
"1009","9850.604"
"1010","9869.357"
"1011","9882.623"
"1012","9885.911"
"1013","9874.767"
"1014","9850.694"
"1015","9826.94"
"1016","9818.137"
"1017","9836.141"
"1018","9871.949"
"1019","9907.055"
"1020","9923.135"
"1021","9915.562"
"1022","9900.166"
"1023","9894.472"
"1024","9912.192"
"1025","9946.662"
"1026","9984.405"
"1027","10012.24"
"1028","10025.26"
"1029","10027.69"
"1030","10024.24"
"1031","10019.37"
"1032","10016.73"
"1033","10019.76"
"1034","10031.65"
"1035","10051.16"
"1036","10073.63"
"1037","10094.31"
"1038","10108.97"
"1039","10114.61"
"1040","10108.45"
"1041","10088.96"
"1042","10066.05"
"1043","10055.75"
"1044","10073.92"
"1045","10123.49"
"1046","10186.32"
"1047","10242.35"
"1048","10274.34"
"1049","10280.72"
"1050","10265.19"
"1051","10231.67"
"1052","10189.27"
"1053","10152.51"
"1054","10136.16"
"1055","10148.25"
"1056","10174.85"
"1057","10197.58"
"1058","10200.07"
"1059","10189.82"
"1060","10189.94"
"1061","10223.65"
"1062","10295.96"
"1063","10377.29"
"1064","10434.13"
"1065","10439.7"
"1066","10408.62"
"1067","10371.3"
"1068","10357.43"
"1069","10374.31"
"1070","10404.36"
"1071","10428.68"
"1072","10434.2"
"1073","10427.02"
"1074","10417.17"
"1075","10413.78"
"1076","10415.29"
"1077","10413.49"
"1078","10400.13"
"1079","10374.76"
"1080","10350.67"
"1081","10342.49"
"1082","10361.08"
"1083","10397.03"
"1084","10434.2"
"1085","10456.99"
"1086","10460.88"
"1087","10451.8"
"1088","10436.02"
"1089","10417.95"
"1090","10397.08"
"1091","10372.12"
"1092","10342.72"
"1093","10315.98"
"1094","10302.57"
"1095","10312.85"
"1096","10344.61"
"1097","10379.6"
"1098","10398.52"
"1099","10387.5"
"1100","10351.88"
"1101","10301.24"
"1102","10245.42"
"1103","10196.88"
"1104","10169.74"
"1105","10177.95"
"1106","10221.44"
"1107","10277.67"
"1108","10322.06"
"1109","10336.29"
"1110","10329.9"
"1111","10320.16"
"1112","10323.13"
"1113","10337.8"
"1114","10350.47"
"1115","10347.17"
"1116","10322.41"
"1117","10286.41"
"1118","10251.12"
"1119","10227.09"
"1120","10217.71"
"1121","10224.14"
"1122","10246.89"
"1123","10276.57"
"1124","10295.73"
"1125","10286.75"
"1126","10246.01"
"1127","10197.62"
"1128","10169.01"
"1129","10180.7"
"1130","10216.48"
"1131","10248.02"
"1132","10248.52"
"1133","10216.49"
"1134","10171.24"
"1135","10132.65"
"1136","10114.44"
"1137","10118.33"
"1138","10144.67"
"1139","10191.98"
"1140","10249.82"
"1141","10304.91"
"1142","10344.46"
"1143","10363.13"
"1144","10361.24"
"1145","10339.3"
"1146","10302.68"
"1147","10265.29"
"1148","10241.88"
"1149","10242.58"
"1150","10257.26"
"1151","10270.35"
"1152","10267.69"
"1153","10252.31"
"1154","10238.38"
"1155","10240.04"
"1156","10260.2"
"1157","10285.33"
"1158","10300.64"
"1159","10297.26"
"1160","10286.71"
"1161","10284.81"
"1162","10305.22"
"1163","10342.62"
"1164","10382.02"
"1165","10408.82"
"1166","10421.1"
"1167","10431.19"
"1168","10452.15"
"1169","10486.74"
"1170","10512.41"
"1171","10502.74"
"1172","10439.54"
"1173","10352.69"
"1174","10289.56"
"1175","10294.1"
"1176","10356.38"
"1177","10423.73"
"1178","10442.75"
"1179","10397.38"
"1180","10333.9"
"1181","10304.51"
"1182","10344.4"
"1183","10425.79"
"1184","10506.35"
"1185","10547.58"
"1186","10544.56"
"1187","10509.65"
"1188","10455.43"
"1189","10397.02"
"1190","10352.22"
"1191","10338.93"
"1192","10364.56"
"1193","10413.79"
"1194","10468.29"
"1195","10512.27"
"1196","10541.93"
"1197","10557.06"
"1198","10557.74"
"1199","10547.44"
"1200","10531.72"
"1201","10516.13"
"1202","10504.24"
"1203","10497.15"
"1204","10495.83"
"1205","10501.18"
"1206","10513.92"
"1207","10534.72"
"1208","10562.65"
"1209","10588.31"
"1210","10599.57"
"1211","10585.59"
"1212","10550.48"
"1213","10508.06"
"1214","10472.18"
"1215","10452.61"
"1216","10454.05"
"1217","10480.88"
"1218","10530.86"
"1219","10586.1"
"1220","10626.4"
"1221","10636.64"
"1222","10626.05"
"1223","10611.15"
"1224","10606.87"
"1225","10611.78"
"1226","10614.93"
"1227","10605.77"
"1228","10588.09"
"1229","10581.04"
"1230","10604.45"
"1231","10659.79"
"1232","10712.41"
"1233","10723.35"
"1234","10670.77"
"1235","10597.51"
"1236","10561.76"
"1237","10611.15"
"1238","10714.01"
"1239","10802.78"
"1240","10813.77"
"1241","10750.16"
"1242","10669.68"
"1243","10630.95"
"1244","10656.19"
"1245","10715.43"
"1246","10774.69"
"1247","10809.82"
"1248","10821.94"
"1249","10816.17"
"1250","10798.49"
"1251","10779.01"
"1252","10769.03"
"1253","10778.34"
"1254","10802.44"
"1255","10829.24"
"1256","10847.18"
"1257","10856.33"
"1258","10867.45"
"1259","10891.46"
"1260","10928.04"
"1261","10959.49"
"1262","10966.67"
"1263","10940.8"
"1264","10900.59"
"1265","10869.21"
"1266","10865.51"
"1267","10888.26"
"1268","10930.38"
"1269","10983.74"
"1270","11031.41"
"1271","11052.11"
"1272","11026.21"
"1273","10962.8"
"1274","10894.53"
"1275","10854.31"
"1276","10855.07"
"1277","10883.35"
"1278","10923.91"
"1279","10962.72"
"1280","10988.5"
"1281","10990.26"
"1282","10962.02"
"1283","10915.47"
"1284","10866.25"
"1285","10827.98"
"1286","10802.28"
"1287","10786.26"
"1288","10777.64"
"1289","10779.91"
"1290","10800.08"
"1291","10844.45"
"1292","10905.33"
"1293","10962.15"
"1294","10994.19"
"1295","10998.05"
"1296","10994.69"
"1297","11006.82"
"1298","11046.1"
"1299","11100.14"
"1300","11153.42"
"1301","11192.28"
"1302","11209.35"
"1303","11198.59"
"1304","11157.73"
"1305","11104.67"
"1306","11064.07"
"1307","11057.08"
"1308","11074.72"
"1309","11092.58"
"1310","11087.61"
"1311","11058.39"
"1312","11019.85"
"1313","10987.07"
"1314","10967.41"
"1315","10959.82"
"1316","10962.76"
"1317","10971"
"1318","10973.42"
"1319","10958.44"
"1320","10923.67"
"1321","10887.9"
"1322","10872.9"
"1323","10891.11"
"1324","10923.23"
"1325","10943.29"
"1326","10930.63"
"1327","10891.24"
"1328","10839.45"
"1329","10789.76"
"1330","10757.87"
"1331","10760.06"
"1332","10809.51"
"1333","10884.68"
"1334","10942.16"
"1335","10940.56"
"1336","10880.5"
"1337","10798.91"
"1338","10733.28"
"1339","10699.95"
"1340","10690.48"
"1341","10695.05"
"1342","10706.64"
"1343","10722.59"
"1344","10740.61"
"1345","10757.04"
"1346","10765.27"
"1347","10758.31"
"1348","10733.19"
"1349","10698.58"
"1350","10665.27"
"1351","10643.78"
"1352","10643.57"
"1353","10673.82"
"1354","10738.18"
"1355","10810.48"
"1356","10854.6"
"1357","10840.39"
"1358","10781.02"
"1359","10708.83"
"1360","10654.43"
"1361","10630.43"
"1362","10639.12"
"1363","10681.39"
"1364","10740.23"
"1365","10785.6"
"1366","10788.72"
"1367","10752.74"
"1368","10710.19"
"1369","10693.77"
"1370","10707.72"
"1371","10723.67"
"1372","10711.93"
"1373","10667.6"
"1374","10621.01"
"1375","10604.99"
"1376","10630.06"
"1377","10667.68"
"1378","10685.38"
"1379","10668.53"
"1380","10640.88"
"1381","10631.18"
"1382","10655.26"
"1383","10694.6"
"1384","10725.1"
"1385","10729.87"
"1386","10715.6"
"1387","10693.75"
"1388","10674.03"
"1389","10659.25"
"1390","10650.51"
"1391","10648.59"
"1392","10652.58"
"1393","10661.09"
"1394","10671.97"
"1395","10678.92"
"1396","10674.13"
"1397","10652.27"
"1398","10624.83"
"1399","10610.35"
"1400","10623.95"
"1401","10653.12"
"1402","10672.01"
"1403","10657.76"
"1404","10617.09"
"1405","10573.14"
"1406","10547.74"
"1407","10546.22"
"1408","10563.5"
"1409","10593.71"
"1410","10621.98"
"1411","10627.18"
"1412","10590.14"
"1413","10524.63"
"1414","10470.34"
"1415","10465.62"
"1416","10511.64"
"1417","10577.3"
"1418","10631.16"
"1419","10657.88"
"1420","10657.35"
"1421","10630.54"
"1422","10589.07"
"1423","10555.57"
"1424","10552.57"
"1425","10585.6"
"1426","10641.37"
"1427","10705.69"
"1428","10767.78"
"1429","10820.93"
"1430","10858.98"
"1431","10887.65"
"1432","10927.58"
"1433","10999.68"
"1434","11098.12"
"1435","11181.79"
"1436","11208.06"
"1437","11174.02"
"1438","11131.29"
"1439","11134.57"
"1440","11194.67"
"1441","11260.11"
"1442","11275.37"
"1443","11224.35"
"1444","11148.26"
"1445","11092.44"
"1446","11078.15"
"1447","11091.05"
"1448","11114.04"
"1449","11137.14"
"1450","11161.07"
"1451","11187.26"
"1452","11208.93"
"1453","11206.95"
"1454","11161.6"
"1455","11074.63"
"1456","10979.61"
"1457","10912.32"
"1458","10885.19"
"1459","10876.68"
"1460","10862.78"
"1461","10833.08"
"1462","10796.59"
"1463","10763.69"
"1464","10739.72"
"1465","10723.05"
"1466","10711.42"
"1467","10697.87"
"1468","10669.24"
"1469","10612.45"
"1470","10533"
"1471","10460.01"
"1472","10423.2"
"1473","10421.77"
"1474","10418.47"
"1475","10375.37"
"1476","10298.99"
"1477","10245.81"
"1478","10272.24"
"1479","10365.77"
"1480","10441.75"
"1481","10416.18"
"1482","10295.32"
"1483","10172.62"
"1484","10140.53"
"1485","10204.08"
"1486","10290.86"
"1487","10329.19"
"1488","10303.66"
"1489","10244.2"
"1490","10181.22"
"1491","10134"
"1492","10113.7"
"1493","10129.36"
"1494","10166.88"
"1495","10197.11"
"1496","10193.58"
"1497","10158.91"
"1498","10112.42"
"1499","10072.12"
"1500","10042.8"
"1501","10022.59"
"1502","10009.48"
"1503","10000.39"
"1504","9991.833"
"1505","9981.771"
"1506","9977.014"
"1507","9987.681"
"1508","10019.57"
"1509","10056.71"
"1510","10076.19"
"1511","10062.65"
"1512","10032.3"
"1513","10009.72"
"1514","10012.86"
"1515","10036.58"
"1516","10070.74"
"1517","10103.91"
"1518","10121.1"
"1519","10106.69"
"1520","10057.48"
"1521","9999.306"
"1522","9962.052"
"1523","9958.127"
"1524","9966.466"
"1525","9962.398"
"1526","9932.536"
"1527","9881.114"
"1528","9814.167"
"1529","9747.111"
"1530","9707.271"
"1531","9721.36"
"1532","9782.33"
"1533","9848.537"
"1534","9878.744"
"1535","9865.146"
"1536","9827.392"
"1537","9785.389"
"1538","9752.246"
"1539","9736.641"
"1540","9745.88"
"1541","9776.145"
"1542","9817.924"
"1543","9860.896"
"1544","9889.966"
"1545","9888.138"
"1546","9846.513"
"1547","9794.68"
"1548","9773.673"
"1549","9806.996"
"1550","9856.236"
"1551","9869.359"
"1552","9821.207"
"1553","9756.893"
"1554","9732.612"
"1555","9768.969"
"1556","9817.302"
"1557","9821.794"
"1558","9770.57"
"1559","9715.622"
"1560","9712.041"
"1561","9761.999"
"1562","9810.236"
"1563","9802.069"
"1564","9739.289"
"1565","9669.153"
"1566","9636.063"
"1567","9641.001"
"1568","9659.314"
"1569","9668.963"
"1570","9668.516"
"1571","9665.274"
"1572","9664.674"
"1573","9663.041"
"1574","9654.001"
"1575","9635.968"
"1576","9622.977"
"1577","9632.204"
"1578","9666.772"
"1579","9698.171"
"1580","9693.983"
"1581","9649.649"
"1582","9604.381"
"1583","9599.905"
"1584","9640.346"
"1585","9688.396"
"1586","9706.822"
"1587","9692.073"
"1588","9666.512"
"1589","9651.455"
"1590","9652.607"
"1591","9667.432"
"1592","9691.348"
"1593","9708.65"
"1594","9699.684"
"1595","9654.401"
"1596","9597.97"
"1597","9563.565"
"1598","9566.955"
"1599","9582.63"
"1600","9579.461"
"1601","9550.06"
"1602","9524.116"
"1603","9533.204"
"1604","9575.007"
"1605","9611.993"
"1606","9607.998"
"1607","9565.64"
"1608","9514.179"
"1609","9481.262"
"1610","9478.568"
"1611","9510.721"
"1612","9575.754"
"1613","9642.773"
"1614","9672.896"
"1615","9649.009"
"1616","9612.789"
"1617","9615.288"
"1618","9670.002"
"1619","9727.098"
"1620","9732.562"
"1621","9683.715"
"1622","9632.794"
"1623","9629.992"
"1624","9665.916"
"1625","9690.862"
"1626","9663.515"
"1627","9604.957"
"1628","9562.253"
"1629","9570.153"
"1630","9614.683"
"1631","9669.949"
"1632","9714.654"
"1633","9738.081"
"1634","9731.359"
"1635","9702.899"
"1636","9684.972"
"1637","9709.031"
"1638","9761.541"
"1639","9791.074"
"1640","9753.116"
"1641","9672.35"
"1642","9608.379"
"1643","9607.628"
"1644","9654.138"
"1645","9713.961"
"1646","9762.712"
"1647","9800.628"
"1648","9831.773"
"1649","9855.597"
"1650","9864.697"
"1651","9852.2"
"1652","9830.802"
"1653","9830.237"
"1654","9875.107"
"1655","9941.655"
"1656","9981.83"
"1657","9962.622"
"1658","9918.206"
"1659","9901.166"
"1660","9932.851"
"1661","9960.79"
"1662","9923.186"
"1663","9814.913"
"1664","9705.622"
"1665","9665.137"
"1666","9691.057"
"1667","9727.039"
"1668","9723.451"
"1669","9684.811"
"1670","9637.834"
"1671","9603.641"
"1672","9583.965"
"1673","9576.362"
"1674","9572.466"
"1675","9553.342"
"1676","9500.37"
"1677","9427.008"
"1678","9378.115"
"1679","9392.058"
"1680","9436.173"
"1681","9440.111"
"1682","9357.081"
"1683","9244.207"
"1684","9186.579"
"1685","9221.437"
"1686","9282.096"
"1687","9290.371"
"1688","9234.071"
"1689","9176.342"
"1690","9177.698"
"1691","9226.058"
"1692","9265.518"
"1693","9253.103"
"1694","9211.685"
"1695","9183.982"
"1696","9191.016"
"1697","9203.176"
"1698","9184.713"
"1699","9135.679"
"1700","9098.547"
"1701","9113.173"
"1702","9164.022"
"1703","9201.812"
"1704","9188.754"
"1705","9144.06"
"1706","9103.732"
"1707","9091.158"
"1708","9101.72"
"1709","9127.049"
"1710","9159.122"
"1711","9190.298"
"1712","9212.603"
"1713","9215.048"
"1714","9184.976"
"1715","9118.763"
"1716","9049.484"
"1717","9019.293"
"1718","9040.721"
"1719","9071.127"
"1720","9064.235"
"1721","9021.918"
"1722","8989.681"
"1723","9006.266"
"1724","9050.69"
"1725","9076.132"
"1726","9052.487"
"1727","9001.22"
"1728","8953.49"
"1729","8933.331"
"1730","8954.765"
"1731","9027.699"
"1732","9120.915"
"1733","9175.755"
"1734","9149.951"
"1735","9082.52"
"1736","9036.609"
"1737","9044.343"
"1738","9073.906"
"1739","9087.059"
"1740","9077.199"
"1741","9067.731"
"1742","9078.93"
"1743","9100.348"
"1744","9108.304"
"1745","9087.949"
"1746","9050.043"
"1747","9009.888"
"1748","8980.672"
"1749","8972.909"
"1750","8994.977"
"1751","9035.774"
"1752","9073.064"
"1753","9087.526"
"1754","9071.543"
"1755","9020.496"
"1756","8945.454"
"1757","8882.32"
"1758","8866.212"
"1759","8892.147"
"1760","8926.995"
"1761","8942.708"
"1762","8938.012"
"1763","8919.483"
"1764","8896.414"
"1765","8883.165"
"1766","8893.5"
"1767","8922.028"
"1768","8947.883"
"1769","8953.009"
"1770","8937.076"
"1771","8905.705"
"1772","8867.981"
"1773","8840.143"
"1774","8838.378"
"1775","8861.052"
"1776","8890.95"
"1777","8911.987"
"1778","8917.801"
"1779","8905.511"
"1780","8878.726"
"1781","8855.029"
"1782","8852.967"
"1783","8873.99"
"1784","8904.388"
"1785","8930.588"
"1786","8942.99"
"1787","8933.45"
"1788","8904.482"
"1789","8880.99"
"1790","8888.747"
"1791","8918.498"
"1792","8931.308"
"1793","8897.366"
"1794","8840.435"
"1795","8801.744"
"1796","8799.66"
"1797","8808.638"
"1798","8800.354"
"1799","8779.32"
"1800","8775.027"
"1801","8807.923"
"1802","8854.244"
"1803","8877.902"
"1804","8865.09"
"1805","8838.573"
"1806","8822.867"
"1807","8822.715"
"1808","8830.204"
"1809","8838.83"
"1810","8848.068"
"1811","8858.641"
"1812","8866.489"
"1813","8861.214"
"1814","8834.679"
"1815","8801.786"
"1816","8789.072"
"1817","8808.866"
"1818","8834.013"
"1819","8831.858"
"1820","8801.022"
"1821","8771.725"
"1822","8769.474"
"1823","8782.986"
"1824","8787.513"
"1825","8771.927"
"1826","8752.055"
"1827","8745.4"
"1828","8748.75"
"1829","8743.86"
"1830","8720.341"
"1831","8700.29"
"1832","8713.178"
"1833","8757.898"
"1834","8792.22"
"1835","8778.216"
"1836","8736.911"
"1837","8717.81"
"1838","8742.779"
"1839","8764.298"
"1840","8727.783"
"1841","8645.858"
"1842","8589.843"
"1843","8613.074"
"1844","8674.299"
"1845","8705.103"
"1846","8680.76"
"1847","8642.827"
"1848","8634.167"
"1849","8658.667"
"1850","8699.618"
"1851","8742.411"
"1852","8778.526"
"1853","8800.538"
"1854","8803.406"
"1855","8784.213"
"1856","8745.037"
"1857","8710.713"
"1858","8712.069"
"1859","8747.915"
"1860","8770.791"
"1861","8738.277"
"1862","8678.911"
"1863","8655.607"
"1864","8696.009"
"1865","8745.011"
"1866","8740.598"
"1867","8694.77"
"1868","8676.308"
"1869","8730.208"
"1870","8806.001"
"1871","8832.303"
"1872","8789.694"
"1873","8719.321"
"1874","8662.521"
"1875","8640.551"
"1876","8666.982"
"1877","8734.259"
"1878","8798.206"
"1879","8815.62"
"1880","8788.989"
"1881","8746.302"
"1882","8711.945"
"1883","8700.229"
"1884","8721.843"
"1885","8754.658"
"1886","8750.278"
"1887","8681.094"
"1888","8600.422"
"1889","8578.346"
"1890","8619.678"
"1891","8656.845"
"1892","8634.095"
"1893","8580.444"
"1894","8552.816"
"1895","8577.08"
"1896","8632.38"
"1897","8693.588"
"1898","8732.778"
"1899","8720.872"
"1900","8654.042"
"1901","8578.893"
"1902","8543.954"
"1903","8552.961"
"1904","8582.606"
"1905","8614.584"
"1906","8644.753"
"1907","8670.825"
"1908","8684.466"
"1909","8672.674"
"1910","8630.862"
"1911","8583.08"
"1912","8558.313"
"1913","8561.726"
"1914","8575.866"
"1915","8585.271"
"1916","8586.801"
"1917","8580.714"
"1918","8572.469"
"1919","8573.461"
"1920","8591.157"
"1921","8611.105"
"1922","8612.181"
"1923","8589.552"
"1924","8560.245"
"1925","8540.629"
"1926","8533.375"
"1927","8535.862"
"1928","8537.787"
"1929","8517.063"
"1930","8458.22"
"1931","8399.884"
"1932","8403.428"
"1933","8476.371"
"1934","8533.379"
"1935","8494.865"
"1936","8401.939"
"1937","8352.922"
"1938","8387.51"
"1939","8434.416"
"1940","8420.299"
"1941","8362.263"
"1942","8323.879"
"1943","8344.187"
"1944","8412.222"
"1945","8508.521"
"1946","8590.477"
"1947","8603.112"
"1948","8531.838"
"1949","8446.065"
"1950","8417.913"
"1951","8444.011"
"1952","8479.281"
"1953","8490.707"
"1954","8471.595"
"1955","8420.947"
"1956","8360.577"
"1957","8324.805"
"1958","8330.515"
"1959","8358.361"
"1960","8384.832"
"1961","8389.724"
"1962","8354.767"
"1963","8288.697"
"1964","8253.389"
"1965","8305.053"
"1966","8397.064"
"1967","8431.266"
"1968","8375.335"
"1969","8319.021"
"1970","8348.002"
"1971","8412.957"
"1972","8402.632"
"1973","8290.775"
"1974","8194.308"
"1975","8219.731"
"1976","8306.947"
"1977","8327.853"
"1978","8249.249"
"1979","8179.861"
"1980","8215.55"
"1981","8307"
"1982","8353.513"
"1983","8313.781"
"1984","8223.595"
"1985","8124.796"
"1986","8063.135"
"1987","8083.644"
"1988","8174.525"
"1989","8261.486"
"1990","8281.503"
"1991","8230.596"
"1992","8121.147"
"1993","7995.902"
"1994","7925.293"
"1995","7952.426"
"1996","8029.285"
"1997","8093.139"
"1998","8132.161"
"1999","8171.976"
"2000","8217.268"
"2001","8218.318"
"2002","8126.978"
"2003","7996.275"
"2004","7937.353"
"2005","7991.875"
"2006","8067.027"
"2007","8069.235"
"2008","8011.298"
"2009","7952.44"
"2010","7930.291"
"2011","7950.905"
"2012","8009.762"
"2013","8060.555"
"2014","8045.93"
"2015","7975.343"
"2016","7930"
"2017","7962.383"
"2018","8007.585"
"2019","7980.599"
"2020","7898.102"
"2021","7855.908"
"2022","7900.505"
"2023","7949.625"
"2024","7913.018"
"2025","7813.857"
"2026","7736.971"
"2027","7720.333"
"2028","7720.422"
"2029","7698.38"
"2030","7691.629"
"2031","7763.276"
"2032","7895.853"
"2033","7977.889"
"2034","7930.14"
"2035","7816.882"
"2036","7732.282"
"2037","7703.522"
"2038","7705.644"
"2039","7717.481"
"2040","7730.359"
"2041","7737.025"
"2042","7727.233"
"2043","7689.467"
"2044","7627.159"
"2045","7566.29"
"2046","7530.408"
"2047","7521.471"
"2048","7534.77"
"2049","7564.738"
"2050","7605.003"
"2051","7640.686"
"2052","7632.806"
"2053","7546.787"
"2054","7437.296"
"2055","7409.876"
"2056","7486.798"
"2057","7548.732"
"2058","7494.131"
"2059","7393.079"
"2060","7368.807"
"2061","7434.501"
"2062","7493.43"
"2063","7481.429"
"2064","7444.701"
"2065","7442.37"
"2066","7459.241"
"2067","7437.898"
"2068","7366.411"
"2069","7307.688"
"2070","7312.288"
"2071","7333.603"
"2072","7298.652"
"2073","7215.31"
"2074","7164.919"
"2075","7190.459"
"2076","7229.166"
"2077","7212.922"
"2078","7169.209"
"2079","7171.291"
"2080","7234.143"
"2081","7293.343"
"2082","7298.502"
"2083","7277.453"
"2084","7273.842"
"2085","7283.549"
"2086","7268.481"
"2087","7225.075"
"2088","7217.931"
"2089","7296.792"
"2090","7379.662"
"2091","7342.819"
"2092","7189.811"
"2093","7048.999"
"2094","7008.622"
"2095","7035.73"
"2096","7081.005"
"2097","7124.43"
"2098","7159.879"
"2099","7172.672"
"2100","7137.124"
"2101","7048.869"
"2102","6980.5"
"2103","7010.803"
"2104","7100.377"
"2105","7138.242"
"2106","7085.537"
"2107","7019.04"
"2108","7004.814"
"2109","7016.654"
"2110","7006.53"
"2111","6974.27"
"2112","6954.754"
"2113","6961.588"
"2114","6967.197"
"2115","6946.068"
"2116","6907.022"
"2117","6869.04"
"2118","6836.119"
"2119","6799.801"
"2120","6765.746"
"2121","6769.917"
"2122","6836.562"
"2123","6900.222"
"2124","6869.288"
"2125","6769.114"
"2126","6730.556"
"2127","6814.007"
"2128","6913.614"
"2129","6919.463"
"2130","6835.824"
"2131","6710.55"
"2132","6606.735"
"2133","6601.302"
"2134","6704.636"
"2135","6775.371"
"2136","6686.47"
"2137","6525.677"
"2138","6453.948"
"2139","6492.713"
"2140","6536.528"
"2141","6521.656"
"2142","6485.311"
"2143","6469.993"
"2144","6472.593"
"2145","6475.024"
"2146","6477.079"
"2147","6493.632"
"2148","6523.904"
"2149","6535.213"
"2150","6507.172"
"2151","6500.169"
"2152","6590.463"
"2153","6716.216"
"2154","6713.071"
"2155","6532.459"
"2156","6329.512"
"2157","6244.015"
"2158","6264.535"
"2159","6338.878"
"2160","6404.209"
"2161","6392.226"
"2162","6303.509"
"2163","6236.916"
"2164","6260.53"
"2165","6313.465"
"2166","6316.818"
"2167","6269.944"
"2168","6211.504"
"2169","6169.48"
"2170","6159.413"
"2171","6183.416"
"2172","6211.128"
"2173","6211.063"
"2174","6176.89"
"2175","6113.568"
"2176","6055.82"
"2177","6063.272"
"2178","6145.301"
"2179","6216.68"
"2180","6205.166"
"2181","6139.459"
"2182","6072.035"
"2183","6018.338"
"2184","5971.098"
"2185","5919.206"
"2186","5847"
"2187","5756.759"
"2188","5702.824"
"2189","5735.928"
"2190","5819.316"
"2191","5882.967"
"2192","5910.446"
"2193","5932.39"
"2194","5953.761"
"2195","5929.162"
"2196","5835.417"
"2197","5762.982"
"2198","5813.851"
"2199","5915.213"
"2200","5900.397"
"2201","5759.794"
"2202","5667.516"
"2203","5714.308"
"2204","5763.297"
"2205","5683.267"
"2206","5557.678"
"2207","5530"
"2208","5582.89"
"2209","5587.723"
"2210","5516.266"
"2211","5485.688"
"2212","5562.389"
"2213","5630.938"
"2214","5571.615"
"2215","5453.592"
"2216","5413.472"
"2217","5462.144"
"2218","5509.875"
"2219","5514.085"
"2220","5511.633"
"2221","5526.834"
"2222","5520.213"
"2223","5449.808"
"2224","5348.118"
"2225","5277.75"
"2226","5267.201"
"2227","5315.25"
"2228","5371.191"
"2229","5305.08"
"2230","5062.27"
"2231","4860.456"
"2232","4925.507"
"2233","5146.362"
"2234","5279.221"
"2235","5256.523"
"2236","5156.109"
"2237","5061.228"
"2238","5056.543"
"2239","5171.61"
"2240","5267.727"
"2241","5206.831"
"2242","5056.309"
"2243","4954.206"
"2244","4918.961"
"2245","4881.989"
"2246","4819.321"
"2247","4770.459"
"2248","4755.705"
"2249","4734.246"
"2250","4666.125"
"2251","4565.812"
"2252","4466.316"
"2253","4412.911"
"2254","4455.955"
"2255","4578.661"
"2256","4690.43"
"2257","4733.502"
"2258","4724.078"
"2259","4676.431"
"2260","4563.681"
"2261","4363.468"
"2262","4161.992"
"2263","4086.083"
"2264","4109.751"
"2265","4082.961"
"2266","3968.809"
"2267","3900.894"
"2268","3950.231"
"2269","3986.416"
"2270","3893.577"
"2271","3793.886"
"2272","3857.201"
"2273","3991.366"
"2274","3964.882"
"2275","3758.219"
"2276","3562.066"
"2277","3484.845"
"2278","3478.217"
"2279","3483.768"
"2280","3459.782"
"2281","3379.773"
"2282","3286.252"
"2283","3239.702"
"2284","3230.196"
"2285","3204.838"
"2286","3126.346"
"2287","2975.023"
"2288","2776.33"
"2289","2634.442"
"2290","2626.617"
"2291","2720.624"
"2292","2856.273"
"2293","2936.602"
"2294","2862.99"
"2295","2656.706"
"2296","2410.502"
"2297","2215.612"
"2298","2159.437"
"2299","2233.243"
"2300","2271.787"
