,"Scan 01142"
"400","10881.66"
"401","10894.96"
"402","10904.78"
"403","10902.45"
"404","10892.9"
"405","10885.38"
"406","10889.08"
"407","10911.6"
"408","10948.3"
"409","10988.65"
"410","11022.13"
"411","11038.9"
"412","11036.72"
"413","11018.6"
"414","10987.66"
"415","10947.11"
"416","10902.74"
"417","10862.85"
"418","10835.8"
"419","10829.68"
"420","10843.94"
"421","10866.39"
"422","10884.12"
"423","10884.38"
"424","10862.28"
"425","10827.27"
"426","10790.31"
"427","10762.24"
"428","10748.32"
"429","10739.95"
"430","10726.43"
"431","10697.17"
"432","10647.54"
"433","10593.08"
"434","10553.42"
"435","10548.09"
"436","10589.65"
"437","10659.62"
"438","10730.9"
"439","10776.57"
"440","10775.04"
"441","10735.58"
"442","10678.73"
"443","10624.93"
"444","10592.12"
"445","10579.82"
"446","10578.99"
"447","10580.57"
"448","10576.23"
"449","10564.06"
"450","10545.91"
"451","10523.66"
"452","10499.25"
"453","10475.96"
"454","10457.98"
"455","10449.47"
"456","10454.22"
"457","10469.58"
"458","10487.56"
"459","10500.08"
"460","10499.38"
"461","10484.33"
"462","10460.18"
"463","10432.42"
"464","10406.4"
"465","10384.5"
"466","10365.74"
"467","10349.01"
"468","10333.2"
"469","10317.91"
"470","10303.6"
"471","10290.81"
"472","10280.04"
"473","10270.98"
"474","10262.18"
"475","10252.13"
"476","10239.33"
"477","10225.04"
"478","10214.65"
"479","10213.91"
"480","10228.45"
"481","10257.24"
"482","10288.19"
"483","10308.21"
"484","10304.38"
"485","10272.76"
"486","10225.29"
"487","10175.5"
"488","10136.75"
"489","10116.28"
"490","10109.87"
"491","10112.08"
"492","10117.53"
"493","10122.15"
"494","10124.43"
"495","10123.16"
"496","10117.14"
"497","10104.96"
"498","10084.89"
"499","10055.13"
"500","10013.92"
"501","9962.176"
"502","9905.942"
"503","9851.84"
"504","9806.418"
"505","9772.468"
"506","9745.604"
"507","9720.664"
"508","9692.542"
"509","9659.162"
"510","9624.048"
"511","9591.306"
"512","9564.992"
"513","9546.501"
"514","9532.554"
"515","9519.417"
"516","9503.42"
"517","9483.942"
"518","9465.396"
"519","9452.639"
"520","9450.42"
"521","9458.776"
"522","9470.563"
"523","9478.063"
"524","9473.754"
"525","9456.651"
"526","9434.856"
"527","9417.091"
"528","9411.801"
"529","9418.897"
"530","9427.67"
"531","9426.8"
"532","9405.421"
"533","9363.683"
"534","9313.883"
"535","9268.881"
"536","9241.015"
"537","9232.633"
"538","9236.481"
"539","9244.95"
"540","9250.705"
"541","9250.401"
"542","9243.988"
"543","9231.52"
"544","9213.148"
"545","9190.323"
"546","9165.404"
"547","9140.755"
"548","9118.731"
"549","9101.662"
"550","9091.858"
"551","9091.617"
"552","9102.48"
"553","9120.015"
"554","9136.958"
"555","9146.067"
"556","9141.476"
"557","9125.595"
"558","9103.986"
"559","9082.186"
"560","9064.892"
"561","9052.941"
"562","9046.012"
"563","9043.789"
"564","9045.667"
"565","9049.97"
"566","9054.797"
"567","9058.246"
"568","9058.996"
"569","9057.273"
"570","9053.561"
"571","9048.337"
"572","9041.748"
"573","9033.229"
"574","9022.14"
"575","9007.855"
"576","8990.499"
"577","8971.337"
"578","8951.732"
"579","8933.032"
"580","8916.377"
"581","8902.682"
"582","8892.835"
"583","8887.645"
"584","8886.394"
"585","8887.102"
"586","8887.749"
"587","8886.577"
"588","8884.503"
"589","8884.07"
"590","8887.836"
"591","8897.576"
"592","8909.621"
"593","8917.97"
"594","8916.646"
"595","8902.113"
"596","8882.229"
"597","8868.149"
"598","8870.986"
"599","8895.905"
"600","8929.7"
"601","8955.668"
"602","8957.234"
"603","8927.68"
"604","8880.553"
"605","8831.855"
"606","8797.332"
"607","8783.57"
"608","8784.513"
"609","8793.195"
"610","8802.855"
"611","8810.202"
"612","8815.161"
"613","8817.78"
"614","8818.118"
"615","8816.269"
"616","8812.354"
"617","8806.497"
"618","8798.844"
"619","8789.684"
"620","8779.354"
"621","8768.202"
"622","8757.016"
"623","8748.298"
"624","8744.958"
"625","8749.881"
"626","8763.37"
"627","8779.799"
"628","8792.721"
"629","8795.813"
"630","8787.225"
"631","8771.429"
"632","8753.375"
"633","8737.961"
"634","8729.46"
"635","8731.604"
"636","8748.088"
"637","8781.345"
"638","8822.315"
"639","8855.818"
"640","8866.659"
"641","8844.021"
"642","8798.676"
"643","8748.072"
"644","8709.593"
"645","8694.557"
"646","8697.589"
"647","8710.461"
"648","8725.019"
"649","8735.974"
"650","8742.563"
"651","8744.431"
"652","8741.304"
"653","8734.69"
"654","8727.725"
"655","8723.597"
"656","8724.977"
"657","8729.937"
"658","8734.135"
"659","8733.222"
"660","8724.419"
"661","8712.062"
"662","8702.49"
"663","8702.016"
"664","8713.035"
"665","8728.641"
"666","8740.595"
"667","8740.841"
"668","8727.649"
"669","8707.469"
"670","8687.281"
"671","8673.763"
"672","8669.927"
"673","8676.174"
"674","8692.85"
"675","8719.093"
"676","8746.737"
"677","8764.908"
"678","8762.757"
"679","8735.768"
"680","8698.125"
"681","8667.421"
"682","8660.979"
"683","8683.746"
"684","8722.058"
"685","8760.735"
"686","8785.482"
"687","8795.191"
"688","8799.138"
"689","8806.858"
"690","8826.004"
"691","8852.111"
"692","8875.908"
"693","8888.132"
"694","8881.95"
"695","8857.767"
"696","8817.339"
"697","8762.531"
"698","8701.176"
"699","8649.78"
"700","8625.5"
"701","8643.622"
"702","8694.029"
"703","8748.142"
"704","8777.017"
"705","8758.164"
"706","8704.877"
"707","8642.838"
"708","8597.666"
"709","8586.119"
"710","8603.025"
"711","8639.868"
"712","8688.1"
"713","8737.323"
"714","8774.978"
"715","8788.4"
"716","8767.155"
"717","8722.029"
"718","8675.676"
"719","8650.825"
"720","8663.37"
"721","8702.308"
"722","8750.026"
"723","8789.033"
"724","8808.949"
"725","8811.622"
"726","8800.108"
"727","8777.657"
"728","8750.73"
"729","8728.334"
"730","8719.533"
"731","8730.913"
"732","8755.096"
"733","8779.783"
"734","8792.722"
"735","8787.997"
"736","8774.416"
"737","8762.848"
"738","8763.702"
"739","8776.654"
"740","8790.392"
"741","8793.118"
"742","8775.262"
"743","8743.53"
"744","8711.926"
"745","8694.452"
"746","8699.141"
"747","8716.952"
"748","8735.831"
"749","8744.042"
"750","8739.72"
"751","8732.835"
"752","8734.044"
"753","8752.344"
"754","8782.424"
"755","8811.632"
"756","8827.281"
"757","8822.875"
"758","8811.667"
"759","8810.82"
"760","8837.049"
"761","8890.796"
"762","8951.613"
"763","8997.712"
"764","9009.972"
"765","8993.462"
"766","8966.153"
"767","8946.113"
"768","8944.966"
"769","8953.609"
"770","8958.783"
"771","8947.56"
"772","8918.288"
"773","8883.51"
"774","8856.652"
"775","8849.737"
"776","8862.895"
"777","8890.225"
"778","8925.787"
"779","8964.43"
"780","9003.309"
"781","9039.989"
"782","9072.064"
"783","9097.434"
"784","9114.359"
"785","9121.113"
"786","9116.58"
"787","9103.948"
"788","9088.308"
"789","9074.74"
"790","9066.904"
"791","9064.95"
"792","9068.498"
"793","9077.159"
"794","9090.298"
"795","9107.042"
"796","9126.519"
"797","9147.563"
"798","9167.399"
"799","9182.696"
"800","9190.154"
"801","9189.437"
"802","9185.811"
"803","9185.161"
"804","9192.714"
"805","9205.021"
"806","9212.495"
"807","9205.429"
"808","9178.148"
"809","9140.802"
"810","9107.407"
"811","9091.757"
"812","9098.696"
"813","9120.965"
"814","9150.456"
"815","9179.5"
"816","9204.062"
"817","9221.87"
"818","9230.68"
"819","9230.252"
"820","9225.472"
"821","9222.024"
"822","9225.325"
"823","9235.621"
"824","9248.517"
"825","9259.444"
"826","9264.808"
"827","9265.73"
"828","9264.772"
"829","9264.468"
"830","9265.202"
"831","9263.998"
"832","9257.571"
"833","9243.625"
"834","9229.135"
"835","9226.179"
"836","9246.872"
"837","9295.591"
"838","9355.406"
"839","9405.763"
"840","9427.001"
"841","9417.166"
"842","9390.646"
"843","9362.444"
"844","9344.832"
"845","9336.991"
"846","9334.166"
"847","9331.688"
"848","9329.611"
"849","9334.989"
"850","9355.457"
"851","9396.774"
"852","9449.158"
"853","9495.075"
"854","9516.976"
"855","9506.291"
"856","9475.702"
"857","9440.967"
"858","9417.249"
"859","9410.932"
"860","9421.599"
"861","9448.653"
"862","9489.313"
"863","9532.556"
"864","9565.42"
"865","9575.354"
"866","9561.722"
"867","9537.609"
"868","9516.864"
"869","9511.17"
"870","9519.6"
"871","9536.665"
"872","9556.893"
"873","9576.746"
"874","9595.923"
"875","9614.423"
"876","9632.056"
"877","9646.932"
"878","9656.25"
"879","9657.211"
"880","9649.498"
"881","9638.693"
"882","9631.242"
"883","9633.284"
"884","9646.651"
"885","9669.987"
"886","9701.865"
"887","9738.772"
"888","9770.179"
"889","9784.085"
"890","9769.235"
"891","9731.361"
"892","9693.033"
"893","9677.551"
"894","9701.564"
"895","9750.916"
"896","9802.512"
"897","9833.667"
"898","9837.312"
"899","9826.625"
"900","9816.138"
"901","9818.37"
"902","9833.351"
"903","9856.298"
"904","9882.396"
"905","9905.495"
"906","9917.216"
"907","9908.977"
"908","9874.581"
"909","9827.484"
"910","9790.795"
"911","9787.587"
"912","9825.651"
"913","9881.205"
"914","9926.549"
"915","9937.029"
"916","9920.451"
"917","9904.256"
"918","9916.116"
"919","9966.898"
"920","10024.99"
"921","10052.17"
"922","10013.69"
"923","9922.452"
"924","9825.754"
"925","9771.665"
"926","9790.722"
"927","9860.455"
"928","9948.413"
"929","10023.19"
"930","10071.32"
"931","10094.35"
"932","10094.35"
"933","10074.67"
"934","10043.24"
"935","10009.02"
"936","9980.72"
"937","9961.554"
"938","9949.517"
"939","9942.391"
"940","9938.264"
"941","9936.414"
"942","9936.42"
"943","9937.884"
"944","9940.986"
"945","9946.508"
"946","9955.269"
"947","9967.92"
"948","9984.439"
"949","10004.61"
"950","10028.05"
"951","10049.86"
"952","10059.98"
"953","10048.08"
"954","10008.06"
"955","9954.19"
"956","9906.884"
"957","9886.093"
"958","9896.698"
"959","9925.456"
"960","9958.034"
"961","9982.014"
"962","9994.627"
"963","9996.155"
"964","9986.986"
"965","9971.135"
"966","9957.129"
"967","9953.783"
"968","9967.108"
"969","9988.537"
"970","10004.78"
"971","10002.9"
"972","9982.899"
"973","9961.133"
"974","9954.99"
"975","9976.961"
"976","10013.98"
"977","10044.7"
"978","10048.21"
"979","10020.98"
"980","9981.155"
"981","9948.256"
"982","9937.613"
"983","9943.189"
"984","9952.147"
"985","9951.89"
"986","9938.207"
"987","9917.085"
"988","9895.12"
"989","9878.004"
"990","9866.946"
"991","9861.8"
"992","9862.418"
"993","9868.93"
"994","9881.76"
"995","9901.355"
"996","9928.003"
"997","9961.25"
"998","10000.44"
"999","10044.79"
"1000","10090.46"
"1001","10130.24"
"1002","10156.76"
"1003","10165.04"
"1004","10160.03"
"1005","10149.29"
"1006","10140.41"
"1007","10137.96"
"1008","10139.09"
"1009","10139.75"
"1010","10135.96"
"1011","10123.94"
"1012","10100.11"
"1013","10060.93"
"1014","10009.67"
"1015","9963.023"
"1016","9939.267"
"1017","9953.58"
"1018","9997.808"
"1019","10053.16"
"1020","10100.92"
"1021","10130.44"
"1022","10143.08"
"1023","10141.19"
"1024","10127.9"
"1025","10110.56"
"1026","10097.92"
"1027","10098.55"
"1028","10115.83"
"1029","10147.46"
"1030","10190.85"
"1031","10241.77"
"1032","10290.08"
"1033","10324.22"
"1034","10333.48"
"1035","10319.62"
"1036","10294.22"
"1037","10269.1"
"1038","10254.33"
"1039","10255.66"
"1040","10278.14"
"1041","10324.87"
"1042","10380.95"
"1043","10421.89"
"1044","10423.39"
"1045","10380.95"
"1046","10322.13"
"1047","10277.49"
"1048","10271.46"
"1049","10295.11"
"1050","10328.18"
"1051","10350.97"
"1052","10358.65"
"1053","10361.96"
"1054","10372.39"
"1055","10397.1"
"1056","10429.14"
"1057","10458.72"
"1058","10476.92"
"1059","10485.14"
"1060","10491.5"
"1061","10504.2"
"1062","10525.61"
"1063","10547.03"
"1064","10558.48"
"1065","10552.13"
"1066","10533.3"
"1067","10512.31"
"1068","10499.26"
"1069","10497.54"
"1070","10503.05"
"1071","10511.3"
"1072","10518.67"
"1073","10524.43"
"1074","10528.43"
"1075","10530.6"
"1076","10531.44"
"1077","10531.87"
"1078","10532.8"
"1079","10535.15"
"1080","10539.92"
"1081","10548.1"
"1082","10559.73"
"1083","10569.87"
"1084","10571.93"
"1085","10559.73"
"1086","10536.2"
"1087","10512.75"
"1088","10501.13"
"1089","10507.12"
"1090","10521.14"
"1091","10531.17"
"1092","10526.99"
"1093","10512.96"
"1094","10500.41"
"1095","10500.41"
"1096","10513.4"
"1097","10526.21"
"1098","10524.79"
"1099","10500.39"
"1100","10463.11"
"1101","10427.2"
"1102","10405.84"
"1103","10400.51"
"1104","10405.35"
"1105","10414.39"
"1106","10423.48"
"1107","10431.34"
"1108","10436.96"
"1109","10439.63"
"1110","10440.07"
"1111","10439.39"
"1112","10438.59"
"1113","10437.38"
"1114","10434.46"
"1115","10428.57"
"1116","10421.23"
"1117","10419.21"
"1118","10429.85"
"1119","10457.41"
"1120","10490.39"
"1121","10512.31"
"1122","10507.75"
"1123","10478.94"
"1124","10442.46"
"1125","10415.28"
"1126","10407.94"
"1127","10418.18"
"1128","10442.22"
"1129","10474.75"
"1130","10502.34"
"1131","10508.88"
"1132","10479.59"
"1133","10422.02"
"1134","10361.97"
"1135","10325.72"
"1136","10325.76"
"1137","10347.74"
"1138","10374.23"
"1139","10391.51"
"1140","10404.77"
"1141","10425.08"
"1142","10462.17"
"1143","10505.5"
"1144","10529.12"
"1145","10506.95"
"1146","10434.75"
"1147","10346.69"
"1148","10280.86"
"1149","10265.76"
"1150","10288.24"
"1151","10323.91"
"1152","10350.03"
"1153","10363.6"
"1154","10374.45"
"1155","10392.48"
"1156","10419.19"
"1157","10443.86"
"1158","10454.79"
"1159","10445.3"
"1160","10425.84"
"1161","10410.53"
"1162","10411.83"
"1163","10427.96"
"1164","10449.88"
"1165","10468.71"
"1166","10481.14"
"1167","10490.17"
"1168","10499.1"
"1169","10508.92"
"1170","10514.88"
"1171","10511.33"
"1172","10494.61"
"1173","10472.49"
"1174","10456.89"
"1175","10458.81"
"1176","10474.65"
"1177","10489.2"
"1178","10487.09"
"1179","10464.49"
"1180","10436.86"
"1181","10421.53"
"1182","10430.03"
"1183","10452.61"
"1184","10474.6"
"1185","10483.04"
"1186","10479.91"
"1187","10474.91"
"1188","10477.61"
"1189","10493.6"
"1190","10524.24"
"1191","10570.64"
"1192","10627.78"
"1193","10677.33"
"1194","10699.2"
"1195","10679.73"
"1196","10635.83"
"1197","10593.51"
"1198","10576.5"
"1199","10583.61"
"1200","10598.16"
"1201","10603.57"
"1202","10594.47"
"1203","10579.28"
"1204","10567.25"
"1205","10564.79"
"1206","10571.32"
"1207","10585.23"
"1208","10603.71"
"1209","10617.9"
"1210","10616.95"
"1211","10591.78"
"1212","10554.02"
"1213","10528.68"
"1214","10540.28"
"1215","10588.1"
"1216","10640.24"
"1217","10662.97"
"1218","10640.49"
"1219","10599.62"
"1220","10573.38"
"1221","10586.09"
"1222","10620.21"
"1223","10645.71"
"1224","10635.94"
"1225","10599.23"
"1226","10564.3"
"1227","10559.25"
"1228","10588.47"
"1229","10630.83"
"1230","10664.04"
"1231","10677.32"
"1232","10682.62"
"1233","10694.59"
"1234","10721.6"
"1235","10748.26"
"1236","10753.54"
"1237","10721.22"
"1238","10671.06"
"1239","10639.13"
"1240","10659.03"
"1241","10722.08"
"1242","10785.13"
"1243","10804.69"
"1244","10770.87"
"1245","10721.96"
"1246","10699.95"
"1247","10727.83"
"1248","10779.75"
"1249","10822.16"
"1250","10829.13"
"1251","10811.11"
"1252","10789.36"
"1253","10783.39"
"1254","10796.55"
"1255","10823.58"
"1256","10859.01"
"1257","10894.75"
"1258","10920.31"
"1259","10925.26"
"1260","10907.86"
"1261","10879.66"
"1262","10853.37"
"1263","10838.85"
"1264","10838.42"
"1265","10853.18"
"1266","10883.29"
"1267","10924.4"
"1268","10970.85"
"1269","11016.29"
"1270","11048.5"
"1271","11052.33"
"1272","11014.2"
"1273","10946.65"
"1274","10883.76"
"1275","10859.56"
"1276","10880.49"
"1277","10916.5"
"1278","10935.07"
"1279","10919.43"
"1280","10886.53"
"1281","10857.7"
"1282","10848.52"
"1283","10854.13"
"1284","10865.14"
"1285","10873.41"
"1286","10878.49"
"1287","10882.79"
"1288","10888.24"
"1289","10891.75"
"1290","10887.29"
"1291","10869.35"
"1292","10844.15"
"1293","10828.68"
"1294","10839.99"
"1295","10879.92"
"1296","10928.85"
"1297","10965.58"
"1298","10979.86"
"1299","10985.11"
"1300","10997.81"
"1301","11027.97"
"1302","11063.51"
"1303","11087.7"
"1304","11087.18"
"1305","11066.99"
"1306","11038.33"
"1307","11011.71"
"1308","10991.82"
"1309","10980.39"
"1310","10978.64"
"1311","10980.55"
"1312","10974.64"
"1313","10949.87"
"1314","10910.06"
"1315","10875.41"
"1316","10866.69"
"1317","10887.55"
"1318","10914.51"
"1319","10921.72"
"1320","10896.51"
"1321","10856.69"
"1322","10824.32"
"1323","10814.74"
"1324","10820.46"
"1325","10829.18"
"1326","10831.17"
"1327","10829.56"
"1328","10831.49"
"1329","10842.25"
"1330","10853.27"
"1331","10849.75"
"1332","10819.06"
"1333","10773.25"
"1334","10739.88"
"1335","10745.03"
"1336","10783.7"
"1337","10824"
"1338","10834.07"
"1339","10810.88"
"1340","10785.2"
"1341","10789.33"
"1342","10829.78"
"1343","10872.21"
"1344","10878.78"
"1345","10835.07"
"1346","10776.81"
"1347","10746.18"
"1348","10767.11"
"1349","10810.51"
"1350","10837.71"
"1351","10822.82"
"1352","10790.38"
"1353","10777.45"
"1354","10810.86"
"1355","10862.7"
"1356","10886.75"
"1357","10845.15"
"1358","10760.81"
"1359","10683.46"
"1360","10658"
"1361","10679.7"
"1362","10715.4"
"1363","10733.3"
"1364","10724.76"
"1365","10698.08"
"1366","10661.91"
"1367","10624.36"
"1368","10592.97"
"1369","10575.04"
"1370","10570.08"
"1371","10568.7"
"1372","10561.17"
"1373","10547.11"
"1374","10539.36"
"1375","10551.61"
"1376","10585.44"
"1377","10621.02"
"1378","10636.43"
"1379","10620.75"
"1380","10586.88"
"1381","10550.83"
"1382","10524.07"
"1383","10506.08"
"1384","10494.4"
"1385","10487.04"
"1386","10483.65"
"1387","10484.23"
"1388","10488.17"
"1389","10492.6"
"1390","10494.06"
"1391","10490.81"
"1392","10489.14"
"1393","10497.73"
"1394","10521.93"
"1395","10547.89"
"1396","10554.98"
"1397","10527.5"
"1398","10483.11"
"1399","10453.44"
"1400","10465.17"
"1401","10504.73"
"1402","10539.07"
"1403","10539.07"
"1404","10513.99"
"1405","10494.37"
"1406","10507.4"
"1407","10539.69"
"1408","10552.32"
"1409","10509.91"
"1410","10429.22"
"1411","10363.85"
"1412","10364.68"
"1413","10428.08"
"1414","10507.52"
"1415","10557.39"
"1416","10570.28"
"1417","10571.92"
"1418","10587.97"
"1419","10619.7"
"1420","10645.15"
"1421","10642.41"
"1422","10612.63"
"1423","10580.69"
"1424","10572.07"
"1425","10597.04"
"1426","10649.03"
"1427","10720.29"
"1428","10792.7"
"1429","10835.92"
"1430","10819.95"
"1431","10753.16"
"1432","10692.05"
"1433","10695.03"
"1434","10773.73"
"1435","10878.14"
"1436","10954.77"
"1437","10982.99"
"1438","10987.31"
"1439","10995.21"
"1440","11018.1"
"1441","11044.63"
"1442","11061.82"
"1443","11062.49"
"1444","11047.95"
"1445","11020.24"
"1446","10985.9"
"1447","10958.09"
"1448","10950.28"
"1449","10963.04"
"1450","10977.65"
"1451","10974.02"
"1452","10944.22"
"1453","10898.51"
"1454","10848.63"
"1455","10805.52"
"1456","10778.97"
"1457","10778.35"
"1458","10797.18"
"1459","10805.78"
"1460","10773.2"
"1461","10696.66"
"1462","10613.61"
"1463","10563.89"
"1464","10556.33"
"1465","10556.83"
"1466","10528.84"
"1467","10463.96"
"1468","10391.21"
"1469","10341.68"
"1470","10324.92"
"1471","10323.26"
"1472","10317.63"
"1473","10300.35"
"1474","10277.48"
"1475","10255.84"
"1476","10242.33"
"1477","10243.92"
"1478","10266.82"
"1479","10298.61"
"1480","10307.37"
"1481","10261.94"
"1482","10168.71"
"1483","10070.31"
"1484","10009.1"
"1485","9993.003"
"1486","9999.513"
"1487","10006.18"
"1488","10009.22"
"1489","10019.85"
"1490","10048.26"
"1491","10084.72"
"1492","10104.96"
"1493","10086.82"
"1494","10036.46"
"1495","9978.473"
"1496","9935.64"
"1497","9909.821"
"1498","9890.856"
"1499","9869.956"
"1500","9851.299"
"1501","9845.575"
"1502","9860.987"
"1503","9887.493"
"1504","9907.095"
"1505","9905.382"
"1506","9889.859"
"1507","9876.215"
"1508","9875.709"
"1509","9877.166"
"1510","9862.331"
"1511","9822.064"
"1512","9785.691"
"1513","9792.673"
"1514","9863.053"
"1515","9949.197"
"1516","9988.739"
"1517","9947.64"
"1518","9872.962"
"1519","9826.128"
"1520","9838.989"
"1521","9874.054"
"1522","9884.112"
"1523","9848.97"
"1524","9800.201"
"1525","9774.844"
"1526","9784.476"
"1527","9800.94"
"1528","9793.355"
"1529","9758.65"
"1530","9729.008"
"1531","9737.542"
"1532","9784.146"
"1533","9834.683"
"1534","9855.172"
"1535","9840.321"
"1536","9808.409"
"1537","9777.726"
"1538","9758.194"
"1539","9754.302"
"1540","9769.05"
"1541","9793.539"
"1542","9812.775"
"1543","9814.006"
"1544","9799.183"
"1545","9776.024"
"1546","9751.677"
"1547","9730.389"
"1548","9715.563"
"1549","9707.662"
"1550","9696.791"
"1551","9670.777"
"1552","9627.153"
"1553","9588.799"
"1554","9582.547"
"1555","9616.218"
"1556","9660.641"
"1557","9682.762"
"1558","9670.239"
"1559","9640.812"
"1560","9614.237"
"1561","9600.162"
"1562","9597.263"
"1563","9603.383"
"1564","9611.815"
"1565","9612.194"
"1566","9595.423"
"1567","9566.701"
"1568","9539.672"
"1569","9526.359"
"1570","9526.69"
"1571","9535.452"
"1572","9547.485"
"1573","9558"
"1574","9562.302"
"1575","9558.659"
"1576","9555.009"
"1577","9561.221"
"1578","9578.652"
"1579","9589.501"
"1580","9573.64"
"1581","9530.654"
"1582","9491.115"
"1583","9487.188"
"1584","9519.302"
"1585","9552.921"
"1586","9554.075"
"1587","9524.706"
"1588","9494.4"
"1589","9490.363"
"1590","9511.785"
"1591","9543.042"
"1592","9568.323"
"1593","9571.601"
"1594","9536.758"
"1595","9461.027"
"1596","9390.489"
"1597","9382.324"
"1598","9459.28"
"1599","9562.523"
"1600","9622.01"
"1601","9609.663"
"1602","9562.945"
"1603","9523.995"
"1604","9508.664"
"1605","9505.486"
"1606","9502.581"
"1607","9499.205"
"1608","9502.249"
"1609","9517.146"
"1610","9537.47"
"1611","9551.523"
"1612","9551.882"
"1613","9550.121"
"1614","9563.06"
"1615","9596.601"
"1616","9627.168"
"1617","9626.541"
"1618","9590.775"
"1619","9556.838"
"1620","9564.176"
"1621","9613.217"
"1622","9662.642"
"1623","9672.206"
"1624","9640.981"
"1625","9594.643"
"1626","9556.829"
"1627","9533.715"
"1628","9524.226"
"1629","9527.594"
"1630","9544.353"
"1631","9575.337"
"1632","9615.519"
"1633","9646.484"
"1634","9648.37"
"1635","9621.572"
"1636","9594.462"
"1637","9595.54"
"1638","9619.503"
"1639","9632.568"
"1640","9606.045"
"1641","9562.182"
"1642","9548.943"
"1643","9599.846"
"1644","9680.582"
"1645","9737.312"
"1646","9741.581"
"1647","9730.32"
"1648","9750.188"
"1649","9810.344"
"1650","9864.402"
"1651","9864.108"
"1652","9810.025"
"1653","9745.189"
"1654","9710.271"
"1655","9713.523"
"1656","9746.94"
"1657","9799.446"
"1658","9847.076"
"1659","9862.309"
"1660","9827.063"
"1661","9745.58"
"1662","9625.874"
"1663","9497.505"
"1664","9418.465"
"1665","9442.825"
"1666","9539.717"
"1667","9614.791"
"1668","9589.533"
"1669","9502.351"
"1670","9439.66"
"1671","9459.703"
"1672","9524.106"
"1673","9574.182"
"1674","9575.124"
"1675","9534.962"
"1676","9466.512"
"1677","9389.947"
"1678","9332.629"
"1679","9318.598"
"1680","9338.727"
"1681","9366.299"
"1682","9378.166"
"1683","9367.512"
"1684","9331.967"
"1685","9276.937"
"1686","9224.649"
"1687","9198.888"
"1688","9203.025"
"1689","9217.13"
"1690","9221.13"
"1691","9207.37"
"1692","9175.667"
"1693","9128.36"
"1694","9079.448"
"1695","9046.438"
"1696","9036.342"
"1697","9031.703"
"1698","9012.219"
"1699","8978.623"
"1700","8956.595"
"1701","8970.594"
"1702","9015.891"
"1703","9069.978"
"1704","9114.006"
"1705","9147.775"
"1706","9176.565"
"1707","9198.254"
"1708","9194.358"
"1709","9145.351"
"1710","9064.012"
"1711","8998.577"
"1712","8992.521"
"1713","9027.104"
"1714","9049.613"
"1715","9023.999"
"1716","8983.506"
"1717","8978.638"
"1718","9023.985"
"1719","9067.215"
"1720","9051.854"
"1721","8984.778"
"1722","8930.291"
"1723","8943.602"
"1724","8999.911"
"1725","9039.801"
"1726","9023.876"
"1727","8974.532"
"1728","8925.699"
"1729","8899.116"
"1730","8899.401"
"1731","8928.613"
"1732","8973.022"
"1733","9008.373"
"1734","9016.737"
"1735","9011.559"
"1736","9015.573"
"1737","9035.543"
"1738","9045.343"
"1739","9016.509"
"1740","8957.378"
"1741","8911.204"
"1742","8915.719"
"1743","8959.437"
"1744","9009.665"
"1745","9040.013"
"1746","9042.585"
"1747","9013.193"
"1748","8963.134"
"1749","8923.26"
"1750","8922.282"
"1751","8954.786"
"1752","8995.888"
"1753","9023.768"
"1754","9029.277"
"1755","9006.461"
"1756","8962.743"
"1757","8926.755"
"1758","8926.243"
"1759","8952.171"
"1760","8969.661"
"1761","8951.603"
"1762","8909.975"
"1763","8868.128"
"1764","8842.339"
"1765","8835.573"
"1766","8848.547"
"1767","8869.285"
"1768","8875.541"
"1769","8851.563"
"1770","8818.265"
"1771","8808.742"
"1772","8836.403"
"1773","8873.704"
"1774","8889.19"
"1775","8874.477"
"1776","8841.339"
"1777","8801.631"
"1778","8763.643"
"1779","8734.414"
"1780","8721.362"
"1781","8732.698"
"1782","8775.62"
"1783","8836"
"1784","8880.774"
"1785","8882.189"
"1786","8846.949"
"1787","8793.978"
"1788","8742.086"
"1789","8709.757"
"1790","8714.085"
"1791","8748.095"
"1792","8784.402"
"1793","8800.39"
"1794","8802.325"
"1795","8805.898"
"1796","8816.396"
"1797","8819.14"
"1798","8799.005"
"1799","8767.876"
"1800","8758.197"
"1801","8792.84"
"1802","8848.497"
"1803","8888.892"
"1804","8892.721"
"1805","8863.319"
"1806","8808.004"
"1807","8753.473"
"1808","8738.864"
"1809","8786.016"
"1810","8852.475"
"1811","8882.007"
"1812","8859.982"
"1813","8826.986"
"1814","8821.437"
"1815","8830.357"
"1816","8814.854"
"1817","8756.607"
"1818","8694.74"
"1819","8676.573"
"1820","8709.059"
"1821","8758.322"
"1822","8792.76"
"1823","8805.508"
"1824","8798.806"
"1825","8776.4"
"1826","8744.981"
"1827","8711.461"
"1828","8680.931"
"1829","8657.154"
"1830","8644.269"
"1831","8647.927"
"1832","8673.797"
"1833","8711.669"
"1834","8729.989"
"1835","8701.46"
"1836","8645.901"
"1837","8605.915"
"1838","8607.503"
"1839","8634.799"
"1840","8666.043"
"1841","8689.544"
"1842","8702.397"
"1843","8702.573"
"1844","8690.81"
"1845","8668.774"
"1846","8644.565"
"1847","8636.012"
"1848","8658.553"
"1849","8698.459"
"1850","8726.571"
"1851","8725.828"
"1852","8711.484"
"1853","8703.405"
"1854","8708.483"
"1855","8722.078"
"1856","8738.945"
"1857","8752.944"
"1858","8757.745"
"1859","8750.987"
"1860","8736.039"
"1861","8715.95"
"1862","8687.44"
"1863","8644.195"
"1864","8588.339"
"1865","8541.676"
"1866","8527.739"
"1867","8553.27"
"1868","8612.121"
"1869","8690.542"
"1870","8747.526"
"1871","8737.124"
"1872","8662.322"
"1873","8583.139"
"1874","8554.359"
"1875","8578.978"
"1876","8640.628"
"1877","8715.511"
"1878","8767.066"
"1879","8762.052"
"1880","8712.419"
"1881","8655.36"
"1882","8617.359"
"1883","8596.661"
"1884","8587.737"
"1885","8595.802"
"1886","8634.673"
"1887","8705.115"
"1888","8758.116"
"1889","8735.148"
"1890","8641.436"
"1891","8552.914"
"1892","8534"
"1893","8566.318"
"1894","8604.06"
"1895","8620.094"
"1896","8615.435"
"1897","8594.699"
"1898","8572.221"
"1899","8566.741"
"1900","8585.955"
"1901","8615.406"
"1902","8638.27"
"1903","8640.974"
"1904","8611.924"
"1905","8554.816"
"1906","8513.158"
"1907","8532.498"
"1908","8591.265"
"1909","8616.255"
"1910","8563.036"
"1911","8488.438"
"1912","8467.742"
"1913","8515.108"
"1914","8586.646"
"1915","8641.971"
"1916","8665.624"
"1917","8649.297"
"1918","8604.062"
"1919","8563.133"
"1920","8553.827"
"1921","8566.543"
"1922","8580.063"
"1923","8582.543"
"1924","8574.75"
"1925","8558.389"
"1926","8535.48"
"1927","8508.242"
"1928","8482.61"
"1929","8470.231"
"1930","8479.881"
"1931","8496.455"
"1932","8494.771"
"1933","8469.724"
"1934","8450.879"
"1935","8466.251"
"1936","8503.706"
"1937","8532.011"
"1938","8532.491"
"1939","8510.364"
"1940","8475.085"
"1941","8449.808"
"1942","8464.575"
"1943","8519.962"
"1944","8557.528"
"1945","8520.958"
"1946","8440.079"
"1947","8391.132"
"1948","8410.957"
"1949","8453.661"
"1950","8468.257"
"1951","8454.455"
"1952","8439.939"
"1953","8439.426"
"1954","8439.833"
"1955","8426.115"
"1956","8398.056"
"1957","8363.597"
"1958","8327.854"
"1959","8289.925"
"1960","8249.753"
"1961","8221.652"
"1962","8227.562"
"1963","8276.075"
"1964","8349.29"
"1965","8425.176"
"1966","8473.57"
"1967","8460.458"
"1968","8385.997"
"1969","8313.313"
"1970","8302.448"
"1971","8335.646"
"1972","8359.212"
"1973","8348.287"
"1974","8326.772"
"1975","8318.983"
"1976","8319.792"
"1977","8312.05"
"1978","8293.958"
"1979","8286.661"
"1980","8306.093"
"1981","8326.33"
"1982","8307.114"
"1983","8244.953"
"1984","8184.022"
"1985","8162.212"
"1986","8170.317"
"1987","8185.149"
"1988","8197.379"
"1989","8212.925"
"1990","8236.55"
"1991","8265.189"
"1992","8293.592"
"1993","8312.6"
"1994","8309.482"
"1995","8276.538"
"1996","8222.662"
"1997","8160.604"
"1998","8110.175"
"1999","8096.376"
"2000","8125.891"
"2001","8159.374"
"2002","8155.054"
"2003","8119.201"
"2004","8085.748"
"2005","8068.855"
"2006","8044.161"
"2007","7991.408"
"2008","7951.847"
"2009","7992.448"
"2010","8106.997"
"2011","8183.331"
"2012","8131.779"
"2013","8023.088"
"2014","7976.149"
"2015","8013.396"
"2016","8053.657"
"2017","8036.432"
"2018","7995.228"
"2019","7981.567"
"2020","7995.831"
"2021","7998.593"
"2022","7968.706"
"2023","7933.455"
"2024","7925.184"
"2025","7952.912"
"2026","8012.631"
"2027","8080.12"
"2028","8096.834"
"2029","8019.146"
"2030","7913.584"
"2031","7884.597"
"2032","7944.258"
"2033","7996.821"
"2034","7968.276"
"2035","7891.158"
"2036","7821.288"
"2037","7782.44"
"2038","7773.423"
"2039","7787.264"
"2040","7804.802"
"2041","7807.006"
"2042","7791.631"
"2043","7764.988"
"2044","7739.994"
"2045","7739.404"
"2046","7776.616"
"2047","7814.709"
"2048","7803.609"
"2049","7744.189"
"2050","7685.672"
"2051","7662.421"
"2052","7660.373"
"2053","7659.39"
"2054","7665.544"
"2055","7699.828"
"2056","7758.662"
"2057","7796.748"
"2058","7773.334"
"2059","7694.841"
"2060","7584.329"
"2061","7481.953"
"2062","7444.907"
"2063","7497.854"
"2064","7567.372"
"2065","7572.271"
"2066","7535.943"
"2067","7541.178"
"2068","7605.135"
"2069","7637.031"
"2070","7562.076"
"2071","7436.571"
"2072","7354.253"
"2073","7336.126"
"2074","7337.085"
"2075","7332.732"
"2076","7358.174"
"2077","7446.836"
"2078","7539.91"
"2079","7535.32"
"2080","7429.3"
"2081","7351.669"
"2082","7398.037"
"2083","7490.437"
"2084","7515.258"
"2085","7458.546"
"2086","7377.663"
"2087","7315.863"
"2088","7285.927"
"2089","7292.187"
"2090","7310.019"
"2091","7305.71"
"2092","7275.839"
"2093","7246.7"
"2094","7236.83"
"2095","7240.711"
"2096","7249.887"
"2097","7264.209"
"2098","7287.293"
"2099","7313.218"
"2100","7323.88"
"2101","7307.108"
"2102","7274.344"
"2103","7240.23"
"2104","7197.806"
"2105","7127.346"
"2106","7042.939"
"2107","7012.28"
"2108","7080.89"
"2109","7176.121"
"2110","7199.686"
"2111","7149.257"
"2112","7092.896"
"2113","7067.697"
"2114","7049.868"
"2115","7015.912"
"2116","6978.392"
"2117","6960.037"
"2118","6958.819"
"2119","6952.081"
"2120","6932.151"
"2121","6924.127"
"2122","6949.723"
"2123","6987.143"
"2124","7000.353"
"2125","6979.56"
"2126","6938.744"
"2127","6899.17"
"2128","6896.311"
"2129","6949.73"
"2130","6970.577"
"2131","6837.72"
"2132","6605.195"
"2133","6489.553"
"2134","6599.133"
"2135","6782.82"
"2136","6877.298"
"2137","6863.942"
"2138","6779.376"
"2139","6687.398"
"2140","6676.101"
"2141","6760.942"
"2142","6797.668"
"2143","6664.475"
"2144","6487.255"
"2145","6467.415"
"2146","6600.107"
"2147","6706.056"
"2148","6689.57"
"2149","6631.953"
"2150","6615.611"
"2151","6622.907"
"2152","6607.133"
"2153","6554.088"
"2154","6474.128"
"2155","6388.37"
"2156","6335.305"
"2157","6338.34"
"2158","6349.829"
"2159","6312.168"
"2160","6268.672"
"2161","6324.551"
"2162","6480.833"
"2163","6588.69"
"2164","6542.33"
"2165","6419.622"
"2166","6327.225"
"2167","6287.24"
"2168","6278.778"
"2169","6274.754"
"2170","6241.56"
"2171","6173.385"
"2172","6135.919"
"2173","6186.775"
"2174","6263.417"
"2175","6263.496"
"2176","6193.557"
"2177","6152.57"
"2178","6184.356"
"2179","6224.914"
"2180","6217.783"
"2181","6189.818"
"2182","6187.341"
"2183","6224.333"
"2184","6293.863"
"2185","6345.077"
"2186","6270.393"
"2187","6036.793"
"2188","5835.317"
"2189","5852.819"
"2190","5976.606"
"2191","5981.831"
"2192","5857.665"
"2193","5781.316"
"2194","5826.232"
"2195","5862.254"
"2196","5784.913"
"2197","5686.417"
"2198","5694.966"
"2199","5794.602"
"2200","5889.471"
"2201","5933.623"
"2202","5940.23"
"2203","5914.651"
"2204","5835.309"
"2205","5693.451"
"2206","5570.981"
"2207","5570.484"
"2208","5662.994"
"2209","5728.26"
"2210","5716.853"
"2211","5682.416"
"2212","5661.797"
"2213","5619.449"
"2214","5520.365"
"2215","5418.83"
"2216","5399.281"
"2217","5457.992"
"2218","5520.648"
"2219","5544.204"
"2220","5538.543"
"2221","5516.737"
"2222","5486.955"
"2223","5456.525"
"2224","5433.594"
"2225","5425.723"
"2226","5423.786"
"2227","5404.745"
"2228","5361.821"
"2229","5315.591"
"2230","5285.973"
"2231","5282.148"
"2232","5304.374"
"2233","5306.155"
"2234","5227.411"
"2235","5113.813"
"2236","5096.206"
"2237","5189.973"
"2238","5227.108"
"2239","5100.29"
"2240","4935.741"
"2241","4876.026"
"2242","4887.407"
"2243","4875.679"
"2244","4850.062"
"2245","4893.539"
"2246","4985.479"
"2247","4962.198"
"2248","4759.103"
"2249","4593.054"
"2250","4657.097"
"2251","4792.024"
"2252","4753.143"
"2253","4584.876"
"2254","4500.94"
"2255","4553.059"
"2256","4612.216"
"2257","4595.422"
"2258","4531.203"
"2259","4454.237"
"2260","4371.455"
"2261","4283.57"
"2262","4194.102"
"2263","4108.222"
"2264","4036.961"
"2265","3996.037"
"2266","3993.205"
"2267","4024.34"
"2268","4067.249"
"2269","4054.753"
"2270","3935.278"
"2271","3772.684"
"2272","3657.82"
"2273","3591.802"
"2274","3527.069"
"2275","3465.105"
"2276","3455.803"
"2277","3498.07"
"2278","3499.945"
"2279","3404.069"
"2280","3286.901"
"2281","3234.342"
"2282","3239.741"
"2283","3263.228"
"2284","3257.63"
"2285","3173.236"
"2286","3012.27"
"2287","2831.533"
"2288","2684.567"
"2289","2614.269"
"2290","2632.803"
"2291","2660.255"
"2292","2620.19"
"2293","2556.399"
"2294","2543.982"
"2295","2548.439"
"2296","2474.082"
"2297","2320.817"
"2298","2183.121"
"2299","2101.409"
"2300","2021.216"
