,"Scan 01118"
"400","8376.231"
"401","8357.104"
"402","8335.033"
"403","8314.847"
"404","8296.447"
"405","8278.171"
"406","8258.354"
"407","8235.723"
"408","8211.984"
"409","8190.287"
"410","8173.757"
"411","8165.285"
"412","8164.91"
"413","8170.702"
"414","8180.695"
"415","8192.992"
"416","8206.788"
"417","8222.349"
"418","8239.978"
"419","8259.976"
"420","8282.487"
"421","8307.434"
"422","8334.732"
"423","8364.271"
"424","8393.781"
"425","8417.016"
"426","8427.336"
"427","8418.167"
"428","8388.148"
"429","8348.879"
"430","8313.88"
"431","8296.573"
"432","8305.437"
"433","8332.449"
"434","8366.167"
"435","8395.226"
"436","8410.396"
"437","8411.843"
"438","8402.365"
"439","8384.747"
"440","8361.509"
"441","8333.748"
"442","8302.022"
"443","8266.888"
"444","8229.421"
"445","8194.817"
"446","8170.163"
"447","8162.507"
"448","8177.595"
"449","8208.38"
"450","8240.448"
"451","8259.393"
"452","8252.145"
"453","8222.086"
"454","8184.102"
"455","8153.214"
"456","8143.535"
"457","8155.164"
"458","8176.558"
"459","8195.889"
"460","8201.877"
"461","8193.699"
"462","8180.691"
"463","8172.55"
"464","8178.532"
"465","8196.912"
"466","8213.708"
"467","8214.383"
"468","8184.879"
"469","8125.682"
"470","8055.655"
"471","7994.731"
"472","7962.451"
"473","7965.5"
"474","7992.498"
"475","8030.766"
"476","8067.778"
"477","8095.434"
"478","8112.442"
"479","8118.108"
"480","8111.75"
"481","8093.548"
"482","8065.116"
"483","8028.205"
"484","7984.577"
"485","7938.949"
"486","7901.292"
"487","7882.072"
"488","7891.603"
"489","7931.125"
"490","7984.988"
"491","8035.783"
"492","8066.269"
"493","8067.171"
"494","8044.461"
"495","8005.803"
"496","7958.805"
"497","7909.454"
"498","7860.622"
"499","7814.806"
"500","7774.481"
"501","7741.133"
"502","7714.335"
"503","7693.451"
"504","7677.829"
"505","7666.09"
"506","7655.429"
"507","7642.889"
"508","7625.543"
"509","7600.871"
"510","7567.095"
"511","7522.53"
"512","7465.552"
"513","7399.043"
"514","7333.835"
"515","7281.505"
"516","7253.444"
"517","7251.646"
"518","7262.646"
"519","7271.596"
"520","7263.901"
"521","7234.951"
"522","7195.317"
"523","7156.796"
"524","7130.965"
"525","7122.136"
"526","7124.567"
"527","7131.801"
"528","7137.47"
"529","7137.109"
"530","7128.614"
"531","7110.041"
"532","7079.671"
"533","7041.807"
"534","7007.386"
"535","6987.634"
"536","6993.176"
"537","7022.825"
"538","7064.033"
"539","7103.852"
"540","7129.883"
"541","7137.856"
"542","7130.234"
"543","7109.665"
"544","7078.842"
"545","7041.15"
"546","7000.454"
"547","6960.607"
"548","6925.432"
"549","6898.552"
"550","6883.473"
"551","6883.684"
"552","6901.221"
"553","6926.704"
"554","6945.35"
"555","6942.415"
"556","6906.88"
"557","6850.369"
"558","6793.064"
"559","6755.068"
"560","6751.715"
"561","6776.039"
"562","6814.486"
"563","6853.575"
"564","6882.29"
"565","6898.388"
"566","6901.622"
"567","6891.746"
"568","6870.504"
"569","6845.084"
"570","6823.564"
"571","6813.952"
"572","6819.646"
"573","6834.627"
"574","6851.748"
"575","6863.946"
"576","6867.273"
"577","6862.541"
"578","6850.965"
"579","6833.731"
"580","6811.412"
"581","6783.877"
"582","6750.958"
"583","6712.854"
"584","6676.099"
"585","6652.539"
"586","6654.142"
"587","6691.007"
"588","6753.593"
"589","6820.423"
"590","6869.939"
"591","6884.138"
"592","6869.566"
"593","6843.27"
"594","6822.271"
"595","6818.993"
"596","6824.593"
"597","6824.046"
"598","6802.39"
"599","6753.103"
"600","6695.754"
"601","6654.882"
"602","6654.817"
"603","6702.372"
"604","6768.311"
"605","6819.049"
"606","6821.696"
"607","6768.901"
"608","6688.619"
"609","6611.292"
"610","6566.17"
"611","6560.603"
"612","6581.641"
"613","6615.62"
"614","6649.566"
"615","6677.56"
"616","6697.999"
"617","6709.348"
"618","6710.712"
"619","6705.208"
"620","6697.503"
"621","6692.258"
"622","6692.262"
"623","6693.234"
"624","6689.227"
"625","6674.33"
"626","6646.675"
"627","6613.673"
"628","6584.007"
"629","6566.2"
"630","6562.245"
"631","6564.891"
"632","6566.21"
"633","6558.727"
"634","6542.969"
"635","6526.495"
"636","6517.075"
"637","6521.536"
"638","6538.237"
"639","6561.021"
"640","6583.702"
"641","6601.003"
"642","6612.083"
"643","6617.474"
"644","6617.707"
"645","6613.315"
"646","6604.843"
"647","6592.833"
"648","6577.846"
"649","6561.742"
"650","6548.439"
"651","6542.026"
"652","6546.331"
"653","6560.27"
"654","6578.236"
"655","6594.47"
"656","6603.718"
"657","6605.137"
"658","6600.2"
"659","6590.397"
"660","6577.858"
"661","6567.648"
"662","6565.651"
"663","6577.721"
"664","6604.461"
"665","6634.006"
"666","6652.707"
"667","6647.262"
"668","6616.624"
"669","6575.57"
"670","6539.889"
"671","6524.344"
"672","6530.524"
"673","6550.662"
"674","6576.815"
"675","6601.569"
"676","6620.609"
"677","6630.79"
"678","6628.974"
"679","6614.439"
"680","6593.581"
"681","6574.094"
"682","6563.562"
"683","6564.306"
"684","6570.753"
"685","6576.683"
"686","6576.206"
"687","6568.304"
"688","6555.801"
"689","6541.62"
"690","6528.844"
"691","6521.666"
"692","6524.708"
"693","6542.583"
"694","6575.628"
"695","6611.382"
"696","6635.025"
"697","6632.053"
"698","6602.356"
"699","6566.762"
"700","6547.701"
"701","6565.55"
"702","6612.998"
"703","6662.588"
"704","6686.468"
"705","6663.53"
"706","6610.108"
"707","6555.497"
"708","6528.909"
"709","6546.151"
"710","6589.81"
"711","6637.434"
"712","6667.089"
"713","6671.57"
"714","6660.948"
"715","6646.255"
"716","6637.658"
"717","6637.083"
"718","6641.861"
"719","6649.27"
"720","6657.199"
"721","6665.91"
"722","6676.247"
"723","6689.038"
"724","6703.207"
"725","6714.417"
"726","6718.016"
"727","6709.723"
"728","6691.085"
"729","6668.274"
"730","6647.583"
"731","6634.6"
"732","6630.975"
"733","6636.971"
"734","6652.837"
"735","6676.298"
"736","6699.206"
"737","6712.591"
"738","6707.886"
"739","6685.807"
"740","6656.569"
"741","6630.805"
"742","6618.099"
"743","6620.357"
"744","6636.058"
"745","6663.661"
"746","6699.226"
"747","6731.948"
"748","6749.816"
"749","6741.294"
"750","6709.786"
"751","6676.62"
"752","6664.152"
"753","6691.271"
"754","6746.98"
"755","6804.959"
"756","6838.8"
"757","6832.154"
"758","6800.705"
"759","6766.489"
"760","6751.134"
"761","6761.766"
"762","6786.899"
"763","6813.843"
"764","6830.896"
"765","6835.281"
"766","6828.984"
"767","6814.032"
"768","6793.378"
"769","6772.944"
"770","6759.243"
"771","6758.669"
"772","6773.434"
"773","6800.493"
"774","6836.476"
"775","6877.741"
"776","6918.346"
"777","6951.174"
"778","6969.116"
"779","6968.375"
"780","6954.919"
"781","6936.492"
"782","6920.755"
"783","6913.019"
"784","6915.946"
"785","6932.055"
"786","6962.672"
"787","7000.533"
"788","7034.617"
"789","7053.91"
"790","7052.666"
"791","7038.102"
"792","7019.38"
"793","7005.362"
"794","6998.906"
"795","6997.283"
"796","6997.548"
"797","6997.661"
"798","7000.595"
"799","7011.044"
"800","7033.656"
"801","7067.483"
"802","7101.02"
"803","7121.584"
"804","7117.69"
"805","7093.419"
"806","7063.883"
"807","7044.415"
"808","7045.431"
"809","7058.099"
"810","7068.871"
"811","7064.494"
"812","7043.827"
"813","7022.081"
"814","7015.615"
"815","7038.152"
"816","7081.82"
"817","7128.13"
"818","7158.551"
"819","7162.024"
"820","7146.576"
"821","7123.224"
"822","7102.684"
"823","7089.908"
"824","7084.673"
"825","7086.566"
"826","7094.859"
"827","7107.255"
"828","7120.982"
"829","7133.291"
"830","7142.946"
"831","7151.104"
"832","7159.124"
"833","7168.187"
"834","7177.73"
"835","7186.235"
"836","7192.174"
"837","7195.286"
"838","7198.796"
"839","7206.526"
"840","7221.929"
"841","7241.24"
"842","7254.031"
"843","7249.626"
"844","7221.332"
"845","7181.633"
"846","7148.778"
"847","7140.763"
"848","7162.421"
"849","7198.998"
"850","7234.154"
"851","7253.302"
"852","7256.454"
"853","7250.883"
"854","7243.909"
"855","7239.947"
"856","7236.541"
"857","7230.241"
"858","7218.029"
"859","7203.304"
"860","7194.433"
"861","7199.911"
"862","7224.383"
"863","7258.034"
"864","7287.655"
"865","7300.372"
"866","7293.213"
"867","7274.6"
"868","7253.587"
"869","7238.853"
"870","7236.899"
"871","7253.443"
"872","7294.089"
"873","7356.5"
"874","7425.065"
"875","7482.925"
"876","7514.921"
"877","7521.279"
"878","7510.368"
"879","7490.631"
"880","7469.932"
"881","7454.749"
"882","7451.37"
"883","7465.379"
"884","7492.657"
"885","7521.906"
"886","7541.667"
"887","7544.898"
"888","7539.427"
"889","7536.199"
"890","7545.685"
"891","7567.589"
"892","7590.939"
"893","7604.309"
"894","7599.805"
"895","7585.972"
"896","7576.11"
"897","7583.235"
"898","7609.083"
"899","7640.785"
"900","7664.491"
"901","7669.177"
"902","7661.388"
"903","7654.436"
"904","7661.492"
"905","7684.685"
"906","7707.876"
"907","7713.212"
"908","7686.23"
"909","7640.372"
"910","7602.778"
"911","7600.586"
"912","7644.174"
"913","7709.315"
"914","7767.497"
"915","7792.872"
"916","7788.041"
"917","7772.814"
"918","7767.222"
"919","7781.694"
"920","7802.399"
"921","7811.731"
"922","7793.674"
"923","7753.901"
"924","7713.771"
"925","7694.985"
"926","7710.526"
"927","7747.042"
"928","7786.215"
"929","7810.434"
"930","7814.299"
"931","7802.659"
"932","7780.681"
"933","7753.873"
"934","7728.942"
"935","7712.861"
"936","7712.202"
"937","7725.16"
"938","7741.949"
"939","7752.463"
"940","7749.515"
"941","7737.644"
"942","7724.333"
"943","7716.858"
"944","7717.188"
"945","7721.713"
"946","7726.553"
"947","7728.311"
"948","7725.735"
"949","7718.171"
"950","7705.095"
"951","7689.843"
"952","7680.147"
"953","7683.977"
"954","7706.461"
"955","7739.066"
"956","7769.152"
"957","7784.344"
"958","7781.005"
"959","7766.023"
"960","7746.91"
"961","7730.476"
"962","7719.967"
"963","7717.506"
"964","7725.077"
"965","7739.821"
"966","7752.852"
"967","7754.902"
"968","7739.62"
"969","7715.799"
"970","7697.15"
"971","7697.05"
"972","7716.582"
"973","7741.338"
"974","7755.921"
"975","7748.545"
"976","7726.295"
"977","7702.382"
"978","7689.773"
"979","7692.457"
"980","7703.2"
"981","7714.062"
"982","7718.581"
"983","7717.874"
"984","7715.464"
"985","7714.792"
"986","7716.435"
"987","7717.479"
"988","7714.801"
"989","7706.47"
"990","7696.343"
"991","7690.052"
"992","7693.049"
"993","7705.269"
"994","7720.254"
"995","7731.19"
"996","7733.839"
"997","7735.795"
"998","7748.028"
"999","7780.985"
"1000","7830.968"
"1001","7878.934"
"1002","7905.066"
"1003","7895.65"
"1004","7862.58"
"1005","7824.478"
"1006","7799.955"
"1007","7800.012"
"1008","7816.487"
"1009","7838.253"
"1010","7854.666"
"1011","7860.038"
"1012","7851.624"
"1013","7826.752"
"1014","7788.334"
"1015","7750.257"
"1016","7727.701"
"1017","7733.294"
"1018","7760.375"
"1019","7793.513"
"1020","7817.384"
"1021","7826.235"
"1022","7828.61"
"1023","7834.229"
"1024","7850.899"
"1025","7876.212"
"1026","7904.338"
"1027","7929.522"
"1028","7948.095"
"1029","7958.682"
"1030","7960.03"
"1031","7952.788"
"1032","7944.642"
"1033","7944.901"
"1034","7962.126"
"1035","7993.166"
"1036","8025.701"
"1037","8047.174"
"1038","8050.243"
"1039","8040.456"
"1040","8025.313"
"1041","8011.795"
"1042","8002.075"
"1043","7995.768"
"1044","7992.446"
"1045","7990.511"
"1046","7986.452"
"1047","7976.585"
"1048","7959.41"
"1049","7945.348"
"1050","7948.875"
"1051","7983.759"
"1052","8045.748"
"1053","8111.701"
"1054","8157.571"
"1055","8167.249"
"1056","8150.412"
"1057","8121.953"
"1058","8096.089"
"1059","8078.896"
"1060","8071.141"
"1061","8073.478"
"1062","8084.881"
"1063","8101.112"
"1064","8117.567"
"1065","8130.187"
"1066","8138.236"
"1067","8142.258"
"1068","8142.783"
"1069","8139.997"
"1070","8133.7"
"1071","8123.672"
"1072","8111.213"
"1073","8102.62"
"1074","8105.215"
"1075","8125.18"
"1076","8155.761"
"1077","8182.045"
"1078","8189.093"
"1079","8171.492"
"1080","8140.5"
"1081","8109.061"
"1082","8087.915"
"1083","8075.997"
"1084","8068.327"
"1085","8060.135"
"1086","8051.097"
"1087","8045.051"
"1088","8045.988"
"1089","8055.846"
"1090","8071.254"
"1091","8087.988"
"1092","8102.13"
"1093","8112.172"
"1094","8117.753"
"1095","8118.596"
"1096","8117.06"
"1097","8118.867"
"1098","8129.967"
"1099","8151.664"
"1100","8168.867"
"1101","8162.853"
"1102","8117.609"
"1103","8047.444"
"1104","7985.586"
"1105","7965.21"
"1106","7995.25"
"1107","8045.755"
"1108","8083.234"
"1109","8083.17"
"1110","8060.909"
"1111","8042.877"
"1112","8053.664"
"1113","8091.676"
"1114","8135.85"
"1115","8164.747"
"1116","8167.592"
"1117","8153.464"
"1118","8133.63"
"1119","8117.74"
"1120","8107.204"
"1121","8100.826"
"1122","8097.399"
"1123","8095.52"
"1124","8093.639"
"1125","8090.204"
"1126","8085.026"
"1127","8080.609"
"1128","8079.787"
"1129","8084.063"
"1130","8087.92"
"1131","8083.523"
"1132","8063.77"
"1133","8033.783"
"1134","8008.699"
"1135","8003.883"
"1136","8025.216"
"1137","8060.076"
"1138","8093.703"
"1139","8113.832"
"1140","8120.809"
"1141","8118.92"
"1142","8112.274"
"1143","8102.326"
"1144","8088.5"
"1145","8070.204"
"1146","8049.4"
"1147","8032.541"
"1148","8026.533"
"1149","8035.432"
"1150","8050.906"
"1151","8061.273"
"1152","8056.218"
"1153","8041.656"
"1154","8034.068"
"1155","8049.809"
"1156","8089.105"
"1157","8128.698"
"1158","8143.455"
"1159","8119.148"
"1160","8078.742"
"1161","8053.129"
"1162","8068.732"
"1163","8113.399"
"1164","8155.295"
"1165","8163.412"
"1166","8135.137"
"1167","8099.612"
"1168","8087.634"
"1169","8114.378"
"1170","8156.444"
"1171","8184.569"
"1172","8175.599"
"1173","8142.173"
"1174","8109.903"
"1175","8102.909"
"1176","8121.396"
"1177","8146.599"
"1178","8159.377"
"1179","8152.994"
"1180","8141.404"
"1181","8140.531"
"1182","8159.891"
"1183","8185.297"
"1184","8197.084"
"1185","8178.531"
"1186","8138.639"
"1187","8099.615"
"1188","8083.146"
"1189","8094.266"
"1190","8120.373"
"1191","8148.035"
"1192","8167.243"
"1193","8175.46"
"1194","8171.132"
"1195","8154.496"
"1196","8134.298"
"1197","8121.811"
"1198","8127.11"
"1199","8146.955"
"1200","8169.839"
"1201","8184.373"
"1202","8187.583"
"1203","8186.825"
"1204","8190.071"
"1205","8201.261"
"1206","8214.428"
"1207","8222.114"
"1208","8218.626"
"1209","8207.446"
"1210","8195.018"
"1211","8187.393"
"1212","8186.048"
"1213","8189.5"
"1214","8196.254"
"1215","8206.349"
"1216","8221.717"
"1217","8244.394"
"1218","8273.271"
"1219","8299.803"
"1220","8314.349"
"1221","8310.285"
"1222","8295.459"
"1223","8282.061"
"1224","8281.03"
"1225","8290.574"
"1226","8301.472"
"1227","8304.622"
"1228","8296.906"
"1229","8281.623"
"1230","8262.404"
"1231","8243.981"
"1232","8233.271"
"1233","8237.453"
"1234","8259.997"
"1235","8290.348"
"1236","8314.622"
"1237","8320.932"
"1238","8312.387"
"1239","8298.886"
"1240","8290.15"
"1241","8292.346"
"1242","8308.742"
"1243","8342.381"
"1244","8389.107"
"1245","8434.452"
"1246","8463.155"
"1247","8465.992"
"1248","8449.232"
"1249","8421.597"
"1250","8391.264"
"1251","8363.785"
"1252","8343.94"
"1253","8335.781"
"1254","8336.752"
"1255","8340.767"
"1256","8341.976"
"1257","8339.9"
"1258","8338.955"
"1259","8343.66"
"1260","8354.012"
"1261","8363.045"
"1262","8363.2"
"1263","8351.37"
"1264","8336.154"
"1265","8328.076"
"1266","8335.402"
"1267","8355.91"
"1268","8384.32"
"1269","8415.332"
"1270","8443.489"
"1271","8463.255"
"1272","8469.512"
"1273","8464.104"
"1274","8454.597"
"1275","8448.556"
"1276","8446.523"
"1277","8439.759"
"1278","8418.911"
"1279","8381.813"
"1280","8341.687"
"1281","8313.748"
"1282","8308.253"
"1283","8317.761"
"1284","8330.897"
"1285","8337.856"
"1286","8338.273"
"1287","8335.291"
"1288","8331.798"
"1289","8328.088"
"1290","8322.908"
"1291","8315.089"
"1292","8305.54"
"1293","8297.075"
"1294","8292.585"
"1295","8294.533"
"1296","8304.807"
"1297","8325.233"
"1298","8354.313"
"1299","8383.362"
"1300","8402.746"
"1301","8406.236"
"1302","8399.155"
"1303","8389.285"
"1304","8382.986"
"1305","8379.023"
"1306","8373.619"
"1307","8363.687"
"1308","8352.116"
"1309","8344.843"
"1310","8347.367"
"1311","8358.426"
"1312","8371.644"
"1313","8380.601"
"1314","8381.039"
"1315","8371.078"
"1316","8349.066"
"1317","8319.882"
"1318","8298.758"
"1319","8301.805"
"1320","8333.557"
"1321","8371.866"
"1322","8390.839"
"1323","8374.248"
"1324","8338.642"
"1325","8307.511"
"1326","8299.942"
"1327","8312.954"
"1328","8336.687"
"1329","8361.209"
"1330","8376.133"
"1331","8370.857"
"1332","8336.6"
"1333","8284.996"
"1334","8240.554"
"1335","8226.704"
"1336","8243.981"
"1337","8273.133"
"1338","8294.646"
"1339","8301.681"
"1340","8302.25"
"1341","8305.09"
"1342","8310.849"
"1343","8307.389"
"1344","8281.494"
"1345","8232.179"
"1346","8184.584"
"1347","8167.224"
"1348","8196.241"
"1349","8251.811"
"1350","8307.608"
"1351","8342.746"
"1352","8357.862"
"1353","8358.918"
"1354","8351.28"
"1355","8337.161"
"1356","8317.711"
"1357","8294.842"
"1358","8275.943"
"1359","8270.832"
"1360","8287.16"
"1361","8310.948"
"1362","8315.841"
"1363","8277.934"
"1364","8209.645"
"1365","8149.909"
"1366","8136.406"
"1367","8169.335"
"1368","8214.423"
"1369","8237.026"
"1370","8230.679"
"1371","8221.253"
"1372","8235.926"
"1373","8278.005"
"1374","8316.822"
"1375","8319.354"
"1376","8274.744"
"1377","8211.055"
"1378","8160.244"
"1379","8141.399"
"1380","8145.795"
"1381","8161.081"
"1382","8176.33"
"1383","8184.415"
"1384","8178.825"
"1385","8158.621"
"1386","8140.899"
"1387","8146.422"
"1388","8186.776"
"1389","8237.356"
"1390","8264.623"
"1391","8243.596"
"1392","8190.165"
"1393","8132.361"
"1394","8094.814"
"1395","8082.606"
"1396","8093.897"
"1397","8124.993"
"1398","8159.585"
"1399","8176.123"
"1400","8156.948"
"1401","8116.049"
"1402","8082.706"
"1403","8082.79"
"1404","8108.531"
"1405","8133.521"
"1406","8133.5"
"1407","8110.726"
"1408","8084.146"
"1409","8071.729"
"1410","8075.078"
"1411","8084.209"
"1412","8089.37"
"1413","8088.054"
"1414","8083.464"
"1415","8079.015"
"1416","8079.04"
"1417","8088.68"
"1418","8112.508"
"1419","8142.672"
"1420","8159.509"
"1421","8143.874"
"1422","8100.749"
"1423","8059.973"
"1424","8051.673"
"1425","8081.561"
"1426","8128.282"
"1427","8169.349"
"1428","8191.538"
"1429","8192.577"
"1430","8171.13"
"1431","8136.331"
"1432","8110.448"
"1433","8116.16"
"1434","8158.185"
"1435","8217.61"
"1436","8274.014"
"1437","8312.506"
"1438","8325.789"
"1439","8307.423"
"1440","8265.726"
"1441","8229.965"
"1442","8230.508"
"1443","8271.135"
"1444","8316.92"
"1445","8330.364"
"1446","8300.722"
"1447","8256.87"
"1448","8230.573"
"1449","8234.97"
"1450","8255.378"
"1451","8274.936"
"1452","8282.944"
"1453","8277.931"
"1454","8259.252"
"1455","8230.805"
"1456","8203.226"
"1457","8187.516"
"1458","8185.617"
"1459","8186.219"
"1460","8177.17"
"1461","8157.403"
"1462","8141.661"
"1463","8145.523"
"1464","8167.313"
"1465","8181.529"
"1466","8161.465"
"1467","8103.982"
"1468","8037.232"
"1469","7990.996"
"1470","7974.543"
"1471","7971.165"
"1472","7962.84"
"1473","7943.771"
"1474","7922.781"
"1475","7909.265"
"1476","7903.931"
"1477","7897.717"
"1478","7881.262"
"1479","7850.937"
"1480","7809.103"
"1481","7758.742"
"1482","7709.982"
"1483","7679.864"
"1484","7684.659"
"1485","7720.638"
"1486","7766.359"
"1487","7800.403"
"1488","7812.037"
"1489","7799.136"
"1490","7761.142"
"1491","7715.737"
"1492","7693.849"
"1493","7722.72"
"1494","7782.585"
"1495","7823.194"
"1496","7800.146"
"1497","7733.018"
"1498","7678.132"
"1499","7685.061"
"1500","7742.236"
"1501","7807.338"
"1502","7842.042"
"1503","7838.556"
"1504","7802.378"
"1505","7742.416"
"1506","7687.756"
"1507","7675.029"
"1508","7728.558"
"1509","7810.308"
"1510","7862.551"
"1511","7843.352"
"1512","7777.443"
"1513","7707.122"
"1514","7665.789"
"1515","7655.756"
"1516","7672.576"
"1517","7708.083"
"1518","7743.488"
"1519","7758.141"
"1520","7742.281"
"1521","7711.687"
"1522","7685.731"
"1523","7674.59"
"1524","7670.829"
"1525","7665.088"
"1526","7652.331"
"1527","7634.272"
"1528","7613.232"
"1529","7592.1"
"1530","7574.49"
"1531","7563.841"
"1532","7558.215"
"1533","7550.164"
"1534","7532.732"
"1535","7511.387"
"1536","7501.795"
"1537","7518.277"
"1538","7555.514"
"1539","7595.374"
"1540","7620.612"
"1541","7623.753"
"1542","7602.3"
"1543","7556.766"
"1544","7506.614"
"1545","7478.773"
"1546","7492.705"
"1547","7532.211"
"1548","7570.506"
"1549","7587.162"
"1550","7584.289"
"1551","7568.962"
"1552","7550.101"
"1553","7541.414"
"1554","7557.284"
"1555","7598.843"
"1556","7641.43"
"1557","7657.786"
"1558","7640.865"
"1559","7612.984"
"1560","7598.009"
"1561","7598.571"
"1562","7594.26"
"1563","7565.164"
"1564","7518.203"
"1565","7481.911"
"1566","7482.243"
"1567","7511.869"
"1568","7543.806"
"1569","7554.221"
"1570","7543.115"
"1571","7520.591"
"1572","7496.257"
"1573","7477.123"
"1574","7469.432"
"1575","7475.385"
"1576","7483.973"
"1577","7481.515"
"1578","7462.279"
"1579","7438.441"
"1580","7424.508"
"1581","7426.852"
"1582","7439.075"
"1583","7453.797"
"1584","7467.628"
"1585","7481.575"
"1586","7496.647"
"1587","7510.526"
"1588","7518.334"
"1589","7515.975"
"1590","7507.031"
"1591","7499.154"
"1592","7498.018"
"1593","7497.863"
"1594","7488.879"
"1595","7466.773"
"1596","7447.463"
"1597","7451.459"
"1598","7485.706"
"1599","7525.02"
"1600","7539.79"
"1601","7516.705"
"1602","7467.899"
"1603","7407.87"
"1604","7354.426"
"1605","7328.814"
"1606","7349.977"
"1607","7405.284"
"1608","7460.394"
"1609","7485.802"
"1610","7490.723"
"1611","7501.567"
"1612","7535.941"
"1613","7572.122"
"1614","7577.525"
"1615","7535.566"
"1616","7472.884"
"1617","7423.183"
"1618","7405.806"
"1619","7415.866"
"1620","7446"
"1621","7485.127"
"1622","7518.193"
"1623","7530.979"
"1624","7522.313"
"1625","7499.842"
"1626","7472.286"
"1627","7454.393"
"1628","7463.434"
"1629","7507.001"
"1630","7554.697"
"1631","7566.897"
"1632","7526.484"
"1633","7467.995"
"1634","7432.649"
"1635","7436.4"
"1636","7460.275"
"1637","7483.536"
"1638","7499.333"
"1639","7512.531"
"1640","7527.297"
"1641","7538.764"
"1642","7537.503"
"1643","7517.304"
"1644","7487.004"
"1645","7459.783"
"1646","7445.136"
"1647","7443.043"
"1648","7452"
"1649","7471.249"
"1650","7501.147"
"1651","7541.65"
"1652","7583.731"
"1653","7610.546"
"1654","7607.9"
"1655","7586.292"
"1656","7568.625"
"1657","7571.91"
"1658","7586.74"
"1659","7596.442"
"1660","7589.425"
"1661","7566.129"
"1662","7528.859"
"1663","7485.047"
"1664","7448.893"
"1665","7433.916"
"1666","7436.984"
"1667","7442.53"
"1668","7436.818"
"1669","7420.496"
"1670","7400.113"
"1671","7380.498"
"1672","7360.539"
"1673","7337.919"
"1674","7315.49"
"1675","7305.336"
"1676","7319.658"
"1677","7351.415"
"1678","7374.725"
"1679","7366.016"
"1680","7329.993"
"1681","7286.363"
"1682","7252.784"
"1683","7237.306"
"1684","7245.338"
"1685","7273.039"
"1686","7296.489"
"1687","7289.792"
"1688","7247.557"
"1689","7187.8"
"1690","7129.082"
"1691","7081.847"
"1692","7051.648"
"1693","7042.611"
"1694","7052.229"
"1695","7075.978"
"1696","7106.235"
"1697","7128.185"
"1698","7126.477"
"1699","7102.294"
"1700","7076.406"
"1701","7068.479"
"1702","7073.632"
"1703","7072.037"
"1704","7050.443"
"1705","7027.828"
"1706","7032.633"
"1707","7075.463"
"1708","7127.416"
"1709","7155.083"
"1710","7148.111"
"1711","7121.446"
"1712","7090.731"
"1713","7065.732"
"1714","7053.03"
"1715","7056.965"
"1716","7072.923"
"1717","7093.98"
"1718","7110.488"
"1719","7107.745"
"1720","7071.847"
"1721","7015.653"
"1722","6976.28"
"1723","6984.755"
"1724","7022.241"
"1725","7048.323"
"1726","7036.371"
"1727","7002.267"
"1728","6969.853"
"1729","6955.792"
"1730","6966.656"
"1731","7006.429"
"1732","7056.712"
"1733","7084.17"
"1734","7064.596"
"1735","7019.025"
"1736","6981.959"
"1737","6975.409"
"1738","6995.624"
"1739","7035.049"
"1740","7073.237"
"1741","7077.497"
"1742","7023.004"
"1743","6944.235"
"1744","6901.22"
"1745","6928.188"
"1746","6984.713"
"1747","7017.918"
"1748","7010.561"
"1749","6990.446"
"1750","6985.332"
"1751","6993.498"
"1752","6996.416"
"1753","6980.864"
"1754","6954.608"
"1755","6930.328"
"1756","6915.629"
"1757","6910.058"
"1758","6912.195"
"1759","6917.363"
"1760","6918.591"
"1761","6910.507"
"1762","6895.491"
"1763","6878.2"
"1764","6863.918"
"1765","6859.097"
"1766","6869.473"
"1767","6887.024"
"1768","6892.604"
"1769","6872.969"
"1770","6848.479"
"1771","6850.64"
"1772","6890.691"
"1773","6937.709"
"1774","6957.295"
"1775","6948.804"
"1776","6941.095"
"1777","6956.395"
"1778","6972.838"
"1779","6952.962"
"1780","6888.119"
"1781","6831.968"
"1782","6842.915"
"1783","6913.884"
"1784","6979.659"
"1785","6985.102"
"1786","6944.885"
"1787","6898.369"
"1788","6872.307"
"1789","6866.799"
"1790","6878"
"1791","6891.81"
"1792","6885.443"
"1793","6845.211"
"1794","6807.117"
"1795","6823.242"
"1796","6906.111"
"1797","6992.388"
"1798","7014.954"
"1799","6979.169"
"1800","6945.539"
"1801","6960.301"
"1802","6997.975"
"1803","7012.956"
"1804","6983.034"
"1805","6924.45"
"1806","6857.4"
"1807","6806.062"
"1808","6797.187"
"1809","6841.709"
"1810","6892.418"
"1811","6890.09"
"1812","6832.545"
"1813","6793.278"
"1814","6838.528"
"1815","6927.389"
"1816","6964.895"
"1817","6901.31"
"1818","6813.125"
"1819","6794.922"
"1820","6854.76"
"1821","6913.214"
"1822","6902.49"
"1823","6848.083"
"1824","6809.678"
"1825","6818.755"
"1826","6850.961"
"1827","6876.929"
"1828","6888.951"
"1829","6895.021"
"1830","6899.46"
"1831","6890.639"
"1832","6853.385"
"1833","6790.636"
"1834","6729.69"
"1835","6696.864"
"1836","6696.148"
"1837","6720.725"
"1838","6758.979"
"1839","6787.586"
"1840","6783.307"
"1841","6758.304"
"1842","6755.647"
"1843","6804.179"
"1844","6860.463"
"1845","6860.629"
"1846","6793.104"
"1847","6725.627"
"1848","6723.487"
"1849","6768.883"
"1850","6800.106"
"1851","6782.039"
"1852","6750.873"
"1853","6752.16"
"1854","6787.484"
"1855","6819.345"
"1856","6818.454"
"1857","6800.189"
"1858","6792.467"
"1859","6802.464"
"1860","6807.388"
"1861","6786.97"
"1862","6760.78"
"1863","6767.686"
"1864","6823.628"
"1865","6890.821"
"1866","6925.566"
"1867","6911.212"
"1868","6851.843"
"1869","6759.867"
"1870","6676.934"
"1871","6650.294"
"1872","6684.337"
"1873","6733.492"
"1874","6757.905"
"1875","6769.748"
"1876","6800.294"
"1877","6857.12"
"1878","6906.62"
"1879","6915.19"
"1880","6889.674"
"1881","6859.483"
"1882","6843.673"
"1883","6834.075"
"1884","6818.876"
"1885","6797.01"
"1886","6776.008"
"1887","6760.951"
"1888","6746.835"
"1889","6726.604"
"1890","6702.398"
"1891","6686.568"
"1892","6689.073"
"1893","6704.04"
"1894","6720.25"
"1895","6725.489"
"1896","6706.066"
"1897","6654.55"
"1898","6612.096"
"1899","6641.866"
"1900","6754.719"
"1901","6856.809"
"1902","6853.593"
"1903","6778.207"
"1904","6740.895"
"1905","6801.705"
"1906","6886.515"
"1907","6905.066"
"1908","6852.235"
"1909","6788.344"
"1910","6762.173"
"1911","6777.739"
"1912","6828.686"
"1913","6887.295"
"1914","6905.558"
"1915","6852.328"
"1916","6771.17"
"1917","6723.932"
"1918","6728.557"
"1919","6752.822"
"1920","6766.876"
"1921","6767.553"
"1922","6760.144"
"1923","6746.806"
"1924","6725.495"
"1925","6697.092"
"1926","6682.148"
"1927","6708.089"
"1928","6768.107"
"1929","6802.732"
"1930","6761.321"
"1931","6688.313"
"1932","6668.461"
"1933","6724.95"
"1934","6774.665"
"1935","6737.877"
"1936","6647.296"
"1937","6589.039"
"1938","6607.141"
"1939","6665.758"
"1940","6722.197"
"1941","6751.738"
"1942","6738.985"
"1943","6684.29"
"1944","6619.291"
"1945","6577.4"
"1946","6572.955"
"1947","6609.897"
"1948","6676.086"
"1949","6726.331"
"1950","6717.979"
"1951","6672.882"
"1952","6648.441"
"1953","6671.746"
"1954","6705.535"
"1955","6708.625"
"1956","6680.238"
"1957","6641.851"
"1958","6612.415"
"1959","6605.103"
"1960","6628.979"
"1961","6661.783"
"1962","6664.658"
"1963","6626.572"
"1964","6591.705"
"1965","6602.713"
"1966","6633.083"
"1967","6621.636"
"1968","6549.648"
"1969","6477.117"
"1970","6463.246"
"1971","6494.186"
"1972","6522.365"
"1973","6528.255"
"1974","6539.732"
"1975","6581.375"
"1976","6623.984"
"1977","6616.732"
"1978","6558.186"
"1979","6520.681"
"1980","6562.651"
"1981","6624.596"
"1982","6606.44"
"1983","6503.355"
"1984","6433.987"
"1985","6492.376"
"1986","6609.618"
"1987","6669.736"
"1988","6642.974"
"1989","6594.457"
"1990","6577.882"
"1991","6580.823"
"1992","6575.155"
"1993","6551.038"
"1994","6515.3"
"1995","6479.158"
"1996","6465.804"
"1997","6497.633"
"1998","6551.328"
"1999","6569.928"
"2000","6528.735"
"2001","6485.629"
"2002","6502.208"
"2003","6548.157"
"2004","6540.381"
"2005","6453.976"
"2006","6376.7"
"2007","6392.905"
"2008","6468.328"
"2009","6517.42"
"2010","6505.113"
"2011","6469.692"
"2012","6446.884"
"2013","6429.029"
"2014","6395.322"
"2015","6346.649"
"2016","6307.195"
"2017","6296.177"
"2018","6310.431"
"2019","6341.303"
"2020","6373.777"
"2021","6387.908"
"2022","6378.036"
"2023","6374.556"
"2024","6407.473"
"2025","6450.202"
"2026","6445.56"
"2027","6376.412"
"2028","6294.837"
"2029","6250.573"
"2030","6237.73"
"2031","6230.772"
"2032","6232.464"
"2033","6278.604"
"2034","6384.235"
"2035","6478.376"
"2036","6475.219"
"2037","6377.782"
"2038","6258.267"
"2039","6174.258"
"2040","6143.67"
"2041","6174.7"
"2042","6241.838"
"2043","6302.776"
"2044","6327.523"
"2045","6304.945"
"2046","6234.878"
"2047","6163.498"
"2048","6148.26"
"2049","6181.413"
"2050","6193.335"
"2051","6140.997"
"2052","6065.088"
"2053","6018.24"
"2054","6021.424"
"2055","6076.957"
"2056","6163.202"
"2057","6218.614"
"2058","6192.644"
"2059","6116.094"
"2060","6045.963"
"2061","6010.256"
"2062","6007.995"
"2063","6032.078"
"2064","6061.14"
"2065","6073.786"
"2066","6075.36"
"2067","6086.205"
"2068","6098.339"
"2069","6057.442"
"2070","5929.459"
"2071","5803.749"
"2072","5801.637"
"2073","5909.703"
"2074","5992.083"
"2075","5971.462"
"2076","5932.957"
"2077","5971.424"
"2078","6047.762"
"2079","6058.761"
"2080","5984.583"
"2081","5918.944"
"2082","5933.678"
"2083","5981.593"
"2084","5991.508"
"2085","5966.284"
"2086","5961.546"
"2087","5995.389"
"2088","6011.033"
"2089","5959.53"
"2090","5887.431"
"2091","5872.464"
"2092","5921.677"
"2093","5972.782"
"2094","5981.738"
"2095","5961.038"
"2096","5930.876"
"2097","5898.379"
"2098","5864.435"
"2099","5832.627"
"2100","5810.011"
"2101","5799.612"
"2102","5789.54"
"2103","5766.618"
"2104","5739.478"
"2105","5729.951"
"2106","5746.176"
"2107","5774.33"
"2108","5799.971"
"2109","5814.648"
"2110","5811.534"
"2111","5784.283"
"2112","5726.992"
"2113","5644.019"
"2114","5558.795"
"2115","5497.762"
"2116","5491.537"
"2117","5567.66"
"2118","5677.109"
"2119","5707.162"
"2120","5614.954"
"2121","5508.283"
"2122","5491.479"
"2123","5537.975"
"2124","5576.879"
"2125","5584.594"
"2126","5580.323"
"2127","5583.197"
"2128","5608.621"
"2129","5661.787"
"2130","5688.917"
"2131","5619.082"
"2132","5485.017"
"2133","5415.638"
"2134","5475.215"
"2135","5573.093"
"2136","5609.14"
"2137","5556.513"
"2138","5419.332"
"2139","5274.389"
"2140","5264.054"
"2141","5423.963"
"2142","5552.641"
"2143","5469.209"
"2144","5288.652"
"2145","5220.009"
"2146","5294.854"
"2147","5394.426"
"2148","5437.189"
"2149","5425.178"
"2150","5371.76"
"2151","5297.882"
"2152","5226.845"
"2153","5180.257"
"2154","5178.238"
"2155","5220.479"
"2156","5271.583"
"2157","5301.616"
"2158","5318.651"
"2159","5338.16"
"2160","5345.929"
"2161","5309.608"
"2162","5231.08"
"2163","5161.406"
"2164","5132.717"
"2165","5100.835"
"2166","5018.059"
"2167","4943.892"
"2168","4988.168"
"2169","5140.653"
"2170","5255.352"
"2171","5238.664"
"2172","5149.226"
"2173","5061.118"
"2174","4995.53"
"2175","4953.438"
"2176","4933.412"
"2177","4932.004"
"2178","4945.424"
"2179","4969.394"
"2180","4998.224"
"2181","5020.498"
"2182","5025"
"2183","5019.697"
"2184","5023.531"
"2185","5025.329"
"2186","4974.5"
"2187","4853.068"
"2188","4743.891"
"2189","4729.851"
"2190","4771.924"
"2191","4784.592"
"2192","4753.553"
"2193","4727.12"
"2194","4722.52"
"2195","4695.631"
"2196","4619.939"
"2197","4568.555"
"2198","4626.862"
"2199","4748.274"
"2200","4814.083"
"2201","4785.21"
"2202","4716.209"
"2203","4654.409"
"2204","4616.57"
"2205","4611.826"
"2206","4632.257"
"2207","4662.515"
"2208","4665.494"
"2209","4590.29"
"2210","4461.055"
"2211","4408.471"
"2212","4501.884"
"2213","4606.327"
"2214","4578.017"
"2215","4460.087"
"2216","4365.554"
"2217","4335.021"
"2218","4350.422"
"2219","4377.385"
"2220","4358.436"
"2221","4268.542"
"2222","4195.109"
"2223","4231.07"
"2224","4345.563"
"2225","4456.073"
"2226","4507.683"
"2227","4469.756"
"2228","4364.507"
"2229","4299.302"
"2230","4343.832"
"2231","4417.136"
"2232","4420.209"
"2233","4345.703"
"2234","4226.638"
"2235","4120.497"
"2236","4103.408"
"2237","4165.954"
"2238","4164.969"
"2239","4019.127"
"2240","3870.91"
"2241","3871.728"
"2242","3961.644"
"2243","4006.882"
"2244","3980.125"
"2245","3932.015"
"2246","3894.443"
"2247","3871.277"
"2248","3859.289"
"2249","3842.149"
"2250","3804.26"
"2251","3744.695"
"2252","3669.041"
"2253","3602.554"
"2254","3581.033"
"2255","3601.168"
"2256","3616.531"
"2257","3598.185"
"2258","3556.953"
"2259","3503.494"
"2260","3429.589"
"2261","3327.912"
"2262","3231.996"
"2263","3191.545"
"2264","3213.264"
"2265","3268.023"
"2266","3311.787"
"2267","3280.54"
"2268","3154.485"
"2269","3035.008"
"2270","3017.802"
"2271","3069.802"
"2272","3119.063"
"2273","3106.427"
"2274","2983.683"
"2275","2788.802"
"2276","2644.04"
"2277","2603.413"
"2278","2597.589"
"2279","2570.439"
"2280","2543.795"
"2281","2544.046"
"2282","2539.085"
"2283","2483.673"
"2284","2414.974"
"2285","2416.829"
"2286","2463.764"
"2287","2415.842"
"2288","2229.091"
"2289","2040.015"
"2290","1964.247"
"2291","1993.886"
"2292","2082.353"
"2293","2101.134"
"2294","1917.849"
"2295","1660.837"
"2296","1602.173"
"2297","1744.271"
"2298","1823.013"
"2299","1720.229"
"2300","1574.766"
