,"Scan 01137"
"400","12277.01"
"401","12253.55"
"402","12240.75"
"403","12243.37"
"404","12256.41"
"405","12271.77"
"406","12281.43"
"407","12278.15"
"408","12260.79"
"409","12231.19"
"410","12191.14"
"411","12142.73"
"412","12091.42"
"413","12045.05"
"414","12011.42"
"415","11997.99"
"416","12004.92"
"417","12025.28"
"418","12051.92"
"419","12077.82"
"420","12100.06"
"421","12121.22"
"422","12144.25"
"423","12172.06"
"424","12204.7"
"425","12237.03"
"426","12263.33"
"427","12277.99"
"428","12277.82"
"429","12265.81"
"430","12245.85"
"431","12221.8"
"432","12197.22"
"433","12174.73"
"434","12156.71"
"435","12145.54"
"436","12142.83"
"437","12146.91"
"438","12155.13"
"439","12164.91"
"440","12173.55"
"441","12177.86"
"442","12174.46"
"443","12160.01"
"444","12132.4"
"445","12099.3"
"446","12072.86"
"447","12065.21"
"448","12086.22"
"449","12124.12"
"450","12154.63"
"451","12153.5"
"452","12099.09"
"453","12002.27"
"454","11896.63"
"455","11816.03"
"456","11792.15"
"457","11823.45"
"458","11880.79"
"459","11934.34"
"460","11955.52"
"461","11938.53"
"462","11899.74"
"463","11856.33"
"464","11824.97"
"465","11810.49"
"466","11804.54"
"467","11798.14"
"468","11782.53"
"469","11756.67"
"470","11729.19"
"471","11709.31"
"472","11706"
"473","11719.83"
"474","11739.58"
"475","11753.18"
"476","11748.81"
"477","11724.19"
"478","11691.88"
"479","11665.58"
"480","11658.82"
"481","11676.24"
"482","11707.61"
"483","11741.39"
"484","11766.1"
"485","11774.4"
"486","11766.15"
"487","11741.96"
"488","11702.47"
"489","11651.55"
"490","11599.08"
"491","11555.58"
"492","11531.42"
"493","11529.43"
"494","11537.98"
"495","11543.88"
"496","11534.04"
"497","11501.41"
"498","11450.67"
"499","11387.8"
"500","11318.75"
"501","11249.49"
"502","11186.06"
"503","11134.47"
"504","11100.66"
"505","11085.07"
"506","11077.65"
"507","11067.25"
"508","11042.8"
"509","10999.63"
"510","10944.79"
"511","10886.55"
"512","10833.12"
"513","10789.5"
"514","10755.11"
"515","10728.82"
"516","10709.5"
"517","10696.67"
"518","10690.87"
"519","10692.75"
"520","10702.9"
"521","10717.86"
"522","10728.12"
"523","10723.66"
"524","10694.77"
"525","10643.05"
"526","10585.72"
"527","10541.08"
"528","10526.91"
"529","10544.94"
"530","10577.04"
"531","10603.87"
"532","10606.77"
"533","10582.42"
"534","10544.42"
"535","10507.15"
"536","10484.3"
"537","10475.59"
"538","10467.32"
"539","10445.3"
"540","10396.5"
"541","10326.1"
"542","10254.34"
"543","10201.81"
"544","10187.45"
"545","10209.69"
"546","10252.63"
"547","10300.11"
"548","10337.06"
"549","10358.08"
"550","10363.5"
"551","10353.69"
"552","10329.35"
"553","10293.87"
"554","10251.9"
"555","10208.05"
"556","10167.13"
"557","10135.12"
"558","10118.42"
"559","10123.42"
"560","10153.27"
"561","10195.96"
"562","10235"
"563","10254"
"564","10241.92"
"565","10207.05"
"566","10161.95"
"567","10119.18"
"568","10088.12"
"569","10069.79"
"570","10063.76"
"571","10069.61"
"572","10085.18"
"573","10104.77"
"574","10122.28"
"575","10131.69"
"576","10130.24"
"577","10120.11"
"578","10103.94"
"579","10084.35"
"580","10064.56"
"581","10048.51"
"582","10040.13"
"583","10043.08"
"584","10056.07"
"585","10073.71"
"586","10090.49"
"587","10101.36"
"588","10106.32"
"589","10108.41"
"590","10110.68"
"591","10115.52"
"592","10120.57"
"593","10121.44"
"594","10113.77"
"595","10094.88"
"596","10070.08"
"597","10046.96"
"598","10033.1"
"599","10032.48"
"600","10037.97"
"601","10040.35"
"602","10030.47"
"603","10005.93"
"604","9978.278"
"605","9960.729"
"606","9966.148"
"607","9993.773"
"608","10024"
"609","10035.91"
"610","10009.83"
"611","9949.894"
"612","9882.249"
"613","9833.799"
"614","9828.647"
"615","9861.525"
"616","9909.216"
"617","9948.327"
"618","9959.481"
"619","9948.252"
"620","9929.92"
"621","9919.737"
"622","9927.836"
"623","9944.99"
"624","9957.41"
"625","9951.38"
"626","9920.813"
"627","9877.108"
"628","9834.08"
"629","9805.304"
"630","9795.234"
"631","9795.395"
"632","9796.36"
"633","9789.217"
"634","9773.965"
"635","9758.437"
"636","9750.715"
"637","9757.829"
"638","9777.41"
"639","9802.074"
"640","9824.403"
"641","9838.235"
"642","9843.488"
"643","9841.969"
"644","9835.481"
"645","9825.979"
"646","9815.858"
"647","9807.58"
"648","9803.572"
"649","9804.548"
"650","9808.507"
"651","9813.224"
"652","9816.52"
"653","9817.277"
"654","9815.337"
"655","9810.584"
"656","9803.043"
"657","9794.066"
"658","9785.69"
"659","9779.955"
"660","9779.188"
"661","9787.027"
"662","9807.48"
"663","9844.521"
"664","9895.3"
"665","9940.736"
"666","9959.434"
"667","9930.703"
"668","9858.872"
"669","9780.612"
"670","9734.653"
"671","9756.277"
"672","9836.174"
"673","9933.386"
"674","10006.39"
"675","10021.14"
"676","9988.371"
"677","9935.499"
"678","9889.9"
"679","9870.019"
"680","9867.997"
"681","9871.163"
"682","9867.008"
"683","9850.053"
"684","9825.423"
"685","9799.102"
"686","9776.871"
"687","9761.581"
"688","9753.769"
"689","9753.905"
"690","9762.512"
"691","9780.425"
"692","9808.605"
"693","9848.014"
"694","9897.058"
"695","9946.496"
"696","9985.688"
"697","10004.15"
"698","9999.024"
"699","9978.46"
"700","9951.476"
"701","9926.611"
"702","9906.031"
"703","9887.279"
"704","9867.784"
"705","9846.243"
"706","9828.354"
"707","9822.229"
"708","9835.959"
"709","9871.031"
"710","9912.559"
"711","9943.186"
"712","9946.066"
"713","9919.225"
"714","9878.117"
"715","9839.168"
"716","9817.409"
"717","9814.724"
"718","9825.646"
"719","9844.641"
"720","9867.08"
"721","9891.892"
"722","9918.882"
"723","9947.824"
"724","9975.783"
"725","9995.155"
"726","9997.885"
"727","9976.901"
"728","9940.477"
"729","9909.078"
"730","9903.481"
"731","9938.869"
"732","9998.861"
"733","10055.97"
"734","10082.82"
"735","10065.65"
"736","10022.45"
"737","9975.642"
"738","9946.95"
"739","9942.282"
"740","9951.324"
"741","9963.056"
"742","9967.8"
"743","9965.733"
"744","9961.448"
"745","9959.551"
"746","9963.479"
"747","9973.356"
"748","9988.716"
"749","10009.03"
"750","10032"
"751","10053.17"
"752","10067.95"
"753","10072.6"
"754","10070.52"
"755","10068.76"
"756","10074.41"
"757","10091.5"
"758","10114.45"
"759","10135.75"
"760","10148.04"
"761","10149.38"
"762","10144.81"
"763","10139.8"
"764","10139.29"
"765","10143.41"
"766","10149.68"
"767","10155.64"
"768","10159.52"
"769","10161.9"
"770","10163.81"
"771","10166.35"
"772","10171.93"
"773","10184.7"
"774","10208.9"
"775","10247.66"
"776","10294.73"
"777","10339.07"
"778","10369.64"
"779","10379.93"
"780","10376.83"
"781","10369.66"
"782","10367.53"
"783","10373.56"
"784","10384.05"
"785","10394.98"
"786","10402.87"
"787","10408.29"
"788","10413.58"
"789","10421.07"
"790","10431.78"
"791","10443.42"
"792","10453.24"
"793","10458.59"
"794","10459.49"
"795","10458.41"
"796","10457.9"
"797","10460.34"
"798","10467.11"
"799","10479.23"
"800","10497.71"
"801","10520.95"
"802","10542.45"
"803","10555.14"
"804","10552.71"
"805","10538.36"
"806","10522.08"
"807","10513.96"
"808","10521.61"
"809","10542.8"
"810","10572.92"
"811","10607.37"
"812","10641.87"
"813","10672.68"
"814","10696.03"
"815","10708.72"
"816","10711.77"
"817","10708.26"
"818","10701.31"
"819","10693.71"
"820","10687.43"
"821","10684.28"
"822","10685.97"
"823","10691.61"
"824","10697.98"
"825","10701.79"
"826","10700.67"
"827","10696.7"
"828","10693.36"
"829","10694.07"
"830","10698.99"
"831","10703.23"
"832","10701.43"
"833","10689.3"
"834","10672.92"
"835","10664.04"
"836","10674.46"
"837","10708.36"
"838","10748.94"
"839","10775.85"
"840","10769.86"
"841","10734.26"
"842","10693.12"
"843","10671.29"
"844","10687.13"
"845","10727.82"
"846","10771.17"
"847","10795.28"
"848","10793.99"
"849","10784.52"
"850","10785.96"
"851","10814.4"
"852","10860.64"
"853","10902.92"
"854","10919.41"
"855","10900.29"
"856","10864.08"
"857","10833.43"
"858","10829.6"
"859","10853.7"
"860","10891.21"
"861","10927.21"
"862","10950.22"
"863","10961.7"
"864","10966.13"
"865","10967.95"
"866","10969.61"
"867","10971.33"
"868","10973.19"
"869","10975.61"
"870","10980.85"
"871","10991.85"
"872","11011.5"
"873","11040.2"
"874","11074.08"
"875","11108.88"
"876","11140.8"
"877","11169.9"
"878","11198.32"
"879","11228.21"
"880","11258.3"
"881","11279.16"
"882","11280.19"
"883","11252.2"
"884","11205.92"
"885","11166.8"
"886","11160.62"
"887","11201.9"
"888","11267.21"
"889","11325.19"
"890","11345.76"
"891","11328.56"
"892","11302.66"
"893","11298.42"
"894","11337.14"
"895","11398.12"
"896","11448.52"
"897","11456.2"
"898","11416.55"
"899","11360.62"
"900","11321.84"
"901","11327.83"
"902","11369.87"
"903","11425.26"
"904","11471.4"
"905","11496.04"
"906","11504.01"
"907","11501.74"
"908","11495.15"
"909","11486.09"
"910","11474.4"
"911","11459.91"
"912","11444.78"
"913","11435.96"
"914","11441"
"915","11466.42"
"916","11507.86"
"917","11554.36"
"918","11594.88"
"919","11621.3"
"920","11632.86"
"921","11629.93"
"922","11613.28"
"923","11589.02"
"924","11567.13"
"925","11557.66"
"926","11567.61"
"927","11594.72"
"928","11634.96"
"929","11683.99"
"930","11731.54"
"931","11762.38"
"932","11761.13"
"933","11720.41"
"934","11661.12"
"935","11610.41"
"936","11594.29"
"937","11615.36"
"938","11653.87"
"939","11689.18"
"940","11705.29"
"941","11704.65"
"942","11694.42"
"943","11681.55"
"944","11669.1"
"945","11655.98"
"946","11640.91"
"947","11624.09"
"948","11612.37"
"949","11614.44"
"950","11638.53"
"951","11679.4"
"952","11716.43"
"953","11728.16"
"954","11700.2"
"955","11652.04"
"956","11613.34"
"957","11613.01"
"958","11654.45"
"959","11710.37"
"960","11751.65"
"961","11755.37"
"962","11730.02"
"963","11694.02"
"964","11665.51"
"965","11652.73"
"966","11651.6"
"967","11657.26"
"968","11665.02"
"969","11670.88"
"970","11671.1"
"971","11662.1"
"972","11645.65"
"973","11630.29"
"974","11625.02"
"975","11635.62"
"976","11651.37"
"977","11656.16"
"978","11634.27"
"979","11584.09"
"980","11521.7"
"981","11464.3"
"982","11427.21"
"983","11416.32"
"984","11434.49"
"985","11484.23"
"986","11556.36"
"987","11627.49"
"988","11673.33"
"989","11676.53"
"990","11653.45"
"991","11630.73"
"992","11634.32"
"993","11667.57"
"994","11707.75"
"995","11730.63"
"996","11719.64"
"997","11693.21"
"998","11679.76"
"999","11706.66"
"1000","11772.44"
"1001","11844.38"
"1002","11888.17"
"1003","11879.93"
"1004","11839.65"
"1005","11798.81"
"1006","11788.87"
"1007","11824.36"
"1008","11877.24"
"1009","11912.87"
"1010","11900.45"
"1011","11848.77"
"1012","11790.01"
"1013","11756.56"
"1014","11764.35"
"1015","11796.96"
"1016","11834.18"
"1017","11857.84"
"1018","11865.16"
"1019","11860.35"
"1020","11847.71"
"1021","11833.01"
"1022","11824.25"
"1023","11829.62"
"1024","11855.04"
"1025","11894.34"
"1026","11937.3"
"1027","11973.9"
"1028","11999.86"
"1029","12017.21"
"1030","12028.3"
"1031","12036.12"
"1032","12045.98"
"1033","12063.74"
"1034","12094.61"
"1035","12133.85"
"1036","12168.95"
"1037","12187.18"
"1038","12183.11"
"1039","12169.27"
"1040","12160.94"
"1041","12171.54"
"1042","12197.82"
"1043","12227.61"
"1044","12248.74"
"1045","12254.22"
"1046","12245.45"
"1047","12224.63"
"1048","12195.04"
"1049","12166"
"1050","12148.85"
"1051","12154.59"
"1052","12184.95"
"1053","12231.9"
"1054","12286.98"
"1055","12340.72"
"1056","12380.47"
"1057","12392.89"
"1058","12366.86"
"1059","12317.15"
"1060","12275.38"
"1061","12273.35"
"1062","12321.3"
"1063","12388.51"
"1064","12439.7"
"1065","12446.35"
"1066","12422.01"
"1067","12396.28"
"1068","12397.97"
"1069","12431.74"
"1070","12475.46"
"1071","12505.58"
"1072","12506.81"
"1073","12491.15"
"1074","12476.19"
"1075","12477.96"
"1076","12494.38"
"1077","12511.97"
"1078","12517.21"
"1079","12506.68"
"1080","12494.68"
"1081","12497.28"
"1082","12525.94"
"1083","12567.35"
"1084","12600.01"
"1085","12603.25"
"1086","12574.59"
"1087","12528.52"
"1088","12480.19"
"1089","12442.14"
"1090","12420.11"
"1091","12418.77"
"1092","12441.22"
"1093","12477.98"
"1094","12513.54"
"1095","12532.66"
"1096","12530.84"
"1097","12517.36"
"1098","12502.37"
"1099","12492.25"
"1100","12479.89"
"1101","12455.25"
"1102","12409.95"
"1103","12354.56"
"1104","12311.46"
"1105","12302.96"
"1106","12332.85"
"1107","12375.26"
"1108","12401.59"
"1109","12391.24"
"1110","12359.08"
"1111","12329.84"
"1112","12326.78"
"1113","12352.35"
"1114","12393.53"
"1115","12436.96"
"1116","12471.15"
"1117","12488.21"
"1118","12480.64"
"1119","12444.22"
"1120","12391.56"
"1121","12340.62"
"1122","12308.62"
"1123","12300.6"
"1124","12311.73"
"1125","12336.88"
"1126","12369.04"
"1127","12397.54"
"1128","12411.25"
"1129","12402.08"
"1130","12378.16"
"1131","12352.93"
"1132","12339.14"
"1133","12337.34"
"1134","12338.12"
"1135","12331.82"
"1136","12315.42"
"1137","12298.91"
"1138","12293.78"
"1139","12308.49"
"1140","12336.31"
"1141","12365.75"
"1142","12385.71"
"1143","12391.14"
"1144","12381.57"
"1145","12356.72"
"1146","12322.91"
"1147","12298"
"1148","12301.04"
"1149","12342.74"
"1150","12397.62"
"1151","12430.43"
"1152","12409.97"
"1153","12353.18"
"1154","12308.33"
"1155","12323.45"
"1156","12405.78"
"1157","12503.04"
"1158","12558.27"
"1159","12536.07"
"1160","12474.76"
"1161","12428.36"
"1162","12443.77"
"1163","12506.74"
"1164","12571.78"
"1165","12594.48"
"1166","12568.19"
"1167","12528.57"
"1168","12513.43"
"1169","12541.81"
"1170","12586.24"
"1171","12612.19"
"1172","12592.78"
"1173","12545.92"
"1174","12505.74"
"1175","12504.27"
"1176","12539.6"
"1177","12582.93"
"1178","12604.91"
"1179","12593.19"
"1180","12563.77"
"1181","12535.34"
"1182","12522.05"
"1183","12521.16"
"1184","12526.05"
"1185","12531.34"
"1186","12542.35"
"1187","12569.97"
"1188","12624.35"
"1189","12696.45"
"1190","12756.9"
"1191","12775.42"
"1192","12741.5"
"1193","12687.54"
"1194","12651.65"
"1195","12662.77"
"1196","12706.31"
"1197","12754.83"
"1198","12782.97"
"1199","12788.86"
"1200","12785.17"
"1201","12784.54"
"1202","12790.01"
"1203","12792.84"
"1204","12783.61"
"1205","12759.41"
"1206","12733.41"
"1207","12721.17"
"1208","12733.79"
"1209","12758.95"
"1210","12776.82"
"1211","12769.64"
"1212","12744.02"
"1213","12722.34"
"1214","12726.69"
"1215","12759.73"
"1216","12800.19"
"1217","12825.33"
"1218","12822.62"
"1219","12803.75"
"1220","12783.94"
"1221","12775.41"
"1222","12776.05"
"1223","12779.44"
"1224","12779.91"
"1225","12779.18"
"1226","12783.33"
"1227","12798.25"
"1228","12823.7"
"1229","12852.77"
"1230","12878.27"
"1231","12896.32"
"1232","12909.53"
"1233","12921.33"
"1234","12934.68"
"1235","12950.95"
"1236","12971.14"
"1237","12995.35"
"1238","13017.28"
"1239","13027.67"
"1240","13018.06"
"1241","12992.83"
"1242","12966.86"
"1243","12955.15"
"1244","12964.69"
"1245","12990.91"
"1246","13028.35"
"1247","13070.5"
"1248","13108.16"
"1249","13131.72"
"1250","13134.61"
"1251","13124.86"
"1252","13114.84"
"1253","13115.38"
"1254","13123.23"
"1255","13127.64"
"1256","13118.55"
"1257","13101.22"
"1258","13094.86"
"1259","13118.91"
"1260","13175.22"
"1261","13238.6"
"1262","13281.58"
"1263","13288.08"
"1264","13272.14"
"1265","13252.7"
"1266","13245.57"
"1267","13251.88"
"1268","13268.52"
"1269","13291.94"
"1270","13315.26"
"1271","13329.87"
"1272","13327.78"
"1273","13310.83"
"1274","13288.97"
"1275","13272.24"
"1276","13264.04"
"1277","13259.04"
"1278","13251.3"
"1279","13237.25"
"1280","13218.41"
"1281","13196.99"
"1282","13174.82"
"1283","13152.46"
"1284","13130.22"
"1285","13108.55"
"1286","13088.86"
"1287","13072.94"
"1288","13062.92"
"1289","13064.43"
"1290","13085.19"
"1291","13132.17"
"1292","13196.81"
"1293","13256.21"
"1294","13287.37"
"1295","13286.32"
"1296","13275.89"
"1297","13280.86"
"1298","13314.28"
"1299","13363.78"
"1300","13413.65"
"1301","13449.58"
"1302","13461.98"
"1303","13442.25"
"1304","13387.14"
"1305","13322.08"
"1306","13282.09"
"1307","13296.79"
"1308","13348.99"
"1309","13397.61"
"1310","13404.12"
"1311","13369.83"
"1312","13326.18"
"1313","13304.45"
"1314","13310.58"
"1315","13322.77"
"1316","13318"
"1317","13288.64"
"1318","13251.41"
"1319","13225.17"
"1320","13222.66"
"1321","13242.51"
"1322","13281.33"
"1323","13333.02"
"1324","13382.21"
"1325","13411.59"
"1326","13407.5"
"1327","13374.87"
"1328","13324.37"
"1329","13266.94"
"1330","13215.23"
"1331","13182.69"
"1332","13181.4"
"1333","13207.93"
"1334","13249.08"
"1335","13291.45"
"1336","13320.26"
"1337","13319.6"
"1338","13274.24"
"1339","13191.18"
"1340","13103.52"
"1341","13045.56"
"1342","13030.42"
"1343","13037.76"
"1344","13044.33"
"1345","13038.89"
"1346","13035.89"
"1347","13053.1"
"1348","13097.44"
"1349","13144.27"
"1350","13163.29"
"1351","13137.1"
"1352","13099.55"
"1353","13097.14"
"1354","13163.38"
"1355","13261.95"
"1356","13333.27"
"1357","13327.27"
"1358","13263.29"
"1359","13191.33"
"1360","13156.88"
"1361","13159.13"
"1362","13170.77"
"1363","13165.96"
"1364","13144.08"
"1365","13122.85"
"1366","13119.7"
"1367","13136.64"
"1368","13161.54"
"1369","13181.98"
"1370","13192"
"1371","13193.08"
"1372","13187.11"
"1373","13175.24"
"1374","13157.54"
"1375","13134.03"
"1376","13105.54"
"1377","13074.32"
"1378","13042.8"
"1379","13017.06"
"1380","13011.06"
"1381","13039.76"
"1382","13102.82"
"1383","13159.22"
"1384","13161.32"
"1385","13084.45"
"1386","12978.61"
"1387","12908.91"
"1388","12920.41"
"1389","12979.02"
"1390","13031.14"
"1391","13035.68"
"1392","13011.27"
"1393","12994.3"
"1394","13013.71"
"1395","13055.88"
"1396","13092.12"
"1397","13097.92"
"1398","13077.62"
"1399","13047.53"
"1400","13022.38"
"1401","13003.77"
"1402","12986.96"
"1403","12968.29"
"1404","12954.6"
"1405","12958.59"
"1406","12991.05"
"1407","13040.64"
"1408","13082.11"
"1409","13092"
"1410","13073.44"
"1411","13048.34"
"1412","13037.8"
"1413","13043.19"
"1414","13050.4"
"1415","13045.67"
"1416","13029.29"
"1417","13013.67"
"1418","13011.21"
"1419","13024.41"
"1420","13046.39"
"1421","13070.02"
"1422","13091.11"
"1423","13108.49"
"1424","13121.25"
"1425","13131.64"
"1426","13145.43"
"1427","13168.29"
"1428","13197.17"
"1429","13218.64"
"1430","13219.29"
"1431","13207.46"
"1432","13218.85"
"1433","13289.83"
"1434","13414.79"
"1435","13532.81"
"1436","13580.3"
"1437","13544.84"
"1438","13484.27"
"1439","13460.74"
"1440","13496.66"
"1441","13557.99"
"1442","13606.72"
"1443","13623.22"
"1444","13614.6"
"1445","13590.11"
"1446","13560.48"
"1447","13538.69"
"1448","13537.62"
"1449","13556.34"
"1450","13573.22"
"1451","13565.23"
"1452","13526.21"
"1453","13475.24"
"1454","13433.23"
"1455","13409.38"
"1456","13395.46"
"1457","13381.92"
"1458","13363.65"
"1459","13342.13"
"1460","13319.27"
"1461","13294.81"
"1462","13265.39"
"1463","13227.45"
"1464","13180.04"
"1465","13125.76"
"1466","13067.56"
"1467","13009.37"
"1468","12956.51"
"1469","12914.3"
"1470","12884"
"1471","12861.83"
"1472","12843.58"
"1473","12823.41"
"1474","12793.45"
"1475","12746.37"
"1476","12692.61"
"1477","12662.64"
"1478","12686.29"
"1479","12750.36"
"1480","12796.63"
"1481","12767.34"
"1482","12662.64"
"1483","12538.58"
"1484","12451.46"
"1485","12417.45"
"1486","12417.22"
"1487","12430.59"
"1488","12443.59"
"1489","12447.26"
"1490","12433.7"
"1491","12407.53"
"1492","12382.46"
"1493","12371.28"
"1494","12373.29"
"1495","12379.08"
"1496","12380.05"
"1497","12377.61"
"1498","12378.88"
"1499","12390.15"
"1500","12409.85"
"1501","12432.46"
"1502","12451.71"
"1503","12455.96"
"1504","12431.26"
"1505","12369.87"
"1506","12301.53"
"1507","12269.98"
"1508","12306.35"
"1509","12377.62"
"1510","12430.55"
"1511","12425.39"
"1512","12379.4"
"1513","12324.82"
"1514","12286.48"
"1515","12263.22"
"1516","12248.22"
"1517","12237.77"
"1518","12237.04"
"1519","12252.75"
"1520","12283.67"
"1521","12309.94"
"1522","12309.18"
"1523","12275.22"
"1524","12233.01"
"1525","12210.71"
"1526","12215.08"
"1527","12219.51"
"1528","12195.12"
"1529","12137.02"
"1530","12070.8"
"1531","12023.18"
"1532","12001.33"
"1533","11992.31"
"1534","11982.63"
"1535","11964.97"
"1536","11937.03"
"1537","11897.74"
"1538","11858.58"
"1539","11839.18"
"1540","11856.62"
"1541","11904.35"
"1542","11963.8"
"1543","12016.96"
"1544","12050.38"
"1545","12052.36"
"1546","12016.85"
"1547","11964.48"
"1548","11923.87"
"1549","11916.63"
"1550","11939.79"
"1551","11984.9"
"1552","12042.18"
"1553","12098.26"
"1554","12139.22"
"1555","12155.33"
"1556","12144.95"
"1557","12107.54"
"1558","12050.35"
"1559","11992"
"1560","11951.51"
"1561","11934.8"
"1562","11933.54"
"1563","11938.87"
"1564","11945.03"
"1565","11948.78"
"1566","11947.18"
"1567","11940.12"
"1568","11929.07"
"1569","11915.51"
"1570","11900.54"
"1571","11885.11"
"1572","11869.94"
"1573","11854.58"
"1574","11838.26"
"1575","11821.77"
"1576","11811.03"
"1577","11812.96"
"1578","11828"
"1579","11841.91"
"1580","11838.68"
"1581","11816.71"
"1582","11796.98"
"1583","11801.68"
"1584","11830.41"
"1585","11857.88"
"1586","11859.37"
"1587","11838.38"
"1588","11820.1"
"1589","11827.35"
"1590","11856.24"
"1591","11888.81"
"1592","11908.87"
"1593","11911.18"
"1594","11894.38"
"1595","11860.55"
"1596","11824.35"
"1597","11803.3"
"1598","11806.95"
"1599","11825.86"
"1600","11847.91"
"1601","11864.53"
"1602","11872.66"
"1603","11869.92"
"1604","11858.08"
"1605","11843.26"
"1606","11831.68"
"1607","11828.62"
"1608","11838.7"
"1609","11864.41"
"1610","11892.8"
"1611","11904.07"
"1612","11884.84"
"1613","11850.47"
"1614","11824.24"
"1615","11820.93"
"1616","11832.37"
"1617","11846.55"
"1618","11856.23"
"1619","11862.07"
"1620","11865.57"
"1621","11869.98"
"1622","11880.43"
"1623","11901.09"
"1624","11923.42"
"1625","11930.25"
"1626","11908.51"
"1627","11874.33"
"1628","11855.98"
"1629","11873.12"
"1630","11911.64"
"1631","11949.13"
"1632","11969.54"
"1633","11971.42"
"1634","11955.47"
"1635","11929.04"
"1636","11908.61"
"1637","11910.48"
"1638","11935.8"
"1639","11973.03"
"1640","12010.72"
"1641","12041.99"
"1642","12062.26"
"1643","12067.28"
"1644","12054.17"
"1645","12020.47"
"1646","11972.58"
"1647","11939.63"
"1648","11953.84"
"1649","12017.45"
"1650","12088.31"
"1651","12122.66"
"1652","12113.76"
"1653","12087.06"
"1654","12066.83"
"1655","12057.9"
"1656","12055.38"
"1657","12056.01"
"1658","12064.3"
"1659","12086.81"
"1660","12117.49"
"1661","12120.45"
"1662","12056.59"
"1663","11933.56"
"1664","11820.63"
"1665","11786.12"
"1666","11822.52"
"1667","11865.76"
"1668","11859.84"
"1669","11812.67"
"1670","11758.36"
"1671","11724.27"
"1672","11714.33"
"1673","11727.33"
"1674","11748.56"
"1675","11739.06"
"1676","11660.01"
"1677","11532.48"
"1678","11436.14"
"1679","11442.3"
"1680","11523.55"
"1681","11600.11"
"1682","11608.42"
"1683","11557.85"
"1684","11477.49"
"1685","11393.43"
"1686","11325.19"
"1687","11290.94"
"1688","11293.55"
"1689","11318.44"
"1690","11350.17"
"1691","11374.94"
"1692","11379.86"
"1693","11356.66"
"1694","11319.32"
"1695","11288.5"
"1696","11273.62"
"1697","11257.83"
"1698","11221.25"
"1699","11167.03"
"1700","11125.6"
"1701","11125.56"
"1702","11157.84"
"1703","11190.42"
"1704","11198.64"
"1705","11194.34"
"1706","11200.12"
"1707","11227.01"
"1708","11260.4"
"1709","11282.62"
"1710","11286.56"
"1711","11276.76"
"1712","11257.59"
"1713","11226.74"
"1714","11178.21"
"1715","11111.89"
"1716","11051.81"
"1717","11027.92"
"1718","11048.51"
"1719","11081.47"
"1720","11092.11"
"1721","11081.96"
"1722","11085.39"
"1723","11130.83"
"1724","11195.82"
"1725","11235.86"
"1726","11222.15"
"1727","11174.33"
"1728","11121.01"
"1729","11078.88"
"1730","11047.93"
"1731","11026.92"
"1732","11014.98"
"1733","11011.47"
"1734","11015.33"
"1735","11023.39"
"1736","11031.89"
"1737","11040.11"
"1738","11053.65"
"1739","11078.37"
"1740","11109.44"
"1741","11131.91"
"1742","11134.23"
"1743","11132.11"
"1744","11152.97"
"1745","11206.68"
"1746","11252.42"
"1747","11241.44"
"1748","11169.44"
"1749","11088.24"
"1750","11047.95"
"1751","11044.99"
"1752","11045.21"
"1753","11025.51"
"1754","11006.32"
"1755","11017.96"
"1756","11058.64"
"1757","11075.63"
"1758","11017.25"
"1759","10905.47"
"1760","10813.99"
"1761","10800.1"
"1762","10838.73"
"1763","10880.89"
"1764","10898.42"
"1765","10902.25"
"1766","10906.56"
"1767","10909.06"
"1768","10894.1"
"1769","10850.92"
"1770","10797.2"
"1771","10760.06"
"1772","10754.41"
"1773","10769.59"
"1774","10792.12"
"1775","10814.61"
"1776","10835.06"
"1777","10851.25"
"1778","10858.84"
"1779","10852.76"
"1780","10834.95"
"1781","10822.52"
"1782","10833.55"
"1783","10866.9"
"1784","10904.26"
"1785","10928.79"
"1786","10935.31"
"1787","10922.86"
"1788","10896.63"
"1789","10874.82"
"1790","10875.86"
"1791","10893"
"1792","10898.13"
"1793","10870.5"
"1794","10832.21"
"1795","10819.24"
"1796","10842.31"
"1797","10863.69"
"1798","10843.41"
"1799","10790.02"
"1800","10748.99"
"1801","10753.36"
"1802","10775"
"1803","10768.77"
"1804","10724.54"
"1805","10689.6"
"1806","10711.08"
"1807","10771.73"
"1808","10813.03"
"1809","10795.37"
"1810","10751.13"
"1811","10728.6"
"1812","10747.59"
"1813","10790.15"
"1814","10835.12"
"1815","10856.57"
"1816","10826.14"
"1817","10736"
"1818","10634.97"
"1819","10579.85"
"1820","10584.43"
"1821","10618.98"
"1822","10654.53"
"1823","10678.41"
"1824","10683.97"
"1825","10671.39"
"1826","10654.18"
"1827","10646.36"
"1828","10646.59"
"1829","10642.41"
"1830","10626.23"
"1831","10610.75"
"1832","10613.19"
"1833","10628.66"
"1834","10622.55"
"1835","10566.2"
"1836","10496.61"
"1837","10482.52"
"1838","10554.55"
"1839","10647.79"
"1840","10686.19"
"1841","10661.18"
"1842","10623.11"
"1843","10613.57"
"1844","10623.11"
"1845","10627.49"
"1846","10616.67"
"1847","10602.19"
"1848","10596.48"
"1849","10603.74"
"1850","10623.83"
"1851","10650.14"
"1852","10659.31"
"1853","10627.1"
"1854","10566.04"
"1855","10521.28"
"1856","10528.51"
"1857","10573.76"
"1858","10628.81"
"1859","10672.5"
"1860","10693.86"
"1861","10684.5"
"1862","10650.52"
"1863","10605.1"
"1864","10564.03"
"1865","10549"
"1866","10579.86"
"1867","10635.76"
"1868","10664.62"
"1869","10629.66"
"1870","10555.09"
"1871","10479.22"
"1872","10430.43"
"1873","10425.5"
"1874","10473.45"
"1875","10540.54"
"1876","10577.37"
"1877","10567.04"
"1878","10549.14"
"1879","10563.6"
"1880","10598.8"
"1881","10614.3"
"1882","10587.3"
"1883","10540.96"
"1884","10504.67"
"1885","10490.43"
"1886","10496.38"
"1887","10519.03"
"1888","10550.49"
"1889","10581.52"
"1890","10595.94"
"1891","10569.85"
"1892","10489.34"
"1893","10396.6"
"1894","10352.04"
"1895","10376.03"
"1896","10428.86"
"1897","10470.19"
"1898","10493.44"
"1899","10507.45"
"1900","10514.79"
"1901","10505.23"
"1902","10469.93"
"1903","10430.66"
"1904","10427.75"
"1905","10477.42"
"1906","10532.34"
"1907","10538.34"
"1908","10494.66"
"1909","10441.62"
"1910","10412.68"
"1911","10414.59"
"1912","10447.26"
"1913","10483.96"
"1914","10472.67"
"1915","10384.96"
"1916","10296.23"
"1917","10306.05"
"1918","10414.9"
"1919","10510.06"
"1920","10497.78"
"1921","10414.95"
"1922","10339.47"
"1923","10312.74"
"1924","10327.09"
"1925","10368.81"
"1926","10408.28"
"1927","10410.34"
"1928","10368.62"
"1929","10321.09"
"1930","10303.57"
"1931","10309.18"
"1932","10312.76"
"1933","10299.2"
"1934","10270.83"
"1935","10232.92"
"1936","10199.98"
"1937","10190.89"
"1938","10211.71"
"1939","10244.37"
"1940","10269.46"
"1941","10279.83"
"1942","10274.69"
"1943","10259.98"
"1944","10254.92"
"1945","10276.48"
"1946","10305.62"
"1947","10303.91"
"1948","10260.72"
"1949","10223.55"
"1950","10239.66"
"1951","10284.47"
"1952","10293.84"
"1953","10240.72"
"1954","10176.68"
"1955","10156.95"
"1956","10176.61"
"1957","10197.65"
"1958","10196.31"
"1959","10179.03"
"1960","10155.71"
"1961","10133.83"
"1962","10119.65"
"1963","10122.54"
"1964","10157.98"
"1965","10235.3"
"1966","10305.11"
"1967","10288.85"
"1968","10176.09"
"1969","10082.34"
"1970","10115.31"
"1971","10215.06"
"1972","10244.56"
"1973","10159.69"
"1974","10073.02"
"1975","10088.78"
"1976","10150.41"
"1977","10135.82"
"1978","10020.2"
"1979","9924.209"
"1980","9953.053"
"1981","10049.76"
"1982","10100.06"
"1983","10060.3"
"1984","9978.488"
"1985","9902.973"
"1986","9853.056"
"1987","9838.576"
"1988","9852.076"
"1989","9867.096"
"1990","9865.132"
"1991","9863.797"
"1992","9888.166"
"1993","9930.978"
"1994","9955.472"
"1995","9938.207"
"1996","9902.019"
"1997","9877.628"
"1998","9875.679"
"1999","9892.009"
"2000","9913.771"
"2001","9907.394"
"2002","9841.99"
"2003","9746.737"
"2004","9685.354"
"2005","9685.148"
"2006","9702.843"
"2007","9694.795"
"2008","9673.281"
"2009","9674.659"
"2010","9707.234"
"2011","9738.607"
"2012","9738.788"
"2013","9707.211"
"2014","9653.291"
"2015","9600.128"
"2016","9585.486"
"2017","9627.365"
"2018","9669.354"
"2019","9643.618"
"2020","9567.759"
"2021","9525.872"
"2022","9559.707"
"2023","9600.587"
"2024","9574.84"
"2025","9523.354"
"2026","9548.786"
"2027","9663.277"
"2028","9722.767"
"2029","9606.685"
"2030","9428.763"
"2031","9384.288"
"2032","9502.049"
"2033","9616.49"
"2034","9601.856"
"2035","9526.711"
"2036","9499.357"
"2037","9527.734"
"2038","9541.707"
"2039","9503.129"
"2040","9455.441"
"2041","9447.746"
"2042","9475.05"
"2043","9505.239"
"2044","9510.662"
"2045","9470.782"
"2046","9376.907"
"2047","9275.926"
"2048","9229.065"
"2049","9236.841"
"2050","9242.168"
"2051","9208.569"
"2052","9165.589"
"2053","9151.079"
"2054","9166.884"
"2055","9193.9"
"2056","9210.438"
"2057","9190.961"
"2058","9121.005"
"2059","9048.256"
"2060","9038.387"
"2061","9086.485"
"2062","9117.163"
"2063","9088.439"
"2064","9065.95"
"2065","9123.108"
"2066","9211.926"
"2067","9215.543"
"2068","9102.625"
"2069","8982.381"
"2070","8952.546"
"2071","8987.092"
"2072","9022.921"
"2073","9030.239"
"2074","9009.555"
"2075","8970.709"
"2076","8944.598"
"2077","8958.618"
"2078","8982.946"
"2079","8960.824"
"2080","8891.098"
"2081","8848.193"
"2082","8882.031"
"2083","8924.118"
"2084","8885.246"
"2085","8793.193"
"2086","8759.095"
"2087","8826.513"
"2088","8904.639"
"2089","8907.676"
"2090","8869.015"
"2091","8861.949"
"2092","8895.748"
"2093","8916.852"
"2094","8888.506"
"2095","8825.896"
"2096","8754.333"
"2097","8711.552"
"2098","8739.572"
"2099","8812.246"
"2100","8816.54"
"2101","8686.299"
"2102","8539.518"
"2103","8520.088"
"2104","8611.554"
"2105","8699.581"
"2106","8714.776"
"2107","8661.179"
"2108","8561.174"
"2109","8488.76"
"2110","8523.746"
"2111","8626.502"
"2112","8670.085"
"2113","8601.49"
"2114","8509.481"
"2115","8477.736"
"2116","8482.538"
"2117","8468.108"
"2118","8421.354"
"2119","8364.898"
"2120","8319.305"
"2121","8298.438"
"2122","8310.813"
"2123","8338.793"
"2124","8356.303"
"2125","8355.619"
"2126","8345.631"
"2127","8336.361"
"2128","8338.967"
"2129","8357.793"
"2130","8354.898"
"2131","8280.033"
"2132","8157.177"
"2133","8079.158"
"2134","8088.984"
"2135","8110.759"
"2136","8070.193"
"2137","8002.561"
"2138","7980.551"
"2139","8007.903"
"2140","8025.699"
"2141","8003.676"
"2142","7978.945"
"2143","7985.231"
"2144","7986.676"
"2145","7928.292"
"2146","7848.869"
"2147","7866.132"
"2148","8007.223"
"2149","8114.827"
"2150","8054.025"
"2151","7913.339"
"2152","7841.981"
"2153","7852.582"
"2154","7855.713"
"2155","7814.902"
"2156","7789.188"
"2157","7820.362"
"2158","7837.567"
"2159","7753.67"
"2160","7635.594"
"2161","7645.303"
"2162","7811.167"
"2163","7968.951"
"2164","7986.327"
"2165","7888.633"
"2166","7736.25"
"2167","7606.292"
"2168","7581.639"
"2169","7659.766"
"2170","7741.803"
"2171","7757.416"
"2172","7722.359"
"2173","7664.259"
"2174","7600.559"
"2175","7545.349"
"2176","7520.385"
"2177","7553.479"
"2178","7620.721"
"2179","7602.193"
"2180","7420.554"
"2181","7227.179"
"2182","7214.688"
"2183","7351.616"
"2184","7471.451"
"2185","7490.915"
"2186","7437.921"
"2187","7348.673"
"2188","7261.459"
"2189","7208.758"
"2190","7180.395"
"2191","7149.379"
"2192","7103.326"
"2193","7042.903"
"2194","6983.657"
"2195","6967.625"
"2196","7021.271"
"2197","7095.001"
"2198","7125.552"
"2199","7108.565"
"2200","7072.58"
"2201","7034.127"
"2202","6995.319"
"2203","6952.86"
"2204","6892.35"
"2205","6805.02"
"2206","6721.501"
"2207","6684.16"
"2208","6714.249"
"2209","6817.214"
"2210","6953.563"
"2211","7020.788"
"2212","6955.481"
"2213","6823.683"
"2214","6706.269"
"2215","6625.743"
"2216","6581.497"
"2217","6572.601"
"2218","6597.704"
"2219","6642.806"
"2220","6673.935"
"2221","6666.299"
"2222","6631.067"
"2223","6584.82"
"2224","6530.725"
"2225","6467.709"
"2226","6420.685"
"2227","6435.868"
"2228","6506.425"
"2229","6537.651"
"2230","6466.823"
"2231","6363.836"
"2232","6312.717"
"2233","6304.687"
"2234","6293.967"
"2235","6274.692"
"2236","6273.512"
"2237","6291.909"
"2238","6290.781"
"2239","6241.834"
"2240","6160.56"
"2241","6070.004"
"2242","5988.208"
"2243","5930.166"
"2244","5894.311"
"2245","5866.98"
"2246","5838.425"
"2247","5804.629"
"2248","5768.978"
"2249","5752.786"
"2250","5765.557"
"2251","5741.965"
"2252","5607.12"
"2253","5440.08"
"2254","5407.59"
"2255","5519.087"
"2256","5609.82"
"2257","5579.504"
"2258","5475.895"
"2259","5354.843"
"2260","5234.917"
"2261","5126.75"
"2262","5047.554"
"2263","5016.41"
"2264","5032.511"
"2265","5078.236"
"2266","5115.704"
"2267","5078.416"
"2268","4943.388"
"2269","4808.803"
"2270","4762.778"
"2271","4743.1"
"2272","4653.314"
"2273","4521.499"
"2274","4442.577"
"2275","4425.254"
"2276","4392.69"
"2277","4305.952"
"2278","4197.462"
"2279","4101.846"
"2280","4038.716"
"2281","4014.664"
"2282","3978.556"
"2283","3867.984"
"2284","3721.145"
"2285","3635.665"
"2286","3636.345"
"2287","3670.491"
"2288","3678.673"
"2289","3596.313"
"2290","3405.227"
"2291","3233"
"2292","3196.784"
"2293","3196.157"
"2294","3075.133"
"2295","2888.554"
"2296","2809.119"
"2297","2830.62"
"2298","2770.35"
"2299","2584.028"
"2300","2465.512"
