,"Scan 01108"
"400","9682.715"
"401","9686.03"
"402","9683.232"
"403","9670.064"
"404","9645.857"
"405","9611.097"
"406","9566.254"
"407","9512.326"
"408","9454.518"
"409","9400.033"
"410","9356.041"
"411","9329.086"
"412","9318.206"
"413","9317.238"
"414","9319.955"
"415","9320.4"
"416","9317.807"
"417","9316.438"
"418","9320.744"
"419","9335.086"
"420","9361.191"
"421","9397.259"
"422","9441.264"
"423","9491.158"
"424","9542.614"
"425","9587.084"
"426","9615.613"
"427","9619.338"
"428","9595.761"
"429","9558.233"
"430","9522.462"
"431","9504.029"
"432","9512.976"
"433","9540.82"
"434","9575.239"
"435","9603.996"
"436","9617.477"
"437","9617.653"
"438","9609.736"
"439","9598.91"
"440","9589.322"
"441","9579.169"
"442","9564.474"
"443","9541.271"
"444","9506.777"
"445","9467.158"
"446","9432.726"
"447","9413.743"
"448","9418.938"
"449","9442.086"
"450","9468.332"
"451","9482.83"
"452","9472.092"
"453","9439.418"
"454","9399.847"
"455","9368.56"
"456","9359.659"
"457","9370.37"
"458","9383.894"
"459","9383.111"
"460","9351.911"
"461","9294.113"
"462","9232.903"
"463","9192.119"
"464","9194.579"
"465","9237.982"
"466","9292.002"
"467","9325.014"
"468","9306.368"
"469","9234.259"
"470","9143.308"
"471","9070.275"
"472","9051.092"
"473","9093.067"
"474","9163.26"
"475","9225.877"
"476","9245.765"
"477","9212.683"
"478","9154.855"
"479","9103.655"
"480","9089.989"
"481","9124.071"
"482","9181.606"
"483","9235.152"
"484","9257.604"
"485","9237.456"
"486","9190.905"
"487","9136.905"
"488","9094.224"
"489","9073.798"
"490","9072.031"
"491","9083.759"
"492","9103.83"
"493","9124.687"
"494","9134.108"
"495","9119.409"
"496","9068.076"
"497","8979.427"
"498","8875.818"
"499","8782.146"
"500","8723.048"
"501","8708.788"
"502","8721.748"
"503","8741.192"
"504","8746.589"
"505","8727.34"
"506","8691.769"
"507","8650.285"
"508","8613.188"
"509","8585.013"
"510","8559.684"
"511","8530.012"
"512","8488.917"
"513","8435.515"
"514","8379.81"
"515","8332.856"
"516","8305.538"
"517","8300.523"
"518","8306.949"
"519","8312.749"
"520","8306.031"
"521","8281.759"
"522","8245.306"
"523","8202.901"
"524","8160.713"
"525","8123.797"
"526","8095.68"
"527","8079.762"
"528","8079.245"
"529","8090.937"
"530","8103.67"
"531","8105.842"
"532","8086.331"
"533","8045.972"
"534","7998.767"
"535","7959.325"
"536","7941.578"
"537","7946.292"
"538","7961.583"
"539","7975.101"
"540","7975.187"
"541","7960.632"
"542","7938.882"
"543","7917.605"
"544","7904.14"
"545","7901.937"
"546","7911.721"
"547","7934.157"
"548","7969.101"
"549","8008.152"
"550","8038.12"
"551","8045.819"
"552","8020.261"
"553","7967.54"
"554","7901.846"
"555","7837.354"
"556","7786.696"
"557","7753.368"
"558","7737.383"
"559","7738.749"
"560","7756.176"
"561","7782.206"
"562","7807.574"
"563","7823.06"
"564","7822.52"
"565","7810.808"
"566","7795.252"
"567","7783.14"
"568","7779.06"
"569","7780.275"
"570","7782.833"
"571","7782.802"
"572","7777.904"
"573","7769.205"
"574","7758.188"
"575","7746.311"
"576","7734.526"
"577","7722.995"
"578","7711.821"
"579","7701.098"
"580","7690.774"
"581","7680.645"
"582","7670.489"
"583","7660.188"
"584","7651.249"
"585","7646.545"
"586","7648.982"
"587","7660.949"
"588","7679.397"
"589","7697.972"
"590","7710.294"
"591","7711.148"
"592","7703.34"
"593","7693.105"
"594","7686.672"
"595","7688.728"
"596","7696.858"
"597","7706.586"
"598","7713.452"
"599","7714.141"
"600","7708.848"
"601","7698.456"
"602","7683.837"
"603","7666.393"
"604","7648.593"
"605","7633.032"
"606","7622.26"
"607","7616.872"
"608","7614.782"
"609","7613.712"
"610","7611.463"
"611","7607.189"
"612","7601.306"
"613","7594.269"
"614","7586.628"
"615","7579.902"
"616","7576.21"
"617","7577.665"
"618","7585.401"
"619","7594.371"
"620","7597.12"
"621","7586.225"
"622","7557.825"
"623","7521.577"
"624","7490.325"
"625","7476.839"
"626","7486.412"
"627","7507.202"
"628","7525.001"
"629","7525.877"
"630","7506.742"
"631","7479.864"
"632","7458.641"
"633","7455.744"
"634","7471.164"
"635","7493.745"
"636","7511.986"
"637","7515.857"
"638","7508.438"
"639","7499.821"
"640","7500.125"
"641","7516.807"
"642","7544.144"
"643","7572.35"
"644","7591.668"
"645","7595.565"
"646","7586.372"
"647","7567.933"
"648","7544.079"
"649","7518.521"
"650","7494.781"
"651","7476.356"
"652","7466.57"
"653","7465.478"
"654","7470.12"
"655","7477.442"
"656","7484.536"
"657","7489.81"
"658","7492.359"
"659","7491.289"
"660","7486.544"
"661","7481.879"
"662","7482.119"
"663","7492.068"
"664","7512.778"
"665","7536.401"
"666","7553.818"
"667","7556.124"
"668","7542.009"
"669","7519.98"
"670","7499.175"
"671","7488.149"
"672","7488.089"
"673","7494.934"
"674","7504.531"
"675","7513.151"
"676","7519.61"
"677","7523.674"
"678","7525.11"
"679","7523.611"
"680","7518.641"
"681","7509.626"
"682","7496.019"
"683","7478.566"
"684","7459.976"
"685","7443.109"
"686","7430.69"
"687","7423.441"
"688","7420.496"
"689","7420.946"
"690","7424.295"
"691","7432.667"
"692","7449.228"
"693","7477.139"
"694","7516.41"
"695","7557.634"
"696","7589.664"
"697","7601.561"
"698","7591.683"
"699","7571.9"
"700","7555.119"
"701","7553.352"
"702","7566.574"
"703","7586.013"
"704","7602.712"
"705","7609.413"
"706","7608.249"
"707","7604.606"
"708","7603.862"
"709","7608.076"
"710","7611.11"
"711","7605.583"
"712","7584.465"
"713","7551.35"
"714","7522.275"
"715","7513.959"
"716","7540.614"
"717","7592.479"
"718","7646.401"
"719","7679.125"
"720","7674.761"
"721","7646.327"
"722","7613.954"
"723","7597.592"
"724","7605.92"
"725","7628.191"
"726","7651.762"
"727","7664.626"
"728","7664.532"
"729","7656.981"
"730","7647.688"
"731","7641.917"
"732","7642.444"
"733","7651.171"
"734","7669.985"
"735","7697.994"
"736","7727.882"
"737","7751.424"
"738","7760.7"
"739","7754.803"
"740","7739.995"
"741","7722.853"
"742","7709.384"
"743","7701.386"
"744","7698.778"
"745","7701.471"
"746","7708.956"
"747","7719.517"
"748","7731.233"
"749","7742.26"
"750","7753.252"
"751","7767.869"
"752","7789.938"
"753","7822.333"
"754","7859.662"
"755","7892.302"
"756","7910.609"
"757","7909.94"
"758","7901.597"
"759","7900.04"
"760","7919.328"
"761","7959.081"
"762","8000.379"
"763","8023.111"
"764","8009.994"
"765","7969.378"
"766","7923.297"
"767","7893.88"
"768","7895.039"
"769","7914.251"
"770","7933.697"
"771","7935.999"
"772","7918.986"
"773","7899.6"
"774","7895.983"
"775","7923.498"
"776","7973.93"
"777","8027.11"
"778","8062.811"
"779","8069.208"
"780","8059.224"
"781","8050.305"
"782","8059.39"
"783","8089.324"
"784","8127.032"
"785","8158.598"
"786","8171.915"
"787","8167.811"
"788","8152.794"
"789","8133.391"
"790","8115.624"
"791","8104.307"
"792","8104.065"
"793","8119.189"
"794","8147.109"
"795","8178.871"
"796","8205.289"
"797","8218.897"
"798","8221.789"
"799","8219.349"
"800","8216.945"
"801","8218.216"
"802","8223.534"
"803","8232.911"
"804","8246.203"
"805","8261.24"
"806","8274.422"
"807","8282.116"
"808","8282.282"
"809","8279.113"
"810","8278.321"
"811","8285.522"
"812","8302.328"
"813","8324.939"
"814","8349.18"
"815","8371.124"
"816","8388.949"
"817","8401.862"
"818","8409.078"
"819","8410.992"
"820","8410.998"
"821","8412.962"
"822","8420.462"
"823","8431.578"
"824","8439.456"
"825","8437.062"
"826","8419.752"
"827","8394.569"
"828","8372.137"
"829","8362.952"
"830","8370.253"
"831","8385.839"
"832","8400.505"
"833","8406.155"
"834","8405.203"
"835","8405.837"
"836","8416.307"
"837","8440.661"
"838","8471.437"
"839","8499.207"
"840","8514.979"
"841","8518.398"
"842","8517.094"
"843","8518.98"
"844","8529.312"
"845","8540.475"
"846","8541.001"
"847","8519.668"
"848","8478.674"
"849","8440.158"
"850","8427.889"
"851","8461.839"
"852","8530.433"
"853","8606.381"
"854","8662.338"
"855","8682.82"
"856","8680.448"
"857","8671.901"
"858","8673.053"
"859","8687.61"
"860","8709.89"
"861","8733.956"
"862","8754.714"
"863","8770.188"
"864","8779.141"
"865","8780.464"
"866","8776.941"
"867","8775.831"
"868","8784.641"
"869","8808.918"
"870","8842.771"
"871","8876.157"
"872","8899.11"
"873","8907.388"
"874","8906.297"
"875","8902.055"
"876","8900.461"
"877","8903.626"
"878","8911.684"
"879","8924.76"
"880","8941.808"
"881","8959.013"
"882","8972.149"
"883","8977.438"
"884","8977.278"
"885","8978.64"
"886","8988.592"
"887","9010.528"
"888","9035.456"
"889","9051.789"
"890","9048.54"
"891","9028.428"
"892","9007.762"
"893","9003.436"
"894","9027.455"
"895","9069.153"
"896","9111.293"
"897","9136.979"
"898","9142.539"
"899","9141.44"
"900","9148.292"
"901","9174.578"
"902","9212.311"
"903","9245.995"
"904","9260.274"
"905","9250.496"
"906","9229.716"
"907","9212.651"
"908","9212.214"
"909","9226.48"
"910","9246.24"
"911","9262.257"
"912","9269.961"
"913","9274.417"
"914","9281.879"
"915","9297.835"
"916","9319.574"
"917","9339.428"
"918","9349.662"
"919","9345.547"
"920","9329.949"
"921","9306.915"
"922","9280.588"
"923","9256.457"
"924","9240.986"
"925","9240.657"
"926","9257.993"
"927","9283.571"
"928","9305.709"
"929","9313.448"
"930","9308.192"
"931","9301.717"
"932","9306.13"
"933","9328.164"
"934","9355.589"
"935","9371.984"
"936","9361.832"
"937","9328.6"
"938","9293.82"
"939","9279.742"
"940","9301.212"
"941","9343.281"
"942","9383.521"
"943","9400.189"
"944","9389.114"
"945","9364.599"
"946","9341.841"
"947","9332.669"
"948","9333.924"
"949","9338.277"
"950","9338.534"
"951","9331.507"
"952","9318.561"
"953","9301.303"
"954","9282.074"
"955","9266.68"
"956","9261.973"
"957","9274.528"
"958","9301.743"
"959","9329.965"
"960","9344.881"
"961","9335.81"
"962","9310.427"
"963","9282.208"
"964","9264.448"
"965","9263.664"
"966","9277.945"
"967","9304.854"
"968","9340.794"
"969","9376.171"
"970","9399.449"
"971","9399.402"
"972","9376.419"
"973","9345.522"
"974","9322.676"
"975","9320.041"
"976","9329.979"
"977","9338.416"
"978","9331.55"
"979","9305.736"
"980","9270.021"
"981","9234.251"
"982","9207.321"
"983","9193.25"
"984","9194.503"
"985","9213.345"
"986","9245.221"
"987","9277.293"
"988","9296.219"
"989","9292.366"
"990","9274.236"
"991","9255.86"
"992","9250.994"
"993","9264.617"
"994","9291.545"
"995","9326.028"
"996","9362.814"
"997","9398.941"
"998","9432.107"
"999","9460.08"
"1000","9482.612"
"1001","9501.61"
"1002","9519.095"
"1003","9536.308"
"1004","9551.259"
"1005","9561.108"
"1006","9563.021"
"1007","9555.776"
"1008","9542.221"
"1009","9525.833"
"1010","9509.854"
"1011","9495.081"
"1012","9480.864"
"1013","9466.554"
"1014","9453.021"
"1015","9444.164"
"1016","9444.229"
"1017","9456.291"
"1018","9474.578"
"1019","9489.286"
"1020","9490.76"
"1021","9478.941"
"1022","9468.112"
"1023","9473.742"
"1024","9506.941"
"1025","9555.462"
"1026","9599.261"
"1027","9618.872"
"1028","9611.115"
"1029","9590.737"
"1030","9573.428"
"1031","9571.604"
"1032","9585.618"
"1033","9613.022"
"1034","9651.03"
"1035","9691.421"
"1036","9721.729"
"1037","9729.399"
"1038","9710.559"
"1039","9682.814"
"1040","9667.037"
"1041","9681.381"
"1042","9719.249"
"1043","9760.885"
"1044","9786.564"
"1045","9788.539"
"1046","9778.5"
"1047","9769.932"
"1048","9774.155"
"1049","9790.654"
"1050","9814.907"
"1051","9842.4"
"1052","9869.199"
"1053","9891.975"
"1054","9907.425"
"1055","9912.998"
"1056","9908.606"
"1057","9894.65"
"1058","9871.996"
"1059","9846.983"
"1060","9829.522"
"1061","9829.533"
"1062","9850.734"
"1063","9885.031"
"1064","9923.001"
"1065","9956.306"
"1066","9983.306"
"1067","10004.92"
"1068","10022.05"
"1069","10034.77"
"1070","10042.23"
"1071","10043.55"
"1072","10038.81"
"1073","10031.28"
"1074","10024.93"
"1075","10023.38"
"1076","10026.7"
"1077","10032.68"
"1078","10039.13"
"1079","10045.09"
"1080","10051.81"
"1081","10060.76"
"1082","10072.8"
"1083","10085.42"
"1084","10095"
"1085","10098.07"
"1086","10094.1"
"1087","10085.38"
"1088","10074.25"
"1089","10062.08"
"1090","10047.61"
"1091","10029.18"
"1092","10005.9"
"1093","9983.174"
"1094","9969.426"
"1095","9972.882"
"1096","9993.472"
"1097","10020.54"
"1098","10042.77"
"1099","10051.13"
"1100","10044.91"
"1101","10025.2"
"1102","9993.64"
"1103","9957.82"
"1104","9929.047"
"1105","9918.537"
"1106","9927.304"
"1107","9939.973"
"1108","9939.689"
"1109","9915.262"
"1110","9880.679"
"1111","9856.926"
"1112","9863.267"
"1113","9894.299"
"1114","9926.287"
"1115","9935.185"
"1116","9911.827"
"1117","9874.771"
"1118","9845.628"
"1119","9842.107"
"1120","9862.09"
"1121","9897.172"
"1122","9938.82"
"1123","9976.637"
"1124","9998.701"
"1125","9993.121"
"1126","9959.322"
"1127","9919.227"
"1128","9897.442"
"1129","9911.942"
"1130","9945.535"
"1131","9969.423"
"1132","9956.714"
"1133","9912.246"
"1134","9866.881"
"1135","9852.101"
"1136","9879.099"
"1137","9919.494"
"1138","9940.33"
"1139","9917.571"
"1140","9872.096"
"1141","9838.845"
"1142","9850.095"
"1143","9898.599"
"1144","9946.997"
"1145","9957.459"
"1146","9918.161"
"1147","9862.945"
"1148","9830.297"
"1149","9848.098"
"1150","9898.207"
"1151","9950.02"
"1152","9975.213"
"1153","9972.56"
"1154","9958.468"
"1155","9949.464"
"1156","9952.483"
"1157","9960.474"
"1158","9965.278"
"1159","9962.35"
"1160","9959.486"
"1161","9967.103"
"1162","9993.407"
"1163","10027.54"
"1164","10048.92"
"1165","10037.67"
"1166","9997.229"
"1167","9957.027"
"1168","9947.854"
"1169","9984.488"
"1170","10042.15"
"1171","10090.04"
"1172","10103.2"
"1173","10090.91"
"1174","10074.82"
"1175","10075.32"
"1176","10092.35"
"1177","10109.64"
"1178","10110.62"
"1179","10092.35"
"1180","10074.64"
"1181","10079.45"
"1182","10119.62"
"1183","10174.2"
"1184","10214.44"
"1185","10215.39"
"1186","10185.31"
"1187","10149.5"
"1188","10132.63"
"1189","10139.29"
"1190","10152.74"
"1191","10155.3"
"1192","10138.95"
"1193","10116.79"
"1194","10104.69"
"1195","10114.48"
"1196","10138.9"
"1197","10165"
"1198","10180.84"
"1199","10185.75"
"1200","10186.01"
"1201","10187.95"
"1202","10195"
"1203","10207.04"
"1204","10223.74"
"1205","10243.01"
"1206","10258.56"
"1207","10263.41"
"1208","10252.62"
"1209","10231.65"
"1210","10209.31"
"1211","10194.07"
"1212","10190.35"
"1213","10199.89"
"1214","10224.22"
"1215","10258"
"1216","10287.41"
"1217","10298.13"
"1218","10285.03"
"1219","10264.76"
"1220","10257.15"
"1221","10275.92"
"1222","10305.53"
"1223","10321.69"
"1224","10303.3"
"1225","10261.98"
"1226","10228.48"
"1227","10232.69"
"1228","10275.99"
"1229","10329.04"
"1230","10361.11"
"1231","10359.03"
"1232","10344.28"
"1233","10342.44"
"1234","10370.61"
"1235","10413.75"
"1236","10449.21"
"1237","10457.47"
"1238","10442.38"
"1239","10418.4"
"1240","10399.67"
"1241","10394.33"
"1242","10405.61"
"1243","10436.46"
"1244","10483.29"
"1245","10533.15"
"1246","10572.37"
"1247","10592.09"
"1248","10595.93"
"1249","10589.43"
"1250","10577.56"
"1251","10562.49"
"1252","10545.54"
"1253","10528.66"
"1254","10519.37"
"1255","10528.2"
"1256","10564.82"
"1257","10621.22"
"1258","10673.29"
"1259","10696.61"
"1260","10685.05"
"1261","10660.59"
"1262","10647.56"
"1263","10659.54"
"1264","10681.56"
"1265","10694.04"
"1266","10682.94"
"1267","10660.18"
"1268","10645.21"
"1269","10654.85"
"1270","10683.5"
"1271","10714.36"
"1272","10731.33"
"1273","10731.31"
"1274","10721.91"
"1275","10710.97"
"1276","10701.97"
"1277","10692.66"
"1278","10680.39"
"1279","10663.87"
"1280","10644.69"
"1281","10624.83"
"1282","10606.48"
"1283","10592.65"
"1284","10586.51"
"1285","10590.64"
"1286","10603.83"
"1287","10623.5"
"1288","10646.77"
"1289","10667.97"
"1290","10679.74"
"1291","10675.31"
"1292","10660.15"
"1293","10650.95"
"1294","10664.54"
"1295","10703.42"
"1296","10750"
"1297","10785.23"
"1298","10800.35"
"1299","10808.93"
"1300","10827.45"
"1301","10865.31"
"1302","10907.85"
"1303","10935.28"
"1304","10932.31"
"1305","10907.85"
"1306","10878.91"
"1307","10860.89"
"1308","10855.28"
"1309","10856.49"
"1310","10858.9"
"1311","10857.71"
"1312","10848.72"
"1313","10827.99"
"1314","10798.66"
"1315","10771.63"
"1316","10758.04"
"1317","10759.3"
"1318","10761.36"
"1319","10748.8"
"1320","10716.54"
"1321","10683.17"
"1322","10670.59"
"1323","10690.71"
"1324","10721.43"
"1325","10733.44"
"1326","10705.33"
"1327","10655.1"
"1328","10613.04"
"1329","10605.01"
"1330","10623.72"
"1331","10646.99"
"1332","10654.3"
"1333","10644.39"
"1334","10628.13"
"1335","10616.02"
"1336","10608.36"
"1337","10596.58"
"1338","10572.03"
"1339","10530.72"
"1340","10474.19"
"1341","10404.39"
"1342","10328.24"
"1343","10260.54"
"1344","10216.77"
"1345","10208.38"
"1346","10238.2"
"1347","10307.9"
"1348","10410.86"
"1349","10516.14"
"1350","10588.45"
"1351","10604.78"
"1352","10590.8"
"1353","10584.19"
"1354","10614.57"
"1355","10668.03"
"1356","10716.17"
"1357","10733.72"
"1358","10718.27"
"1359","10677.52"
"1360","10619.94"
"1361","10561.3"
"1362","10521.48"
"1363","10518.62"
"1364","10545.23"
"1365","10575.1"
"1366","10582.84"
"1367","10567.4"
"1368","10550.21"
"1369","10552.93"
"1370","10579.53"
"1371","10613.68"
"1372","10638.08"
"1373","10643.07"
"1374","10629.84"
"1375","10600.49"
"1376","10562.36"
"1377","10531.97"
"1378","10526.73"
"1379","10552.33"
"1380","10589.15"
"1381","10614.29"
"1382","10613.78"
"1383","10597.38"
"1384","10578.73"
"1385","10567.18"
"1386","10558.27"
"1387","10544.71"
"1388","10522.1"
"1389","10497.36"
"1390","10480.24"
"1391","10478.64"
"1392","10491.82"
"1393","10516.45"
"1394","10548.02"
"1395","10575.37"
"1396","10584.93"
"1397","10566.51"
"1398","10532.83"
"1399","10506.14"
"1400","10505.43"
"1401","10522.95"
"1402","10538.06"
"1403","10532.28"
"1404","10508.73"
"1405","10482.49"
"1406","10467.81"
"1407","10468.01"
"1408","10479.54"
"1409","10498.42"
"1410","10516.65"
"1411","10523.33"
"1412","10508.56"
"1413","10478.09"
"1414","10450.07"
"1415","10442.18"
"1416","10457.69"
"1417","10487.41"
"1418","10521.73"
"1419","10551.26"
"1420","10566.85"
"1421","10559.86"
"1422","10534.06"
"1423","10506.01"
"1424","10492.6"
"1425","10502.76"
"1426","10536.62"
"1427","10593.55"
"1428","10663.75"
"1429","10726.55"
"1430","10761.24"
"1431","10769.99"
"1432","10783.57"
"1433","10833.88"
"1434","10924.07"
"1435","11019.4"
"1436","11083.06"
"1437","11101.52"
"1438","11093.21"
"1439","11078.76"
"1440","11070.96"
"1441","11071.55"
"1442","11081.35"
"1443","11098.21"
"1444","11115.61"
"1445","11126.75"
"1446","11128.54"
"1447","11123.38"
"1448","11114.05"
"1449","11099.16"
"1450","11071.14"
"1451","11022.11"
"1452","10957.36"
"1453","10901.85"
"1454","10881.75"
"1455","10901.23"
"1456","10931.79"
"1457","10942.62"
"1458","10919.42"
"1459","10872.07"
"1460","10812.38"
"1461","10752.9"
"1462","10707.19"
"1463","10688.53"
"1464","10693.22"
"1465","10694.1"
"1466","10662.86"
"1467","10595.9"
"1468","10522.39"
"1469","10473.15"
"1470","10453.7"
"1471","10437.59"
"1472","10397.05"
"1473","10329.66"
"1474","10263.34"
"1475","10227"
"1476","10226.05"
"1477","10239.46"
"1478","10245.18"
"1479","10231.95"
"1480","10199.7"
"1481","10149.29"
"1482","10088.86"
"1483","10033.69"
"1484","9998.634"
"1485","9985.748"
"1486","9985.694"
"1487","9988.847"
"1488","9987.377"
"1489","9974.893"
"1490","9946.425"
"1491","9915.968"
"1492","9911.284"
"1493","9956.781"
"1494","10033.59"
"1495","10094.76"
"1496","10097.75"
"1497","10049.03"
"1498","9983.174"
"1499","9932.216"
"1500","9903.245"
"1501","9890.829"
"1502","9888.924"
"1503","9887.844"
"1504","9876.313"
"1505","9846.627"
"1506","9812.714"
"1507","9796.583"
"1508","9814.109"
"1509","9850.044"
"1510","9879.313"
"1511","9883.607"
"1512","9873.178"
"1513","9865.792"
"1514","9872.444"
"1515","9880.507"
"1516","9872.208"
"1517","9839.318"
"1518","9800.911"
"1519","9780.889"
"1520","9790.646"
"1521","9812.228"
"1522","9823.563"
"1523","9812.978"
"1524","9788.733"
"1525","9761.271"
"1526","9735.598"
"1527","9708.241"
"1528","9675.163"
"1529","9638.363"
"1530","9607.498"
"1531","9592.172"
"1532","9588.718"
"1533","9579.863"
"1534","9548.62"
"1535","9493.259"
"1536","9424.575"
"1537","9354.056"
"1538","9296.73"
"1539","9269.959"
"1540","9288.413"
"1541","9343.087"
"1542","9412.896"
"1543","9478.076"
"1544","9528.061"
"1545","9555.888"
"1546","9557.78"
"1547","9545.057"
"1548","9533.532"
"1549","9534.3"
"1550","9541.794"
"1551","9546.784"
"1552","9545.209"
"1553","9546.523"
"1554","9562.3"
"1555","9595.386"
"1556","9631.643"
"1557","9655.114"
"1558","9657.222"
"1559","9640.125"
"1560","9606.925"
"1561","9563.393"
"1562","9518.18"
"1563","9479.737"
"1564","9450.683"
"1565","9428.935"
"1566","9412.488"
"1567","9401.424"
"1568","9397.059"
"1569","9400.343"
"1570","9409.547"
"1571","9421.796"
"1572","9433.819"
"1573","9440.464"
"1574","9436.004"
"1575","9418.057"
"1576","9395.112"
"1577","9377.861"
"1578","9371.729"
"1579","9370.263"
"1580","9365.455"
"1581","9353.682"
"1582","9338.228"
"1583","9323.022"
"1584","9313.065"
"1585","9314.539"
"1586","9332.869"
"1587","9361.25"
"1588","9383.461"
"1589","9385.297"
"1590","9373.027"
"1591","9363.742"
"1592","9370.978"
"1593","9387.388"
"1594","9398.258"
"1595","9392.927"
"1596","9375.675"
"1597","9354.199"
"1598","9335.791"
"1599","9326.789"
"1600","9333.247"
"1601","9352.661"
"1602","9369.147"
"1603","9366.265"
"1604","9342.779"
"1605","9313.262"
"1606","9292.287"
"1607","9284.879"
"1608","9289.491"
"1609","9304.404"
"1610","9327.513"
"1611","9356.546"
"1612","9387.833"
"1613","9411.563"
"1614","9416.234"
"1615","9398.256"
"1616","9375.431"
"1617","9368.972"
"1618","9387.499"
"1619","9418.371"
"1620","9446.927"
"1621","9459.611"
"1622","9444.049"
"1623","9390.568"
"1624","9322.383"
"1625","9284.979"
"1626","9315.933"
"1627","9395.941"
"1628","9482.03"
"1629","9539.112"
"1630","9563.431"
"1631","9558.913"
"1632","9530.646"
"1633","9486.384"
"1634","9434.337"
"1635","9385.569"
"1636","9355.084"
"1637","9357.293"
"1638","9391.004"
"1639","9441.87"
"1640","9495.178"
"1641","9536.643"
"1642","9552.188"
"1643","9534.366"
"1644","9506.343"
"1645","9500.109"
"1646","9532.489"
"1647","9581.239"
"1648","9618.159"
"1649","9629.381"
"1650","9622.272"
"1651","9606.055"
"1652","9592.099"
"1653","9593.643"
"1654","9621.631"
"1655","9666.989"
"1656","9710.582"
"1657","9736.273"
"1658","9741.557"
"1659","9727.669"
"1660","9697.138"
"1661","9655.52"
"1662","9608.808"
"1663","9562.517"
"1664","9521.539"
"1665","9490.663"
"1666","9473.672"
"1667","9473.604"
"1668","9490.545"
"1669","9504.908"
"1670","9489.021"
"1671","9429.756"
"1672","9363.608"
"1673","9337.283"
"1674","9361.483"
"1675","9382.451"
"1676","9342.425"
"1677","9245.074"
"1678","9154.233"
"1679","9128.192"
"1680","9151.716"
"1681","9170.563"
"1682","9145.513"
"1683","9104.211"
"1684","9092.303"
"1685","9128.344"
"1686","9172.053"
"1687","9176.57"
"1688","9130.661"
"1689","9063.75"
"1690","9005.489"
"1691","8963.861"
"1692","8933.771"
"1693","8910.902"
"1694","8895.588"
"1695","8889.555"
"1696","8892.016"
"1697","8896.318"
"1698","8895.151"
"1699","8887.008"
"1700","8877.274"
"1701","8871.377"
"1702","8870.723"
"1703","8874.274"
"1704","8880.168"
"1705","8882.799"
"1706","8875.475"
"1707","8856.074"
"1708","8832.608"
"1709","8814.262"
"1710","8804.836"
"1711","8802.235"
"1712","8803.904"
"1713","8805.943"
"1714","8803.711"
"1715","8794.651"
"1716","8784.754"
"1717","8782.103"
"1718","8787.644"
"1719","8789.015"
"1720","8773.249"
"1721","8744.19"
"1722","8720.922"
"1723","8719.595"
"1724","8731.381"
"1725","8736.657"
"1726","8724.388"
"1727","8709.954"
"1728","8713.476"
"1729","8740.206"
"1730","8774.541"
"1731","8799.998"
"1732","8808.747"
"1733","8798.715"
"1734","8770.055"
"1735","8733.071"
"1736","8701.086"
"1737","8682.872"
"1738","8677.801"
"1739","8684.053"
"1740","8699.11"
"1741","8719.804"
"1742","8741.998"
"1743","8755.076"
"1744","8745.622"
"1745","8708.912"
"1746","8665.275"
"1747","8639.113"
"1748","8638.328"
"1749","8649.968"
"1750","8660.591"
"1751","8665.425"
"1752","8664.631"
"1753","8658.137"
"1754","8644.794"
"1755","8623.286"
"1756","8598.469"
"1757","8584.972"
"1758","8596.689"
"1759","8626.229"
"1760","8651.246"
"1761","8652.764"
"1762","8629.17"
"1763","8584.013"
"1764","8528.929"
"1765","8490.688"
"1766","8495.749"
"1767","8537.679"
"1768","8583.463"
"1769","8604.413"
"1770","8599.565"
"1771","8577.232"
"1772","8546.83"
"1773","8520.03"
"1774","8508.367"
"1775","8515.325"
"1776","8537.341"
"1777","8568.037"
"1778","8586.26"
"1779","8565.674"
"1780","8502.661"
"1781","8442.688"
"1782","8434.989"
"1783","8477.583"
"1784","8523.009"
"1785","8530.846"
"1786","8510.369"
"1787","8488.431"
"1788","8482.867"
"1789","8492.479"
"1790","8513.009"
"1791","8528.862"
"1792","8514.825"
"1793","8455.563"
"1794","8389.681"
"1795","8373.312"
"1796","8428.147"
"1797","8509.776"
"1798","8568.487"
"1799","8588.037"
"1800","8577.63"
"1801","8546.739"
"1802","8503.105"
"1803","8454.072"
"1804","8412.59"
"1805","8400.801"
"1806","8437.897"
"1807","8498.847"
"1808","8530.262"
"1809","8496.466"
"1810","8428.663"
"1811","8372.919"
"1812","8354.475"
"1813","8370.914"
"1814","8414.985"
"1815","8454.655"
"1816","8445.381"
"1817","8370.224"
"1818","8288.79"
"1819","8271.313"
"1820","8326.69"
"1821","8401.793"
"1822","8447.632"
"1823","8456.886"
"1824","8437.581"
"1825","8399.385"
"1826","8355.146"
"1827","8317.985"
"1828","8299.302"
"1829","8309.245"
"1830","8350.124"
"1831","8393.313"
"1832","8403.056"
"1833","8368.646"
"1834","8313.103"
"1835","8260.54"
"1836","8224.314"
"1837","8212.582"
"1838","8228.828"
"1839","8264.961"
"1840","8311.024"
"1841","8355.778"
"1842","8386.856"
"1843","8394.473"
"1844","8381.299"
"1845","8353.813"
"1846","8325.838"
"1847","8322.3"
"1848","8363.532"
"1849","8419.666"
"1850","8434.296"
"1851","8380.508"
"1852","8309.85"
"1853","8283.6"
"1854","8303.359"
"1855","8317.67"
"1856","8288.258"
"1857","8246.892"
"1858","8244.913"
"1859","8295.84"
"1860","8358.528"
"1861","8391.849"
"1862","8390.182"
"1863","8365.15"
"1864","8331.316"
"1865","8309.736"
"1866","8320.414"
"1867","8353.176"
"1868","8374.68"
"1869","8362.329"
"1870","8336.421"
"1871","8326.535"
"1872","8335.921"
"1873","8337.128"
"1874","8306.96"
"1875","8258.642"
"1876","8218.888"
"1877","8206.847"
"1878","8228.443"
"1879","8285.017"
"1880","8346.413"
"1881","8364.915"
"1882","8320.238"
"1883","8262.934"
"1884","8251.101"
"1885","8283.201"
"1886","8309.989"
"1887","8293.944"
"1888","8246.877"
"1889","8192.248"
"1890","8155.213"
"1891","8162.796"
"1892","8229.509"
"1893","8301.751"
"1894","8304.104"
"1895","8223.732"
"1896","8141.819"
"1897","8134.315"
"1898","8176.865"
"1899","8199.298"
"1900","8169.154"
"1901","8129.863"
"1902","8128.843"
"1903","8158.754"
"1904","8179.196"
"1905","8166.779"
"1906","8143.872"
"1907","8138.294"
"1908","8148.289"
"1909","8149.354"
"1910","8126.492"
"1911","8098.649"
"1912","8090.817"
"1913","8104.521"
"1914","8119.004"
"1915","8119.067"
"1916","8116.776"
"1917","8130.678"
"1918","8158.339"
"1919","8173.353"
"1920","8156.596"
"1921","8133.361"
"1922","8142.315"
"1923","8184.555"
"1924","8210.739"
"1925","8179.333"
"1926","8118.777"
"1927","8083.409"
"1928","8094.901"
"1929","8124.554"
"1930","8143.49"
"1931","8152.418"
"1932","8164.599"
"1933","8177.649"
"1934","8162.201"
"1935","8094.447"
"1936","8016.616"
"1937","8002.089"
"1938","8070.55"
"1939","8140.353"
"1940","8130.315"
"1941","8062.736"
"1942","8013.038"
"1943","8023.011"
"1944","8066.15"
"1945","8109.535"
"1946","8136.801"
"1947","8140.538"
"1948","8119.858"
"1949","8087.226"
"1950","8056.241"
"1951","8035.217"
"1952","8029.525"
"1953","8039.933"
"1954","8057.637"
"1955","8072.199"
"1956","8069.379"
"1957","8032.926"
"1958","7963.695"
"1959","7897.771"
"1960","7871.02"
"1961","7876.709"
"1962","7885.386"
"1963","7880.724"
"1964","7872.781"
"1965","7872.707"
"1966","7874.527"
"1967","7863.709"
"1968","7838.7"
"1969","7821.961"
"1970","7833.747"
"1971","7856.686"
"1972","7856.152"
"1973","7822.094"
"1974","7785.868"
"1975","7776.676"
"1976","7781.451"
"1977","7769.85"
"1978","7734.167"
"1979","7700.543"
"1980","7692.757"
"1981","7704.11"
"1982","7716.896"
"1983","7717.312"
"1984","7696.643"
"1985","7655.396"
"1986","7637.723"
"1987","7698.409"
"1988","7812.658"
"1989","7868.153"
"1990","7788.924"
"1991","7664.002"
"1992","7618.373"
"1993","7664.057"
"1994","7710.083"
"1995","7693.255"
"1996","7651.872"
"1997","7640.749"
"1998","7660.708"
"1999","7672.815"
"2000","7653.292"
"2001","7618.633"
"2002","7590.339"
"2003","7577.527"
"2004","7582.065"
"2005","7593.41"
"2006","7577.493"
"2007","7507.568"
"2008","7429.693"
"2009","7420.677"
"2010","7486.39"
"2011","7529.944"
"2012","7473.314"
"2013","7378.61"
"2014","7350.03"
"2015","7408.063"
"2016","7483.293"
"2017","7517.081"
"2018","7506.535"
"2019","7462.488"
"2020","7412.747"
"2021","7398.326"
"2022","7434.138"
"2023","7468.904"
"2024","7448.14"
"2025","7384.306"
"2026","7326.366"
"2027","7304.294"
"2028","7314.765"
"2029","7349.313"
"2030","7388.383"
"2031","7408.891"
"2032","7407.436"
"2033","7403.579"
"2034","7410.508"
"2035","7412.147"
"2036","7387.254"
"2037","7342.434"
"2038","7305.964"
"2039","7292.925"
"2040","7285.438"
"2041","7264.613"
"2042","7244.141"
"2043","7253.544"
"2044","7289.833"
"2045","7300.807"
"2046","7246.525"
"2047","7168.228"
"2048","7129.753"
"2049","7143.129"
"2050","7171.227"
"2051","7182.345"
"2052","7166.269"
"2053","7120.399"
"2054","7080.743"
"2055","7105.061"
"2056","7193.98"
"2057","7251.308"
"2058","7196.501"
"2059","7085.555"
"2060","7017.585"
"2061","7023.272"
"2062","7064.905"
"2063","7105.973"
"2064","7122.529"
"2065","7097.049"
"2066","7054.25"
"2067","7042.721"
"2068","7073.618"
"2069","7096.724"
"2070","7070.067"
"2071","7021.924"
"2072","6999.911"
"2073","6998.887"
"2074","6965.789"
"2075","6882.314"
"2076","6824.001"
"2077","6866.911"
"2078","6966.767"
"2079","7021.445"
"2080","6992.975"
"2081","6930.933"
"2082","6883.514"
"2083","6868.331"
"2084","6893.025"
"2085","6931.581"
"2086","6934.098"
"2087","6885.135"
"2088","6836.96"
"2089","6838.073"
"2090","6869.524"
"2091","6889.227"
"2092","6878.991"
"2093","6844.104"
"2094","6791.452"
"2095","6729.527"
"2096","6668.962"
"2097","6635.094"
"2098","6659.262"
"2099","6728.376"
"2100","6772.688"
"2101","6744.794"
"2102","6688.777"
"2103","6664.659"
"2104","6686.808"
"2105","6741.313"
"2106","6798.032"
"2107","6801.949"
"2108","6720.559"
"2109","6629.729"
"2110","6626.588"
"2111","6688.254"
"2112","6704.096"
"2113","6632.964"
"2114","6567.149"
"2115","6587.868"
"2116","6642.856"
"2117","6641.766"
"2118","6578.709"
"2119","6518.365"
"2120","6503.707"
"2121","6527.489"
"2122","6573.959"
"2123","6614.985"
"2124","6619.135"
"2125","6578.714"
"2126","6507.539"
"2127","6427.703"
"2128","6377.917"
"2129","6386.388"
"2130","6403.377"
"2131","6354.553"
"2132","6262.349"
"2133","6238.96"
"2134","6333.417"
"2135","6443.827"
"2136","6465.05"
"2137","6399.517"
"2138","6290.334"
"2139","6191.51"
"2140","6166.659"
"2141","6226.985"
"2142","6269.083"
"2143","6202.529"
"2144","6097.091"
"2145","6072.227"
"2146","6129.37"
"2147","6170.168"
"2148","6146.525"
"2149","6116.386"
"2150","6133.371"
"2151","6166.103"
"2152","6160.34"
"2153","6116.808"
"2154","6077.401"
"2155","6069.927"
"2156","6096.114"
"2157","6146.316"
"2158","6173.982"
"2159","6130.256"
"2160","6052.117"
"2161","6029.741"
"2162","6090.184"
"2163","6169.291"
"2164","6209.864"
"2165","6202.028"
"2166","6147.022"
"2167","6057.042"
"2168","5950.303"
"2169","5856.986"
"2170","5820.641"
"2171","5858.662"
"2172","5920.073"
"2173","5952.038"
"2174","5957.463"
"2175","5959.261"
"2176","5958.402"
"2177","5937.304"
"2178","5897.706"
"2179","5878.197"
"2180","5905.153"
"2181","5934.954"
"2182","5911.686"
"2183","5851.435"
"2184","5813.163"
"2185","5809.042"
"2186","5789.413"
"2187","5725.553"
"2188","5660.579"
"2189","5641.098"
"2190","5650.556"
"2191","5648.043"
"2192","5624.288"
"2193","5597.918"
"2194","5581.276"
"2195","5573.284"
"2196","5572.447"
"2197","5581.423"
"2198","5601.212"
"2199","5606.357"
"2200","5558.285"
"2201","5476.858"
"2202","5449.921"
"2203","5514.825"
"2204","5577.086"
"2205","5547.309"
"2206","5470.637"
"2207","5430.374"
"2208","5416.767"
"2209","5356.081"
"2210","5252.029"
"2211","5219.764"
"2212","5320.093"
"2213","5429.079"
"2214","5415.868"
"2215","5325.449"
"2216","5266.538"
"2217","5247.627"
"2218","5197.434"
"2219","5112.668"
"2220","5101.409"
"2221","5221.606"
"2222","5335.581"
"2223","5297.552"
"2224","5187.262"
"2225","5172.181"
"2226","5258.394"
"2227","5315.784"
"2228","5277.25"
"2229","5186.086"
"2230","5087.7"
"2231","5000.498"
"2232","4935.691"
"2233","4892.427"
"2234","4865.332"
"2235","4859.124"
"2236","4886.32"
"2237","4928.71"
"2238","4920.07"
"2239","4832.806"
"2240","4769.589"
"2241","4831.063"
"2242","4949.498"
"2243","4998.93"
"2244","4947.526"
"2245","4832.841"
"2246","4696.243"
"2247","4582.013"
"2248","4522.714"
"2249","4519.879"
"2250","4562.844"
"2251","4603.928"
"2252","4590.046"
"2253","4537.912"
"2254","4504.925"
"2255","4503.722"
"2256","4497.097"
"2257","4461.47"
"2258","4405.889"
"2259","4342.437"
"2260","4279.739"
"2261","4223.612"
"2262","4164.591"
"2263","4087.442"
"2264","3997.35"
"2265","3916.502"
"2266","3873.32"
"2267","3904.412"
"2268","4003.707"
"2269","4050.771"
"2270","3941.858"
"2271","3751.446"
"2272","3599.396"
"2273","3504.45"
"2274","3429.7"
"2275","3374.855"
"2276","3376.035"
"2277","3435.223"
"2278","3493.274"
"2279","3495.443"
"2280","3419.494"
"2281","3267.592"
"2282","3144.971"
"2283","3174.697"
"2284","3274.537"
"2285","3241.998"
"2286","3047.904"
"2287","2846.389"
"2288","2735.593"
"2289","2698.237"
"2290","2699.323"
"2291","2685.964"
"2292","2614.768"
"2293","2515.669"
"2294","2438.538"
"2295","2374.814"
"2296","2284.011"
"2297","2191.297"
"2298","2185.859"
"2299","2265.811"
"2300","2276.353"
