,"Scan 01147"
"400","12124.15"
"401","12116.73"
"402","12091.89"
"403","12044.9"
"404","11983.26"
"405","11918.36"
"406","11861.48"
"407","11822.76"
"408","11803.48"
"409","11800.64"
"410","11811.24"
"411","11832.1"
"412","11857.72"
"413","11880.95"
"414","11894.67"
"415","11892.2"
"416","11875.8"
"417","11856.42"
"418","11845.31"
"419","11853.46"
"420","11884.31"
"421","11931.24"
"422","11986.92"
"423","12044.1"
"424","12094.5"
"425","12128.01"
"426","12134.35"
"427","12103.36"
"428","12034.26"
"429","11949.64"
"430","11875.5"
"431","11837.7"
"432","11852.16"
"433","11901.79"
"434","11962.63"
"435","12010.88"
"436","12028.22"
"437","12020.48"
"438","12000.24"
"439","11979.99"
"440","11969.73"
"441","11964.88"
"442","11955.58"
"443","11931.98"
"444","11886.81"
"445","11832.09"
"446","11788.82"
"447","11777.89"
"448","11816.79"
"449","11889.71"
"450","11961.68"
"451","11997.72"
"452","11966.12"
"453","11875.61"
"454","11763.12"
"455","11665.96"
"456","11619.27"
"457","11625.73"
"458","11660.94"
"459","11699.86"
"460","11718.52"
"461","11713.19"
"462","11699.82"
"463","11695.07"
"464","11714.84"
"465","11756.21"
"466","11795.22"
"467","11806.96"
"468","11767.35"
"469","11676.76"
"470","11566.5"
"471","11469.68"
"472","11418.74"
"473","11423.4"
"474","11461.49"
"475","11508.57"
"476","11540.56"
"477","11546.86"
"478","11537.65"
"479","11524.87"
"480","11520.25"
"481","11528.44"
"482","11542.15"
"483","11553.04"
"484","11552.87"
"485","11538.1"
"486","11513.6"
"487","11485.05"
"488","11458.1"
"489","11435.6"
"490","11415.29"
"491","11394.33"
"492","11369.93"
"493","11340.71"
"494","11308.01"
"495","11273.46"
"496","11238.68"
"497","11204.37"
"498","11169.39"
"499","11132.41"
"500","11092.12"
"501","11049.3"
"502","11008.75"
"503","10975.71"
"504","10955.35"
"505","10947.73"
"506","10943.14"
"507","10930.81"
"508","10900.1"
"509","10846.66"
"510","10777.73"
"511","10701.8"
"512","10627.28"
"513","10561.66"
"514","10510.95"
"515","10480.91"
"516","10477.2"
"517","10497.51"
"518","10526.48"
"519","10547.55"
"520","10544.48"
"521","10512.64"
"522","10465.03"
"523","10416.07"
"524","10379.91"
"525","10360.71"
"526","10348.84"
"527","10333.68"
"528","10304.93"
"529","10261.29"
"530","10212.59"
"531","10169.35"
"532","10141.73"
"533","10131.42"
"534","10130.83"
"535","10131.92"
"536","10127"
"537","10115.33"
"538","10102.8"
"539","10095.57"
"540","10099.32"
"541","10112.71"
"542","10128.59"
"543","10139.64"
"544","10138.93"
"545","10123.68"
"546","10094.05"
"547","10050.27"
"548","9993.554"
"549","9935.617"
"550","9894.21"
"551","9887.08"
"552","9928.056"
"553","10000.37"
"554","10072.76"
"555","10114.02"
"556","10099.33"
"557","10042.4"
"558","9971.543"
"559","9914.951"
"560","9894.789"
"561","9905.042"
"562","9931.354"
"563","9959.447"
"564","9976.936"
"565","9978.113"
"566","9958.8"
"567","9914.845"
"568","9848.139"
"569","9777.016"
"570","9722.521"
"571","9705.509"
"572","9732.532"
"573","9780.938"
"574","9824.58"
"575","9837.721"
"576","9811.322"
"577","9761.918"
"578","9708.146"
"579","9668.211"
"580","9649.854"
"581","9648.893"
"582","9660.505"
"583","9679.904"
"584","9702.51"
"585","9723.924"
"586","9739.771"
"587","9746.402"
"588","9747.892"
"589","9752.987"
"590","9770.479"
"591","9806.543"
"592","9849.164"
"593","9878.562"
"594","9875.009"
"595","9825.869"
"596","9751.455"
"597","9681.644"
"598","9646.186"
"599","9661.858"
"600","9705.421"
"601","9745.988"
"602","9752.905"
"603","9712.938"
"604","9648.686"
"605","9587.082"
"606","9554.557"
"607","9559.255"
"608","9584.046"
"609","9610.013"
"610","9619.104"
"611","9609.561"
"612","9594.701"
"613","9588.374"
"614","9602.885"
"615","9634.289"
"616","9668.725"
"617","9692.237"
"618","9693.342"
"619","9675.972"
"620","9650.065"
"621","9625.525"
"622","9609.513"
"623","9598.799"
"624","9587.697"
"625","9570.556"
"626","9544.791"
"627","9514.862"
"628","9486.204"
"629","9464.184"
"630","9451.965"
"631","9449.584"
"632","9456.848"
"633","9473.372"
"634","9495.566"
"635","9516.983"
"636","9531.103"
"637","9532.259"
"638","9522.372"
"639","9507.434"
"640","9493.441"
"641","9485.146"
"642","9481.153"
"643","9478.161"
"644","9472.89"
"645","9463.987"
"646","9455.472"
"647","9452.268"
"648","9459.218"
"649","9476.534"
"650","9497.136"
"651","9513.314"
"652","9517.714"
"653","9509.564"
"654","9494.163"
"655","9477.021"
"656","9463.075"
"657","9452.343"
"658","9442.234"
"659","9430.154"
"660","9415.152"
"661","9403.76"
"662","9404.615"
"663","9426.315"
"664","9470.461"
"665","9522.026"
"666","9563.616"
"667","9578.242"
"668","9563.087"
"669","9533.66"
"670","9506.642"
"671","9497.687"
"672","9509.404"
"673","9535.138"
"674","9568.048"
"675","9601.013"
"676","9625.131"
"677","9630.849"
"678","9608.631"
"679","9555.313"
"680","9486.482"
"681","9421.142"
"682","9378.061"
"683","9365.303"
"684","9374.855"
"685","9397.384"
"686","9423.895"
"687","9450.207"
"688","9475.939"
"689","9500.818"
"690","9524.344"
"691","9544.586"
"692","9559.034"
"693","9565.195"
"694","9562.204"
"695","9554.093"
"696","9545.8"
"697","9542.191"
"698","9545.081"
"699","9551.861"
"700","9559.573"
"701","9565.432"
"702","9568.823"
"703","9570.736"
"704","9572.181"
"705","9574.256"
"706","9578.53"
"707","9586.724"
"708","9600.557"
"709","9618.875"
"710","9633.391"
"711","9634.74"
"712","9613.957"
"713","9573.721"
"714","9530.369"
"715","9500.988"
"716","9500.541"
"717","9523.75"
"718","9554.033"
"719","9574.715"
"720","9574.542"
"721","9563.54"
"722","9556.979"
"723","9569.95"
"724","9605.719"
"725","9647.202"
"726","9675.333"
"727","9672.44"
"728","9642.608"
"729","9607.208"
"730","9588.063"
"731","9602.162"
"732","9639.3"
"733","9679.688"
"734","9703.609"
"735","9699.982"
"736","9677.794"
"737","9648.849"
"738","9624.645"
"739","9609.561"
"740","9600.696"
"741","9594.829"
"742","9589.241"
"743","9584.897"
"744","9584.43"
"745","9590.46"
"746","9604.475"
"747","9624.699"
"748","9648.778"
"749","9674.384"
"750","9699.92"
"751","9724.659"
"752","9747.936"
"753","9768.718"
"754","9782.918"
"755","9784.862"
"756","9768.881"
"757","9734.75"
"758","9699.612"
"759","9684.054"
"760","9708.084"
"761","9770.862"
"762","9844.78"
"763","9900.52"
"764","9912.157"
"765","9884.602"
"766","9839.21"
"767","9797.456"
"768","9775.079"
"769","9769.346"
"770","9773.811"
"771","9782.141"
"772","9791.636"
"773","9804.162"
"774","9821.881"
"775","9846.642"
"776","9877.734"
"777","9913.138"
"778","9950.834"
"779","9988.465"
"780","10022.69"
"781","10050"
"782","10067.02"
"783","10074.43"
"784","10077.5"
"785","10081.73"
"786","10091.63"
"787","10104.58"
"788","10114.87"
"789","10116.75"
"790","10107.51"
"791","10091.9"
"792","10075.75"
"793","10064.71"
"794","10059.8"
"795","10057.78"
"796","10055.26"
"797","10049.55"
"798","10041.99"
"799","10035.28"
"800","10032.11"
"801","10035.48"
"802","10048.96"
"803","10076.18"
"804","10119.9"
"805","10171.5"
"806","10214.31"
"807","10231.51"
"808","10212.49"
"809","10170.98"
"810","10126.65"
"811","10098.94"
"812","10096.62"
"813","10114.11"
"814","10144.8"
"815","10181.98"
"816","10217.87"
"817","10244.21"
"818","10252.74"
"819","10240.52"
"820","10218.14"
"821","10198.36"
"822","10193.29"
"823","10203.51"
"824","10219.24"
"825","10230.3"
"826","10228.85"
"827","10218.33"
"828","10205.63"
"829","10197.6"
"830","10196.2"
"831","10195.79"
"832","10190.02"
"833","10173.87"
"834","10154.65"
"835","10146.45"
"836","10163.41"
"837","10211.19"
"838","10272.06"
"839","10324.34"
"840","10347.41"
"841","10342.25"
"842","10329.77"
"843","10331.6"
"844","10362.78"
"845","10406.56"
"846","10436.66"
"847","10427.21"
"848","10375.47"
"849","10313.01"
"850","10274.21"
"851","10288.66"
"852","10346.16"
"853","10416.7"
"854","10470.15"
"855","10488.17"
"856","10480.22"
"857","10459.77"
"858","10439.79"
"859","10425.39"
"860","10415.65"
"861","10409.46"
"862","10406.49"
"863","10409.21"
"864","10420.77"
"865","10444.11"
"866","10476.1"
"867","10506.66"
"868","10525.33"
"869","10524.01"
"870","10508.47"
"871","10489.53"
"872","10477.96"
"873","10481.23"
"874","10501.29"
"875","10539.57"
"876","10596.17"
"877","10659.25"
"878","10710.61"
"879","10732.05"
"880","10716.04"
"881","10680.5"
"882","10647.04"
"883","10636.01"
"884","10649.76"
"885","10677.31"
"886","10707.41"
"887","10731.02"
"888","10746.66"
"889","10754.42"
"890","10754.62"
"891","10753.01"
"892","10760.66"
"893","10788.9"
"894","10844.03"
"895","10909.06"
"896","10960.28"
"897","10974.46"
"898","10948.89"
"899","10907.33"
"900","10875.36"
"901","10873.91"
"902","10895.21"
"903","10920.42"
"904","10930.85"
"905","10919.76"
"906","10900.16"
"907","10886.94"
"908","10893.26"
"909","10918.18"
"910","10953.84"
"911","10992.33"
"912","11027.33"
"913","11055.78"
"914","11075.01"
"915","11082.74"
"916","11080.54"
"917","11072.31"
"918","11062"
"919","11051.96"
"920","11040.47"
"921","11025.21"
"922","11004.36"
"923","10983.68"
"924","10974.37"
"925","10987.7"
"926","11028.85"
"927","11084.42"
"928","11137.5"
"929","11172.01"
"930","11186"
"931","11189.38"
"932","11192.42"
"933","11201.46"
"934","11208.98"
"935","11204.36"
"936","11177.75"
"937","11135.31"
"938","11098.38"
"939","11088.94"
"940","11120.65"
"941","11173.84"
"942","11220.47"
"943","11233.52"
"944","11212.66"
"945","11185.59"
"946","11181.37"
"947","11219.48"
"948","11276.83"
"949","11318.48"
"950","11310.5"
"951","11249.27"
"952","11165.7"
"953","11092.53"
"954","11056.72"
"955","11057.19"
"956","11084.44"
"957","11128.96"
"958","11180.22"
"959","11226.51"
"960","11256.06"
"961","11260.27"
"962","11246.58"
"963","11227.53"
"964","11215.38"
"965","11212.33"
"966","11208.03"
"967","11191.36"
"968","11155.03"
"969","11111.61"
"970","11080.13"
"971","11079.17"
"972","11111.2"
"973","11158.36"
"974","11201.5"
"975","11224.36"
"976","11225.81"
"977","11209.63"
"978","11179.64"
"979","11141.34"
"980","11102.27"
"981","11070.11"
"982","11051.69"
"983","11049.5"
"984","11064.63"
"985","11097.95"
"986","11142.54"
"987","11182"
"988","11199.39"
"989","11183.28"
"990","11149.42"
"991","11121.82"
"992","11123.84"
"993","11158.16"
"994","11203.52"
"995","11237.33"
"996","11242.84"
"997","11230.21"
"998","11217.26"
"999","11221.38"
"1000","11247.46"
"1001","11286.86"
"1002","11330.29"
"1003","11369.29"
"1004","11399.01"
"1005","11415.54"
"1006","11415"
"1007","11398.43"
"1008","11379.37"
"1009","11373.24"
"1010","11393.24"
"1011","11429"
"1012","11456.26"
"1013","11450.71"
"1014","11404.36"
"1015","11341.48"
"1016","11290.06"
"1017","11274.59"
"1018","11292.8"
"1019","11330.24"
"1020","11372.47"
"1021","11409.3"
"1022","11436.91"
"1023","11452.02"
"1024","11453.14"
"1025","11448.59"
"1026","11449.93"
"1027","11468.38"
"1028","11505.18"
"1029","11550.57"
"1030","11594.26"
"1031","11628.17"
"1032","11652.56"
"1033","11669.61"
"1034","11681.37"
"1035","11687.92"
"1036","11687.78"
"1037","11679.44"
"1038","11664.3"
"1039","11650.91"
"1040","11648.9"
"1041","11666.43"
"1042","11698.41"
"1043","11732.65"
"1044","11756.98"
"1045","11765.14"
"1046","11760.53"
"1047","11747.39"
"1048","11730.37"
"1049","11716.22"
"1050","11712.4"
"1051","11725.89"
"1052","11751.25"
"1053","11770.02"
"1054","11763.13"
"1055","11721.76"
"1056","11670.43"
"1057","11640.43"
"1058","11659.91"
"1059","11720.04"
"1060","11787.83"
"1061","11830.02"
"1062","11831.15"
"1063","11809.59"
"1064","11787.56"
"1065","11783.98"
"1066","11797.6"
"1067","11819.5"
"1068","11840.83"
"1069","11856.18"
"1070","11863.96"
"1071","11862.78"
"1072","11853.89"
"1073","11847.2"
"1074","11854.43"
"1075","11885.47"
"1076","11929.67"
"1077","11963.47"
"1078","11963.29"
"1079","11925.68"
"1080","11882.36"
"1081","11868.6"
"1082","11909.58"
"1083","11976.54"
"1084","12022.81"
"1085","12004.15"
"1086","11926.67"
"1087","11843.66"
"1088","11810.21"
"1089","11855.18"
"1090","11939.78"
"1091","12014.47"
"1092","12035.88"
"1093","12010.41"
"1094","11968.22"
"1095","11939.2"
"1096","11934.71"
"1097","11942.46"
"1098","11948.67"
"1099","11942.93"
"1100","11926.9"
"1101","11904.88"
"1102","11881.48"
"1103","11864.61"
"1104","11864.23"
"1105","11890.15"
"1106","11938.94"
"1107","11985.98"
"1108","12004.67"
"1109","11976.76"
"1110","11920.87"
"1111","11865.9"
"1112","11838.98"
"1113","11841.91"
"1114","11857.69"
"1115","11868.95"
"1116","11866.68"
"1117","11857.54"
"1118","11849.87"
"1119","11850.89"
"1120","11862.04"
"1121","11882.92"
"1122","11912.7"
"1123","11943.33"
"1124","11960.92"
"1125","11951.5"
"1126","11913.54"
"1127","11870.35"
"1128","11848.15"
"1129","11865.82"
"1130","11903.13"
"1131","11926.97"
"1132","11906.5"
"1133","11848.84"
"1134","11792.29"
"1135","11775.88"
"1136","11814.61"
"1137","11876.74"
"1138","11925.06"
"1139","11931.56"
"1140","11914.43"
"1141","11906.3"
"1142","11936.89"
"1143","11992.8"
"1144","12027.76"
"1145","11995.08"
"1146","11886.86"
"1147","11763.23"
"1148","11691.24"
"1149","11718.78"
"1150","11810.51"
"1151","11908.56"
"1152","11959.41"
"1153","11961.11"
"1154","11945.26"
"1155","11943.63"
"1156","11966.45"
"1157","11992.57"
"1158","11998.32"
"1159","11970.75"
"1160","11933.34"
"1161","11917.35"
"1162","11949.53"
"1163","12017.84"
"1164","12090.45"
"1165","12136.15"
"1166","12146.9"
"1167","12140.51"
"1168","12136.18"
"1169","12143.9"
"1170","12151.01"
"1171","12141.4"
"1172","12103.96"
"1173","12056.78"
"1174","12028.52"
"1175","12045.86"
"1176","12103.54"
"1177","12170.96"
"1178","12217.04"
"1179","12227.89"
"1180","12218.33"
"1181","12205.9"
"1182","12204.15"
"1183","12211.8"
"1184","12224.16"
"1185","12236.9"
"1186","12249.02"
"1187","12261.18"
"1188","12274"
"1189","12286.5"
"1190","12295.98"
"1191","12299.65"
"1192","12295.9"
"1193","12285.68"
"1194","12270.25"
"1195","12252.43"
"1196","12242.19"
"1197","12251.68"
"1198","12290.98"
"1199","12347.72"
"1200","12395.58"
"1201","12408.67"
"1202","12384.41"
"1203","12348.73"
"1204","12329.3"
"1205","12339.65"
"1206","12358.63"
"1207","12359.84"
"1208","12323.99"
"1209","12268.62"
"1210","12223.15"
"1211","12214.43"
"1212","12238.88"
"1213","12273.26"
"1214","12294.48"
"1215","12296.79"
"1216","12295.86"
"1217","12308.61"
"1218","12342.41"
"1219","12381.83"
"1220","12408.16"
"1221","12407.75"
"1222","12391.51"
"1223","12377.65"
"1224","12382.73"
"1225","12405.97"
"1226","12436.53"
"1227","12463.57"
"1228","12480.49"
"1229","12485.24"
"1230","12476.04"
"1231","12456.54"
"1232","12441.17"
"1233","12445.62"
"1234","12478.47"
"1235","12521.38"
"1236","12549.63"
"1237","12542.81"
"1238","12512.75"
"1239","12485.9"
"1240","12487.28"
"1241","12517.32"
"1242","12556.36"
"1243","12584.44"
"1244","12594.63"
"1245","12598.74"
"1246","12610.02"
"1247","12632.91"
"1248","12649.23"
"1249","12637.25"
"1250","12584.15"
"1251","12519.58"
"1252","12485.85"
"1253","12519.19"
"1254","12600.23"
"1255","12679.95"
"1256","12711.2"
"1257","12689.52"
"1258","12649.41"
"1259","12626.48"
"1260","12636.43"
"1261","12664.29"
"1262","12692.5"
"1263","12708.77"
"1264","12714.77"
"1265","12714.43"
"1266","12711.31"
"1267","12707.25"
"1268","12703.57"
"1269","12701.74"
"1270","12704.53"
"1271","12715.32"
"1272","12737.04"
"1273","12764.6"
"1274","12786.37"
"1275","12790.72"
"1276","12774.99"
"1277","12748.35"
"1278","12720.8"
"1279","12698.76"
"1280","12681.05"
"1281","12665.47"
"1282","12650.23"
"1283","12634.86"
"1284","12619.16"
"1285","12603.09"
"1286","12587.38"
"1287","12573.03"
"1288","12561.36"
"1289","12556.5"
"1290","12564.3"
"1291","12590.05"
"1292","12627.08"
"1293","12657.74"
"1294","12664.35"
"1295","12646.85"
"1296","12629.96"
"1297","12640.22"
"1298","12689.44"
"1299","12757.6"
"1300","12820.46"
"1301","12857.85"
"1302","12863.21"
"1303","12832.92"
"1304","12767.68"
"1305","12691.59"
"1306","12636.56"
"1307","12630.31"
"1308","12664.08"
"1309","12710.53"
"1310","12743.34"
"1311","12753.98"
"1312","12747.26"
"1313","12728.54"
"1314","12707.69"
"1315","12699.55"
"1316","12718.98"
"1317","12763.6"
"1318","12803.79"
"1319","12807.59"
"1320","12764.5"
"1321","12713.55"
"1322","12700.7"
"1323","12753.02"
"1324","12833.44"
"1325","12891.3"
"1326","12887.59"
"1327","12841.56"
"1328","12790.62"
"1329","12767.96"
"1330","12775.12"
"1331","12799.47"
"1332","12828.55"
"1333","12852.9"
"1334","12864.94"
"1335","12857.3"
"1336","12825.89"
"1337","12769.45"
"1338","12687.28"
"1339","12593.75"
"1340","12520.84"
"1341","12501.1"
"1342","12539.16"
"1343","12595.44"
"1344","12626.53"
"1345","12613.24"
"1346","12588.07"
"1347","12590.17"
"1348","12639.58"
"1349","12700.72"
"1350","12727.93"
"1351","12692.72"
"1352","12634.28"
"1353","12608.59"
"1354","12658.07"
"1355","12752.4"
"1356","12836.97"
"1357","12863.99"
"1358","12835.42"
"1359","12775.21"
"1360","12706.74"
"1361","12646.75"
"1362","12608.21"
"1363","12602.78"
"1364","12624.91"
"1365","12656.41"
"1366","12679.52"
"1367","12690.22"
"1368","12697.14"
"1369","12708.97"
"1370","12721.24"
"1371","12714.38"
"1372","12668.53"
"1373","12589.59"
"1374","12520.16"
"1375","12505.31"
"1376","12559.55"
"1377","12643.69"
"1378","12713.19"
"1379","12741.34"
"1380","12739.94"
"1381","12725.81"
"1382","12710.82"
"1383","12693.66"
"1384","12670.89"
"1385","12643.99"
"1386","12630.36"
"1387","12650.7"
"1388","12712.95"
"1389","12774.96"
"1390","12782.2"
"1391","12698.74"
"1392","12577.45"
"1393","12497.58"
"1394","12520.97"
"1395","12609.79"
"1396","12690.88"
"1397","12702.38"
"1398","12659.5"
"1399","12609.52"
"1400","12593.69"
"1401","12603.43"
"1402","12606.1"
"1403","12573.38"
"1404","12519.71"
"1405","12483.25"
"1406","12498.42"
"1407","12554.68"
"1408","12613.19"
"1409","12637.44"
"1410","12628.05"
"1411","12611.81"
"1412","12614.28"
"1413","12632.82"
"1414","12642.62"
"1415","12619.9"
"1416","12570.99"
"1417","12528.29"
"1418","12523.46"
"1419","12553.59"
"1420","12582.97"
"1421","12575.87"
"1422","12528.73"
"1423","12471.14"
"1424","12433.58"
"1425","12429.25"
"1426","12452.12"
"1427","12495.08"
"1428","12547.11"
"1429","12592.65"
"1430","12616.3"
"1431","12618"
"1432","12616.98"
"1433","12633.31"
"1434","12671.94"
"1435","12717.86"
"1436","12754.83"
"1437","12773.11"
"1438","12771.8"
"1439","12750.83"
"1440","12718.28"
"1441","12693.78"
"1442","12697.51"
"1443","12732.08"
"1444","12774.56"
"1445","12800.27"
"1446","12799.83"
"1447","12786.55"
"1448","12775.46"
"1449","12775.62"
"1450","12787.1"
"1451","12809.15"
"1452","12833.41"
"1453","12840.27"
"1454","12809.57"
"1455","12743.5"
"1456","12677.42"
"1457","12648.75"
"1458","12662.79"
"1459","12677.84"
"1460","12649.24"
"1461","12570.38"
"1462","12488.98"
"1463","12455.95"
"1464","12477.42"
"1465","12497.66"
"1466","12457.72"
"1467","12355.32"
"1468","12263.42"
"1469","12258.28"
"1470","12343.77"
"1471","12432.06"
"1472","12431.74"
"1473","12328.1"
"1474","12198.35"
"1475","12123.08"
"1476","12122.71"
"1477","12150.01"
"1478","12155.52"
"1479","12125.18"
"1480","12081.92"
"1481","12049.59"
"1482","12033.08"
"1483","12019.04"
"1484","11994.57"
"1485","11969.99"
"1486","11976.22"
"1487","12041.58"
"1488","12141.3"
"1489","12207.78"
"1490","12177.94"
"1491","12068.03"
"1492","11951.88"
"1493","11899.02"
"1494","11911.99"
"1495","11949.94"
"1496","11974.03"
"1497","11973.45"
"1498","11953.44"
"1499","11920.03"
"1500","11884.12"
"1501","11859.06"
"1502","11855.2"
"1503","11861.24"
"1504","11856.4"
"1505","11825.61"
"1506","11788.19"
"1507","11776.36"
"1508","11812.79"
"1509","11871.76"
"1510","11912.3"
"1511","11904.12"
"1512","11862.17"
"1513","11813.29"
"1514","11780.3"
"1515","11771.9"
"1516","11793.72"
"1517","11842.25"
"1518","11887.87"
"1519","11896.35"
"1520","11853.11"
"1521","11789.64"
"1522","11743.91"
"1523","11736.29"
"1524","11753.42"
"1525","11778.1"
"1526","11793.51"
"1527","11783.37"
"1528","11731.96"
"1529","11643.54"
"1530","11547.63"
"1531","11474.7"
"1532","11437.18"
"1533","11429.04"
"1534","11442.94"
"1535","11463.82"
"1536","11470.3"
"1537","11443.89"
"1538","11402.85"
"1539","11389.42"
"1540","11440.18"
"1541","11539.41"
"1542","11644.61"
"1543","11717.57"
"1544","11749.01"
"1545","11741"
"1546","11698.7"
"1547","11641.68"
"1548","11593.83"
"1549","11572.94"
"1550","11575.31"
"1551","11592.5"
"1552","11618.94"
"1553","11656.52"
"1554","11708.28"
"1555","11766.37"
"1556","11801.77"
"1557","11783.59"
"1558","11710.12"
"1559","11622.09"
"1560","11562.54"
"1561","11545.58"
"1562","11553.9"
"1563","11569.34"
"1564","11584.99"
"1565","11603.04"
"1566","11625.44"
"1567","11649.36"
"1568","11669.09"
"1569","11679.66"
"1570","11681.5"
"1571","11677.32"
"1572","11668.48"
"1573","11649.75"
"1574","11613.92"
"1575","11561.29"
"1576","11516.43"
"1577","11508.85"
"1578","11547.48"
"1579","11595.01"
"1580","11608.19"
"1581","11570.73"
"1582","11508.67"
"1583","11451.45"
"1584","11418.53"
"1585","11418.39"
"1586","11457.22"
"1587","11515.21"
"1588","11552.53"
"1589","11535.68"
"1590","11492.82"
"1591","11484.76"
"1592","11555.49"
"1593","11651.63"
"1594","11685.33"
"1595","11602.91"
"1596","11475.91"
"1597","11404.43"
"1598","11440.63"
"1599","11522.94"
"1600","11573.96"
"1601","11557.02"
"1602","11499.17"
"1603","11432.78"
"1604","11384.24"
"1605","11373.74"
"1606","11417.96"
"1607","11492.64"
"1608","11545.33"
"1609","11532.85"
"1610","11484.22"
"1611","11460.53"
"1612","11505.05"
"1613","11581.23"
"1614","11630.55"
"1615","11618.64"
"1616","11576.57"
"1617","11546.08"
"1618","11549.37"
"1619","11575.6"
"1620","11610.94"
"1621","11646.96"
"1622","11680.94"
"1623","11709.77"
"1624","11721.69"
"1625","11699.11"
"1626","11630.65"
"1627","11547.94"
"1628","11500.5"
"1629","11521.46"
"1630","11579.39"
"1631","11627.06"
"1632","11636.14"
"1633","11621.59"
"1634","11604.2"
"1635","11593.85"
"1636","11585.29"
"1637","11572.69"
"1638","11558.99"
"1639","11554.49"
"1640","11568.38"
"1641","11598.28"
"1642","11635.93"
"1643","11672.46"
"1644","11696.32"
"1645","11695.17"
"1646","11665.35"
"1647","11625.45"
"1648","11597.34"
"1649","11589.12"
"1650","11588.4"
"1651","11581.98"
"1652","11571.79"
"1653","11572.93"
"1654","11598.06"
"1655","11635.59"
"1656","11661.7"
"1657","11660.46"
"1658","11651.15"
"1659","11662.64"
"1660","11700.3"
"1661","11713.89"
"1662","11646.66"
"1663","11505.81"
"1664","11382.86"
"1665","11368.02"
"1666","11448.11"
"1667","11532.72"
"1668","11543.45"
"1669","11495.3"
"1670","11441.62"
"1671","11422.74"
"1672","11434.25"
"1673","11462.15"
"1674","11488.78"
"1675","11490.01"
"1676","11442.48"
"1677","11356.76"
"1678","11276.59"
"1679","11242.04"
"1680","11246.95"
"1681","11260.66"
"1682","11257.09"
"1683","11231.37"
"1684","11184.36"
"1685","11124.67"
"1686","11077.71"
"1687","11070.03"
"1688","11096.29"
"1689","11114.74"
"1690","11085.9"
"1691","11016.07"
"1692","10939.23"
"1693","10883.68"
"1694","10848.22"
"1695","10822.77"
"1696","10802.55"
"1697","10795.23"
"1698","10809.72"
"1699","10839.15"
"1700","10857.87"
"1701","10843.12"
"1702","10815.22"
"1703","10820.76"
"1704","10889.95"
"1705","10973.58"
"1706","10999.15"
"1707","10934.62"
"1708","10837.71"
"1709","10776.86"
"1710","10781.38"
"1711","10837.65"
"1712","10927.1"
"1713","11005.49"
"1714","11014.52"
"1715","10921.24"
"1716","10796.16"
"1717","10735.58"
"1718","10773.78"
"1719","10829.5"
"1720","10813.58"
"1721","10731.07"
"1722","10672.51"
"1723","10714.96"
"1724","10817.05"
"1725","10886.15"
"1726","10865.18"
"1727","10806.59"
"1728","10782.65"
"1729","10814.71"
"1730","10852.74"
"1731","10845.58"
"1732","10794.9"
"1733","10737.56"
"1734","10706.37"
"1735","10711.41"
"1736","10755.82"
"1737","10825.33"
"1738","10869.77"
"1739","10837.66"
"1740","10744.74"
"1741","10670.52"
"1742","10683.25"
"1743","10753.23"
"1744","10808.51"
"1745","10803.68"
"1746","10770.2"
"1747","10752.46"
"1748","10763.68"
"1749","10777.64"
"1750","10768.27"
"1751","10736.46"
"1752","10698.47"
"1753","10670.42"
"1754","10667.17"
"1755","10702.91"
"1756","10768.29"
"1757","10816.67"
"1758","10802.5"
"1759","10738.69"
"1760","10679.24"
"1761","10665.54"
"1762","10675.59"
"1763","10669.08"
"1764","10629.48"
"1765","10584.91"
"1766","10566.8"
"1767","10580.53"
"1768","10610.36"
"1769","10639.98"
"1770","10653.27"
"1771","10634.25"
"1772","10582.13"
"1773","10527.68"
"1774","10504.07"
"1775","10515.42"
"1776","10540.39"
"1777","10559.17"
"1778","10565.61"
"1779","10558.47"
"1780","10544.06"
"1781","10544.89"
"1782","10583.6"
"1783","10644.91"
"1784","10679.8"
"1785","10650.83"
"1786","10593.66"
"1787","10569.69"
"1788","10607.2"
"1789","10664.57"
"1790","10693.26"
"1791","10679.04"
"1792","10636.74"
"1793","10582.55"
"1794","10534.8"
"1795","10512.45"
"1796","10521"
"1797","10540.27"
"1798","10548.39"
"1799","10542.51"
"1800","10534.23"
"1801","10531"
"1802","10519.52"
"1803","10480.97"
"1804","10422.99"
"1805","10396.66"
"1806","10450.22"
"1807","10551.33"
"1808","10616.04"
"1809","10586.86"
"1810","10506.96"
"1811","10441.86"
"1812","10426.45"
"1813","10454.89"
"1814","10515.07"
"1815","10565.49"
"1816","10549.83"
"1817","10446.89"
"1818","10332.98"
"1819","10298.12"
"1820","10358.87"
"1821","10457.55"
"1822","10537.68"
"1823","10570.46"
"1824","10537.45"
"1825","10447.16"
"1826","10361.19"
"1827","10342.44"
"1828","10384.32"
"1829","10429.76"
"1830","10435.07"
"1831","10414.26"
"1832","10395.2"
"1833","10388.03"
"1834","10379"
"1835","10355.35"
"1836","10326.17"
"1837","10311.11"
"1838","10321.5"
"1839","10347.66"
"1840","10376.99"
"1841","10401.88"
"1842","10419.14"
"1843","10424.72"
"1844","10409.77"
"1845","10364.5"
"1846","10304.7"
"1847","10284.88"
"1848","10351.4"
"1849","10447.13"
"1850","10460.24"
"1851","10340.4"
"1852","10200.78"
"1853","10174.59"
"1854","10265.31"
"1855","10361.08"
"1856","10372.33"
"1857","10332.46"
"1858","10309.62"
"1859","10329.61"
"1860","10356.95"
"1861","10356.88"
"1862","10339.52"
"1863","10336.81"
"1864","10363.97"
"1865","10397.06"
"1866","10407.85"
"1867","10388"
"1868","10344.41"
"1869","10288.36"
"1870","10245.92"
"1871","10245.68"
"1872","10285.76"
"1873","10328.64"
"1874","10340.62"
"1875","10323.37"
"1876","10291.72"
"1877","10260.88"
"1878","10246.47"
"1879","10261.48"
"1880","10292.04"
"1881","10309.36"
"1882","10296.71"
"1883","10268.74"
"1884","10244.92"
"1885","10240.95"
"1886","10269.61"
"1887","10328.51"
"1888","10358.89"
"1889","10291.78"
"1890","10146.75"
"1891","10041.59"
"1892","10070.59"
"1893","10172.8"
"1894","10236.37"
"1895","10221.29"
"1896","10195.5"
"1897","10224.46"
"1898","10285.88"
"1899","10317.31"
"1900","10286.92"
"1901","10224.42"
"1902","10165.49"
"1903","10130.38"
"1904","10130.01"
"1905","10164.92"
"1906","10208.84"
"1907","10232.53"
"1908","10228.48"
"1909","10205.82"
"1910","10175.39"
"1911","10152.19"
"1912","10151.23"
"1913","10169.63"
"1914","10187.46"
"1915","10188.42"
"1916","10174.62"
"1917","10153.04"
"1918","10132.47"
"1919","10123.78"
"1920","10135.6"
"1921","10164.25"
"1922","10201.85"
"1923","10228.05"
"1924","10205.88"
"1925","10112.18"
"1926","10015.87"
"1927","10019.24"
"1928","10136.88"
"1929","10248.31"
"1930","10242.88"
"1931","10163"
"1932","10116.22"
"1933","10140.89"
"1934","10155.73"
"1935","10083.08"
"1936","9970.37"
"1937","9924.192"
"1938","9979.678"
"1939","10036.85"
"1940","9995.114"
"1941","9880.92"
"1942","9785.979"
"1943","9767.984"
"1944","9815.271"
"1945","9906.366"
"1946","10005.76"
"1947","10070.39"
"1948","10078.45"
"1949","10052.47"
"1950","10019.75"
"1951","9999.859"
"1952","10008.06"
"1953","10041.71"
"1954","10060.8"
"1955","10027.55"
"1956","9970.693"
"1957","9955.443"
"1958","10006.56"
"1959","10064.74"
"1960","10067.54"
"1961","10020.27"
"1962","9964.39"
"1963","9927.893"
"1964","9911.394"
"1965","9911.71"
"1966","9920.603"
"1967","9927.31"
"1968","9928.805"
"1969","9936.339"
"1970","9958.978"
"1971","9976.791"
"1972","9956.753"
"1973","9901.88"
"1974","9875.708"
"1975","9930.954"
"1976","10005.95"
"1977","9992.682"
"1978","9869.775"
"1979","9745.34"
"1980","9716.823"
"1981","9755.348"
"1982","9787.016"
"1983","9776.189"
"1984","9736.919"
"1985","9688.524"
"1986","9659.682"
"1987","9680.794"
"1988","9748.18"
"1989","9820.654"
"1990","9859.311"
"1991","9842.634"
"1992","9756.205"
"1993","9640.278"
"1994","9584.956"
"1995","9643.782"
"1996","9746.968"
"1997","9805.239"
"1998","9804.601"
"1999","9786.466"
"2000","9775.325"
"2001","9750.074"
"2002","9687.269"
"2003","9610.914"
"2004","9572.297"
"2005","9593.808"
"2006","9641.806"
"2007","9679.426"
"2008","9693.028"
"2009","9679.155"
"2010","9634.256"
"2011","9554.604"
"2012","9444.313"
"2013","9347.922"
"2014","9321.324"
"2015","9373.215"
"2016","9461.588"
"2017","9543.192"
"2018","9579.841"
"2019","9537.929"
"2020","9438.36"
"2021","9344.539"
"2022","9315.777"
"2023","9397.856"
"2024","9606.418"
"2025","9693.022"
"2026","9269.217"
"2027","8374.736"
"2028","7785.282"
"2029","8164.017"
"2030","9056.53"
"2031","9612.855"
"2032","9567.628"
"2033","9338.204"
"2034","9274.78"
"2035","9322.193"
"2036","9337.325"
"2037","9304.262"
"2038","9306.033"
"2039","9379.607"
"2040","9445.553"
"2041","9420.58"
"2042","9334.778"
"2043","9274.343"
"2044","9272.277"
"2045","9280.579"
"2046","9257.158"
"2047","9222.669"
"2048","9214.999"
"2049","9227.852"
"2050","9213.019"
"2051","9145.943"
"2052","9074.913"
"2053","9055.601"
"2054","9085.227"
"2055","9127.093"
"2056","9147.725"
"2057","9119.92"
"2058","9030.205"
"2059","8936.372"
"2060","8917.529"
"2061","8987.498"
"2062","9094.865"
"2063","9184.391"
"2064","9198.479"
"2065","9090.394"
"2066","8928.495"
"2067","8846.54"
"2068","8899.613"
"2069","9013.356"
"2070","9107.34"
"2071","9131.594"
"2072","9049.538"
"2073","8903.479"
"2074","8807.385"
"2075","8825.677"
"2076","8888.265"
"2077","8912.073"
"2078","8884.641"
"2079","8828.249"
"2080","8765.612"
"2081","8719.663"
"2082","8707.663"
"2083","8724.15"
"2084","8757.604"
"2085","8790.771"
"2086","8802.326"
"2087","8780.096"
"2088","8729.844"
"2089","8661.968"
"2090","8601.582"
"2091","8577.862"
"2092","8591.208"
"2093","8613.798"
"2094","8624.886"
"2095","8625.823"
"2096","8622.683"
"2097","8630.308"
"2098","8666.776"
"2099","8711.409"
"2100","8694.131"
"2101","8578.353"
"2102","8456.053"
"2103","8436.476"
"2104","8507.633"
"2105","8583.62"
"2106","8616.91"
"2107","8622.437"
"2108","8614.479"
"2109","8580.404"
"2110","8503.383"
"2111","8411.165"
"2112","8364.006"
"2113","8383.284"
"2114","8416.465"
"2115","8415.252"
"2116","8395.618"
"2117","8391.654"
"2118","8393.826"
"2119","8356.318"
"2120","8271.085"
"2121","8211.556"
"2122","8242.019"
"2123","8313.965"
"2124","8342.036"
"2125","8309.445"
"2126","8261.4"
"2127","8231.884"
"2128","8224.607"
"2129","8235.569"
"2130","8238.811"
"2131","8202.21"
"2132","8137.137"
"2133","8095.322"
"2134","8104.19"
"2135","8132.518"
"2136","8142.445"
"2137","8105.501"
"2138","8000.154"
"2139","7873.729"
"2140","7835.836"
"2141","7919.128"
"2142","7984.059"
"2143","7907.117"
"2144","7785.461"
"2145","7783.667"
"2146","7886.063"
"2147","7924.801"
"2148","7839.142"
"2149","7790.297"
"2150","7909.14"
"2151","8041.491"
"2152","7962.014"
"2153","7712.161"
"2154","7532.556"
"2155","7539.551"
"2156","7626.885"
"2157","7687.229"
"2158","7702.621"
"2159","7680.76"
"2160","7654.967"
"2161","7673.915"
"2162","7740.032"
"2163","7789.487"
"2164","7775.195"
"2165","7723.633"
"2166","7672.636"
"2167","7624.922"
"2168","7566.284"
"2169","7507.054"
"2170","7485.352"
"2171","7520.273"
"2172","7578.672"
"2173","7616.489"
"2174","7573.837"
"2175","7392.688"
"2176","7156.678"
"2177","7068.951"
"2178","7189.318"
"2179","7304.763"
"2180","7242.846"
"2181","7134.88"
"2182","7172.027"
"2183","7306.072"
"2184","7345.838"
"2185","7240.298"
"2186","7123.873"
"2187","7087.522"
"2188","7061.804"
"2189","6972.417"
"2190","6904.706"
"2191","6999.8"
"2192","7209.628"
"2193","7320.285"
"2194","7241.09"
"2195","7119.579"
"2196","7087.354"
"2197","7103.55"
"2198","7091.297"
"2199","7055.092"
"2200","7043.99"
"2201","7063.046"
"2202","7065.586"
"2203","7022.609"
"2204","6955.209"
"2205","6889.773"
"2206","6840.721"
"2207","6816.484"
"2208","6798.898"
"2209","6751.898"
"2210","6680.729"
"2211","6649.597"
"2212","6688.35"
"2213","6712.683"
"2214","6640.085"
"2215","6535.887"
"2216","6517.244"
"2217","6587.212"
"2218","6657.472"
"2219","6680.126"
"2220","6675.64"
"2221","6662.327"
"2222","6631.723"
"2223","6573.135"
"2224","6498.481"
"2225","6429.491"
"2226","6388.489"
"2227","6397.882"
"2228","6450.556"
"2229","6491.121"
"2230","6474.942"
"2231","6408.031"
"2232","6310.138"
"2233","6223.894"
"2234","6197.235"
"2235","6203.054"
"2236","6153.747"
"2237","6039.59"
"2238","5974.678"
"2239","6032.445"
"2240","6129.563"
"2241","6165.604"
"2242","6120.583"
"2243","6008.962"
"2244","5895.16"
"2245","5877.903"
"2246","5948.796"
"2247","5952.741"
"2248","5813.706"
"2249","5686.441"
"2250","5710.567"
"2251","5759.827"
"2252","5647.277"
"2253","5445.069"
"2254","5375.733"
"2255","5477.709"
"2256","5584.736"
"2257","5589.554"
"2258","5525.125"
"2259","5437.53"
"2260","5358.521"
"2261","5306.756"
"2262","5227.25"
"2263","5041.13"
"2264","4833.247"
"2265","4819.771"
"2266","5016.581"
"2267","5141.628"
"2268","5023.125"
"2269","4844.177"
"2270","4794.087"
"2271","4801.488"
"2272","4728.54"
"2273","4582.589"
"2274","4450.769"
"2275","4362.844"
"2276","4291.089"
"2277","4219.309"
"2278","4155.312"
"2279","4110.581"
"2280","4100.561"
"2281","4132.756"
"2282","4165.36"
"2283","4143.364"
"2284","4058.858"
"2285","3933.744"
"2286","3806.985"
"2287","3734.443"
"2288","3723.251"
"2289","3692.425"
"2290","3587.684"
"2291","3466.26"
"2292","3389.054"
"2293","3316.311"
"2294","3182.271"
"2295","3015.172"
"2296","2896.262"
"2297","2836.725"
"2298","2778.184"
"2299","2692.921"
"2300","2608.17"
