,"Scan 01164"
"400","9497.87"
"401","9499.146"
"402","9495.443"
"403","9481.518"
"404","9461.814"
"405","9443.873"
"406","9435.177"
"407","9441.502"
"408","9455.232"
"409","9462.345"
"410","9448.864"
"411","9402.439"
"412","9330.527"
"413","9254.328"
"414","9195.169"
"415","9173.463"
"416","9192.728"
"417","9240.01"
"418","9301.752"
"419","9364.623"
"420","9420.235"
"421","9466.843"
"422","9503.187"
"423","9528.001"
"424","9539.401"
"425","9534.335"
"426","9509.646"
"427","9462.218"
"428","9395.467"
"429","9329.112"
"430","9285.249"
"431","9285.816"
"432","9342.114"
"433","9429.819"
"434","9517.252"
"435","9572.96"
"436","9573.677"
"437","9532.421"
"438","9472.35"
"439","9416.462"
"440","9384.215"
"441","9374.777"
"442","9379.86"
"443","9391.232"
"444","9401.393"
"445","9408.288"
"446","9412.387"
"447","9414.175"
"448","9414.044"
"449","9411.441"
"450","9405.271"
"451","9394.442"
"452","9378.219"
"453","9360.456"
"454","9348.226"
"455","9348.611"
"456","9367.93"
"457","9400.086"
"458","9428.671"
"459","9437.063"
"460","9409.598"
"461","9349.39"
"462","9277.804"
"463","9216.82"
"464","9187.669"
"465","9193.854"
"466","9219.099"
"467","9246.182"
"468","9258.281"
"469","9249.247"
"470","9226.412"
"471","9197.928"
"472","9171.833"
"473","9152.822"
"474","9140.928"
"475","9135.816"
"476","9137.145"
"477","9143.491"
"478","9151.755"
"479","9158.709"
"480","9161.165"
"481","9157.306"
"482","9147.596"
"483","9132.714"
"484","9113.341"
"485","9090.912"
"486","9068.198"
"487","9048.094"
"488","9033.461"
"489","9025.501"
"490","9022.333"
"491","9021.742"
"492","9021.536"
"493","9019.55"
"494","9013.671"
"495","9001.802"
"496","8981.87"
"497","8952.801"
"498","8915.461"
"499","8870.939"
"500","8820.333"
"501","8766.621"
"502","8716.456"
"503","8676.883"
"504","8654.846"
"505","8650.921"
"506","8653.512"
"507","8649.719"
"508","8626.786"
"509","8580.107"
"510","8520.099"
"511","8458.742"
"512","8407.884"
"513","8372.888"
"514","8347.771"
"515","8325.42"
"516","8298.835"
"517","8266.301"
"518","8234.822"
"519","8212.178"
"520","8205.989"
"521","8217.121"
"522","8236.167"
"523","8252.899"
"524","8257.279"
"525","8245.29"
"526","8221.258"
"527","8190.105"
"528","8156.679"
"529","8124.112"
"530","8093.404"
"531","8065.419"
"532","8041.014"
"533","8020.848"
"534","8005.388"
"535","7995.082"
"536","7990.334"
"537","7990.72"
"538","7995"
"539","8001.907"
"540","8010.093"
"541","8016.651"
"542","8017.391"
"543","8008.104"
"544","7985.222"
"545","7953.281"
"546","7922.496"
"547","7903.135"
"548","7904.061"
"549","7920.088"
"550","7937.873"
"551","7944.029"
"552","7927.298"
"553","7892.933"
"554","7854.001"
"555","7823.565"
"556","7812.446"
"557","7817.982"
"558","7832.404"
"559","7847.967"
"560","7858.33"
"561","7863.71"
"562","7866.252"
"563","7868.096"
"564","7870.649"
"565","7872.696"
"566","7872.432"
"567","7868.061"
"568","7859.064"
"569","7848.382"
"570","7839.534"
"571","7835.998"
"572","7838.638"
"573","7842.958"
"574","7843.831"
"575","7836.211"
"576","7818.989"
"577","7797.064"
"578","7775.833"
"579","7760.563"
"580","7753.468"
"581","7753.28"
"582","7758.545"
"583","7767.767"
"584","7778.651"
"585","7788.232"
"586","7793.534"
"587","7792.038"
"588","7786.086"
"589","7780.965"
"590","7781.981"
"591","7793.04"
"592","7808.279"
"593","7817.667"
"594","7811.198"
"595","7782.352"
"596","7740.842"
"597","7701.08"
"598","7677.425"
"599","7678.558"
"600","7695.679"
"601","7716.641"
"602","7729.38"
"603","7726.659"
"604","7711.163"
"605","7686.789"
"606","7657.442"
"607","7627.763"
"608","7603.435"
"609","7590.19"
"610","7593.4"
"611","7611.378"
"612","7635.913"
"613","7658.568"
"614","7671.503"
"615","7672.944"
"616","7664.835"
"617","7649.162"
"618","7628.442"
"619","7608.58"
"620","7596.788"
"621","7600.255"
"622","7622.651"
"623","7654.3"
"624","7682.39"
"625","7694.171"
"626","7682.633"
"627","7653.898"
"628","7615.911"
"629","7576.567"
"630","7542.675"
"631","7519.51"
"632","7512.217"
"633","7525.422"
"634","7554.442"
"635","7586.406"
"636","7608.208"
"637","7608.449"
"638","7590.972"
"639","7567.771"
"640","7550.87"
"641","7549.578"
"642","7559.805"
"643","7573.311"
"644","7581.891"
"645","7580.899"
"646","7575.514"
"647","7572.584"
"648","7578.849"
"649","7595.295"
"650","7613.823"
"651","7625.554"
"652","7622.07"
"653","7603.735"
"654","7578.983"
"655","7556.528"
"656","7544.175"
"657","7541.821"
"658","7545.189"
"659","7549.985"
"660","7553.241"
"661","7557.976"
"662","7568.905"
"663","7590.712"
"664","7622.565"
"665","7650.522"
"666","7658.766"
"667","7632.026"
"668","7574.568"
"669","7515.909"
"670","7487.171"
"671","7516.479"
"672","7593.108"
"673","7678.755"
"674","7734.639"
"675","7729.737"
"676","7679.546"
"677","7616.906"
"678","7574.591"
"679","7573.021"
"680","7596.2"
"681","7621.484"
"682","7626.539"
"683","7603.351"
"684","7565.472"
"685","7528.195"
"686","7506.115"
"687","7503.48"
"688","7516.383"
"689","7540.7"
"690","7572.057"
"691","7604.409"
"692","7631.045"
"693","7645.277"
"694","7643.177"
"695","7629.077"
"696","7608.842"
"697","7588.295"
"698","7572.057"
"699","7563.01"
"700","7563.88"
"701","7576.964"
"702","7598.482"
"703","7620.26"
"704","7634.026"
"705","7633.689"
"706","7625.201"
"707","7618.688"
"708","7624.241"
"709","7647.104"
"710","7680.489"
"711","7715.789"
"712","7744.53"
"713","7761.929"
"714","7767.518"
"715","7761.074"
"716","7742.803"
"717","7716.99"
"718","7690.193"
"719","7668.986"
"720","7658.684"
"721","7659.681"
"722","7671.155"
"723","7692.245"
"724","7718.711"
"725","7740.475"
"726","7746.899"
"727","7728.396"
"728","7691.724"
"729","7656.628"
"730","7643.192"
"731","7666.328"
"732","7711.798"
"733","7755.115"
"734","7771.87"
"735","7750.89"
"736","7711.701"
"737","7678.149"
"738","7673.177"
"739","7698.958"
"740","7736.396"
"741","7765.469"
"742","7769.012"
"743","7750.825"
"744","7724.1"
"745","7702.045"
"746","7694.441"
"747","7701.274"
"748","7720.796"
"749","7751.216"
"750","7789.094"
"751","7829.016"
"752","7865.461"
"753","7893.274"
"754","7910.427"
"755","7916.499"
"756","7911.081"
"757","7895.812"
"758","7878.86"
"759","7869.686"
"760","7877.508"
"761","7902.808"
"762","7934.854"
"763","7962.194"
"764","7974.456"
"765","7971.007"
"766","7956.415"
"767","7935.287"
"768","7912.924"
"769","7896.839"
"770","7894.982"
"771","7915.021"
"772","7954.398"
"773","7997.719"
"774","8028.784"
"775","8033.875"
"776","8020.31"
"777","8006.06"
"778","8009.156"
"779","8039.684"
"780","8084.359"
"781","8125.619"
"782","8146.404"
"783","8143.745"
"784","8130.57"
"785","8120.646"
"786","8125.789"
"787","8143.807"
"788","8166.374"
"789","8185.146"
"790","8194.689"
"791","8196.714"
"792","8193.999"
"793","8189.358"
"794","8186.256"
"795","8188.758"
"796","8200.957"
"797","8225.173"
"798","8253.925"
"799","8276.361"
"800","8281.702"
"801","8267.287"
"802","8245.783"
"803","8231.55"
"804","8237.918"
"805","8264.69"
"806","8302.087"
"807","8340.132"
"808","8370.242"
"809","8389.245"
"810","8395.301"
"811","8386.679"
"812","8366.27"
"813","8343.204"
"814","8327.059"
"815","8326.045"
"816","8337.284"
"817","8352.445"
"818","8363.175"
"819","8364.755"
"820","8361.775"
"821","8360.282"
"822","8365.949"
"823","8377.438"
"824","8387.104"
"825","8387.078"
"826","8372.273"
"827","8351.245"
"828","8336.72"
"829","8341.257"
"830","8367.336"
"831","8401.554"
"832","8429.114"
"833","8436.954"
"834","8428.293"
"835","8415.331"
"836","8410.349"
"837","8421.149"
"838","8443.23"
"839","8469.997"
"840","8494.954"
"841","8513.607"
"842","8523.316"
"843","8521.513"
"844","8506.691"
"845","8482.494"
"846","8454.108"
"847","8426.73"
"848","8406.005"
"849","8398.253"
"850","8409.852"
"851","8445.716"
"852","8498.6"
"853","8555.204"
"854","8602.201"
"855","8630.348"
"856","8640.064"
"857","8633.173"
"858","8611.942"
"859","8585.46"
"860","8568.082"
"861","8574.298"
"862","8612.066"
"863","8664.806"
"864","8710.177"
"865","8726.487"
"866","8711.295"
"867","8684.3"
"868","8666.429"
"869","8674.769"
"870","8703.979"
"871","8740.596"
"872","8771.225"
"873","8788.524"
"874","8795.267"
"875","8795.173"
"876","8792.157"
"877","8791.847"
"878","8800.77"
"879","8825.444"
"880","8866.472"
"881","8910.338"
"882","8941.475"
"883","8945.605"
"884","8926.643"
"885","8901.927"
"886","8889.107"
"887","8899.58"
"888","8923.7"
"889","8947.411"
"890","8957.244"
"891","8953.167"
"892","8948.461"
"893","8956.984"
"894","8988.368"
"895","9032.645"
"896","9074.17"
"897","9097.6"
"898","9099.376"
"899","9091.215"
"900","9085.85"
"901","9093.884"
"902","9112.624"
"903","9134.257"
"904","9151.014"
"905","9158.837"
"906","9159.819"
"907","9156.632"
"908","9151.886"
"909","9147.762"
"910","9146.228"
"911","9149.233"
"912","9157.185"
"913","9167.272"
"914","9176.294"
"915","9181.188"
"916","9180.408"
"917","9173.325"
"918","9159.326"
"919","9139.93"
"920","9122.031"
"921","9113.364"
"922","9121.001"
"923","9143.039"
"924","9171.084"
"925","9196.595"
"926","9214.078"
"927","9227.238"
"928","9241.516"
"929","9261.844"
"930","9284.491"
"931","9298.445"
"932","9292.47"
"933","9261.024"
"934","9218.701"
"935","9184.533"
"936","9176.756"
"937","9196.847"
"938","9230.337"
"939","9262.112"
"940","9280.321"
"941","9286.207"
"942","9284.295"
"943","9279.099"
"944","9274.749"
"945","9274.961"
"946","9283.437"
"947","9302.125"
"948","9325.188"
"949","9344.619"
"950","9352.603"
"951","9347.081"
"952","9332.54"
"953","9313.826"
"954","9294.944"
"955","9275.856"
"956","9255.309"
"957","9232.197"
"958","9210.282"
"959","9199.183"
"960","9208.86"
"961","9245.341"
"962","9294.633"
"963","9336.441"
"964","9350.932"
"965","9335.253"
"966","9307.674"
"967","9287.787"
"968","9290.963"
"969","9310.533"
"970","9332.699"
"971","9343.907"
"972","9339.97"
"973","9328.485"
"974","9317.817"
"975","9314.369"
"976","9314.367"
"977","9310.728"
"978","9296.517"
"979","9270.376"
"980","9237.906"
"981","9205.153"
"982","9178.607"
"983","9167.03"
"984","9179.909"
"985","9226.269"
"986","9299.519"
"987","9374.095"
"988","9423.273"
"989","9427.316"
"990","9400.625"
"991","9368.004"
"992","9353.646"
"993","9362.644"
"994","9377.945"
"995","9381.254"
"996","9359.99"
"997","9327.735"
"998","9305.552"
"999","9313.813"
"1000","9354.322"
"1001","9408.736"
"1002","9457.692"
"1003","9486.087"
"1004","9496.72"
"1005","9497.083"
"1006","9494.665"
"1007","9494.711"
"1008","9496.803"
"1009","9499.653"
"1010","9501.998"
"1011","9502.867"
"1012","9501.459"
"1013","9496.984"
"1014","9489.739"
"1015","9482.157"
"1016","9476.93"
"1017","9476.551"
"1018","9482.117"
"1019","9494.083"
"1020","9512.865"
"1021","9536.9"
"1022","9561.661"
"1023","9582.388"
"1024","9595.063"
"1025","9599.709"
"1026","9597.696"
"1027","9590.524"
"1028","9583.309"
"1029","9585.132"
"1030","9605.301"
"1031","9648.36"
"1032","9701.302"
"1033","9747.053"
"1034","9769.34"
"1035","9764.301"
"1036","9737.805"
"1037","9695.992"
"1038","9648.598"
"1039","9614.235"
"1040","9612.878"
"1041","9660.991"
"1042","9743.225"
"1043","9827.301"
"1044","9881.01"
"1045","9889.383"
"1046","9865.445"
"1047","9824.803"
"1048","9782.067"
"1049","9746.437"
"1050","9725.267"
"1051","9725.559"
"1052","9745.385"
"1053","9773.441"
"1054","9797.983"
"1055","9811.786"
"1056","9822.313"
"1057","9840.002"
"1058","9873.925"
"1059","9916.971"
"1060","9951.451"
"1061","9959.604"
"1062","9937.509"
"1063","9907.529"
"1064","9894.983"
"1065","9920.017"
"1066","9970.672"
"1067","10022.75"
"1068","10052.69"
"1069","10056.05"
"1070","10049.64"
"1071","10051.41"
"1072","10072.12"
"1073","10098.96"
"1074","10114.29"
"1075","10102.49"
"1076","10071.17"
"1077","10042.57"
"1078","10038.99"
"1079","10066.46"
"1080","10102.61"
"1081","10122.14"
"1082","10105.85"
"1083","10066.78"
"1084","10028.71"
"1085","10014.53"
"1086","10028.63"
"1087","10058.08"
"1088","10089.28"
"1089","10111.92"
"1090","10124.07"
"1091","10125.19"
"1092","10115.02"
"1093","10095.79"
"1094","10070.96"
"1095","10043.96"
"1096","10018.89"
"1097","10000.55"
"1098","9993.856"
"1099","10001.27"
"1100","10016.76"
"1101","10032.41"
"1102","10040.84"
"1103","10040.93"
"1104","10035.45"
"1105","10027.2"
"1106","10017.96"
"1107","10007.82"
"1108","9996.683"
"1109","9985.041"
"1110","9975.763"
"1111","9972.399"
"1112","9977.992"
"1113","9988.492"
"1114","9994.577"
"1115","9986.857"
"1116","9963.37"
"1117","9935.983"
"1118","9918.084"
"1119","9919.955"
"1120","9936.063"
"1121","9955.859"
"1122","9969.272"
"1123","9974.232"
"1124","9975.166"
"1125","9976.686"
"1126","9982.047"
"1127","9991.802"
"1128","10006.19"
"1129","10024.41"
"1130","10040.15"
"1131","10045.29"
"1132","10032.34"
"1133","10004.36"
"1134","9973.017"
"1135","9950.243"
"1136","9944.161"
"1137","9955.502"
"1138","9984.147"
"1139","10028.22"
"1140","10077.04"
"1141","10117.2"
"1142","10135.99"
"1143","10131.44"
"1144","10109.77"
"1145","10077.43"
"1146","10043.73"
"1147","10022.95"
"1148","10029.92"
"1149","10072.64"
"1150","10129.56"
"1151","10171.14"
"1152","10170.87"
"1153","10137.86"
"1154","10104.47"
"1155","10102.96"
"1156","10140.64"
"1157","10188.41"
"1158","10214.26"
"1159","10197.4"
"1160","10155.21"
"1161","10113.2"
"1162","10093.99"
"1163","10095.4"
"1164","10102.55"
"1165","10101.03"
"1166","10092.55"
"1167","10096.88"
"1168","10134.68"
"1169","10209.88"
"1170","10285.1"
"1171","10316.63"
"1172","10272.29"
"1173","10187.28"
"1174","10121.22"
"1175","10129.78"
"1176","10205.8"
"1177","10292.26"
"1178","10331.2"
"1179","10300.46"
"1180","10237.64"
"1181","10186"
"1182","10177.69"
"1183","10203.69"
"1184","10245.45"
"1185","10285.45"
"1186","10315.33"
"1187","10331.4"
"1188","10330.3"
"1189","10316.04"
"1190","10300.45"
"1191","10295.72"
"1192","10308.54"
"1193","10333.69"
"1194","10364.33"
"1195","10394.28"
"1196","10420.31"
"1197","10440.05"
"1198","10451.64"
"1199","10458.72"
"1200","10468.35"
"1201","10487.39"
"1202","10513.46"
"1203","10532.91"
"1204","10531.38"
"1205","10503.29"
"1206","10464.42"
"1207","10433.83"
"1208","10426.72"
"1209","10438.47"
"1210","10458.05"
"1211","10475.02"
"1212","10485.8"
"1213","10491.32"
"1214","10492.6"
"1215","10492.38"
"1216","10495.56"
"1217","10507.11"
"1218","10526.41"
"1219","10539.5"
"1220","10530.45"
"1221","10490.16"
"1222","10442.26"
"1223","10420.15"
"1224","10452.96"
"1225","10525.56"
"1226","10597.09"
"1227","10627.63"
"1228","10612.13"
"1229","10583"
"1230","10574.38"
"1231","10600.46"
"1232","10636.04"
"1233","10651.26"
"1234","10627.14"
"1235","10585.93"
"1236","10559.61"
"1237","10575.36"
"1238","10624.05"
"1239","10680.15"
"1240","10719.17"
"1241","10735.49"
"1242","10738.88"
"1243","10739.45"
"1244","10742.87"
"1245","10748.34"
"1246","10754.58"
"1247","10760.08"
"1248","10762.7"
"1249","10760.23"
"1250","10751.88"
"1251","10743.7"
"1252","10743.75"
"1253","10758.92"
"1254","10785.06"
"1255","10812.15"
"1256","10830.61"
"1257","10840.2"
"1258","10849.21"
"1259","10866.15"
"1260","10891.33"
"1261","10912.54"
"1262","10916.46"
"1263","10898.52"
"1264","10877.04"
"1265","10874.12"
"1266","10906"
"1267","10961.76"
"1268","11022.55"
"1269","11070.63"
"1270","11097.59"
"1271","11099.69"
"1272","11074.12"
"1273","11032.61"
"1274","10998.9"
"1275","10996.52"
"1276","11025.96"
"1277","11057.28"
"1278","11058.51"
"1279","11016.58"
"1280","10958.89"
"1281","10918.1"
"1282","10916.8"
"1283","10941.71"
"1284","10971.55"
"1285","10988.07"
"1286","10991.13"
"1287","10987.3"
"1288","10983.02"
"1289","10983.04"
"1290","10991.11"
"1291","11010.56"
"1292","11036.43"
"1293","11056.12"
"1294","11057.1"
"1295","11043.51"
"1296","11042.92"
"1297","11084.57"
"1298","11176.1"
"1299","11278.44"
"1300","11346.37"
"1301","11350.34"
"1302","11313.98"
"1303","11272.23"
"1304","11253.83"
"1305","11254.34"
"1306","11258.24"
"1307","11252.03"
"1308","11239.81"
"1309","11234.64"
"1310","11248.23"
"1311","11271.06"
"1312","11277.68"
"1313","11243.24"
"1314","11172.1"
"1315","11100.61"
"1316","11066.4"
"1317","11081.6"
"1318","11117.96"
"1319","11143.7"
"1320","11141.22"
"1321","11125.69"
"1322","11116.85"
"1323","11126.79"
"1324","11141.66"
"1325","11142.11"
"1326","11115.13"
"1327","11079.5"
"1328","11063.9"
"1329","11091.91"
"1330","11148.97"
"1331","11203.46"
"1332","11226.04"
"1333","11214.31"
"1334","11182.79"
"1335","11145.94"
"1336","11111.93"
"1337","11083.44"
"1338","11062.87"
"1339","11048.04"
"1340","11031.43"
"1341","11005.36"
"1342","10971.5"
"1343","10946.35"
"1344","10947.63"
"1345","10980.09"
"1346","11020.75"
"1347","11043.03"
"1348","11032.12"
"1349","11007.43"
"1350","10994.52"
"1351","11011.66"
"1352","11047.97"
"1353","11085.43"
"1354","11109.31"
"1355","11122.93"
"1356","11135.54"
"1357","11155.15"
"1358","11180.26"
"1359","11205.24"
"1360","11224.55"
"1361","11234.06"
"1362","11230.46"
"1363","11211.03"
"1364","11181.17"
"1365","11152.23"
"1366","11135.39"
"1367","11135.47"
"1368","11151.51"
"1369","11182.02"
"1370","11217.04"
"1371","11236.9"
"1372","11221.79"
"1373","11173.52"
"1374","11124.55"
"1375","11109.47"
"1376","11140.71"
"1377","11191.81"
"1378","11232.43"
"1379","11245.81"
"1380","11244.57"
"1381","11245.12"
"1382","11255.44"
"1383","11261.09"
"1384","11243.95"
"1385","11195.7"
"1386","11139.78"
"1387","11106.06"
"1388","11113.72"
"1389","11139.79"
"1390","11150.89"
"1391","11122.77"
"1392","11074.8"
"1393","11039.33"
"1394","11041.72"
"1395","11067.43"
"1396","11087.81"
"1397","11079.12"
"1398","11051.39"
"1399","11028.72"
"1400","11032.25"
"1401","11058.92"
"1402","11093.96"
"1403","11123.48"
"1404","11142.64"
"1405","11151.61"
"1406","11151"
"1407","11145.92"
"1408","11144.25"
"1409","11152.86"
"1410","11164.16"
"1411","11160.37"
"1412","11125.32"
"1413","11071.43"
"1414","11033.58"
"1415","11045.41"
"1416","11106.17"
"1417","11185.33"
"1418","11252.07"
"1419","11290.92"
"1420","11301.03"
"1421","11282.5"
"1422","11244.89"
"1423","11207.52"
"1424","11189.71"
"1425","11198.23"
"1426","11225.96"
"1427","11265.11"
"1428","11310.83"
"1429","11361.72"
"1430","11416.55"
"1431","11473.15"
"1432","11528.11"
"1433","11577.99"
"1434","11619.73"
"1435","11650.76"
"1436","11668.66"
"1437","11674.68"
"1438","11675.09"
"1439","11676.54"
"1440","11684.26"
"1441","11701.49"
"1442","11731.09"
"1443","11764.25"
"1444","11775.17"
"1445","11737.29"
"1446","11655.41"
"1447","11580.78"
"1448","11567.64"
"1449","11626.6"
"1450","11703.06"
"1451","11737.72"
"1452","11708.55"
"1453","11649.19"
"1454","11597.52"
"1455","11570.24"
"1456","11552.75"
"1457","11528.11"
"1458","11491.72"
"1459","11456.99"
"1460","11438.49"
"1461","11436.87"
"1462","11432.93"
"1463","11406.18"
"1464","11347.8"
"1465","11265.11"
"1466","11166.82"
"1467","11070.88"
"1468","11007.46"
"1469","11006.63"
"1470","11062.02"
"1471","11121.12"
"1472","11129.77"
"1473","11077.41"
"1474","11005.77"
"1475","10958.67"
"1476","10950.66"
"1477","10963.45"
"1478","10977.18"
"1479","10977.37"
"1480","10955.22"
"1481","10903.04"
"1482","10832.34"
"1483","10773.13"
"1484","10754.71"
"1485","10777.67"
"1486","10817.24"
"1487","10848.34"
"1488","10856.08"
"1489","10833.77"
"1490","10776.95"
"1491","10709.22"
"1492","10674.5"
"1493","10711.49"
"1494","10792.1"
"1495","10844.89"
"1496","10806.77"
"1497","10706.13"
"1498","10623.83"
"1499","10630.26"
"1500","10701.02"
"1501","10764.04"
"1502","10757.99"
"1503","10701.07"
"1504","10646.19"
"1505","10637"
"1506","10660.41"
"1507","10682.16"
"1508","10675.29"
"1509","10650.13"
"1510","10628.75"
"1511","10627.89"
"1512","10641.81"
"1513","10658.79"
"1514","10668.52"
"1515","10665.47"
"1516","10645.12"
"1517","10607.97"
"1518","10568.69"
"1519","10544.47"
"1520","10545.17"
"1521","10563.36"
"1522","10589.19"
"1523","10611.91"
"1524","10619.22"
"1525","10598.79"
"1526","10548.83"
"1527","10484.04"
"1528","10420.44"
"1529","10368.97"
"1530","10334.14"
"1531","10319.59"
"1532","10317.81"
"1533","10309.85"
"1534","10277.51"
"1535","10223.64"
"1536","10168.4"
"1537","10131.53"
"1538","10121.53"
"1539","10139.55"
"1540","10185.48"
"1541","10249.52"
"1542","10316.92"
"1543","10372.72"
"1544","10401.2"
"1545","10386.3"
"1546","10322.04"
"1547","10250.26"
"1548","10227.05"
"1549","10285.33"
"1550","10376.21"
"1551","10432.76"
"1552","10416.25"
"1553","10361.53"
"1554","10315.19"
"1555","10304.74"
"1556","10320.4"
"1557","10348.15"
"1558","10374.37"
"1559","10386.09"
"1560","10371.05"
"1561","10334.48"
"1562","10300.63"
"1563","10293.22"
"1564","10311.94"
"1565","10337.06"
"1566","10349.8"
"1567","10346.99"
"1568","10334.62"
"1569","10318.31"
"1570","10299.98"
"1571","10280.01"
"1572","10260.19"
"1573","10249.2"
"1574","10257.73"
"1575","10288.76"
"1576","10320.1"
"1577","10324.45"
"1578","10291.34"
"1579","10248.15"
"1580","10227.16"
"1581","10240.16"
"1582","10266.77"
"1583","10284.23"
"1584","10282.33"
"1585","10264.69"
"1586","10235.91"
"1587","10204.22"
"1588","10180.69"
"1589","10175.44"
"1590","10189.29"
"1591","10218.12"
"1592","10255.67"
"1593","10283.59"
"1594","10279.26"
"1595","10231.19"
"1596","10168.7"
"1597","10130.4"
"1598","10138.02"
"1599","10173.31"
"1600","10212.3"
"1601","10237.26"
"1602","10240.25"
"1603","10214.82"
"1604","10171.09"
"1605","10136.4"
"1606","10136.28"
"1607","10162.88"
"1608","10185.44"
"1609","10178.32"
"1610","10157.11"
"1611","10155.66"
"1612","10197"
"1613","10255.73"
"1614","10293.09"
"1615","10287.18"
"1616","10261.67"
"1617","10247.63"
"1618","10257.34"
"1619","10271.42"
"1620","10268.25"
"1621","10247.56"
"1622","10231.97"
"1623","10242.36"
"1624","10264.22"
"1625","10259.02"
"1626","10197.26"
"1627","10113.86"
"1628","10070.56"
"1629","10108.48"
"1630","10187.47"
"1631","10247.56"
"1632","10255.84"
"1633","10241.54"
"1634","10242.06"
"1635","10271.71"
"1636","10312.86"
"1637","10346.08"
"1638","10361"
"1639","10354.98"
"1640","10327.26"
"1641","10291.2"
"1642","10267.33"
"1643","10270.9"
"1644","10292.53"
"1645","10315.74"
"1646","10331.66"
"1647","10351.03"
"1648","10387.36"
"1649","10435.54"
"1650","10462.88"
"1651","10436.94"
"1652","10371.63"
"1653","10321.18"
"1654","10333.45"
"1655","10390.76"
"1656","10442.56"
"1657","10450.07"
"1658","10427.88"
"1659","10405.21"
"1660","10399.75"
"1661","10401.93"
"1662","10398.34"
"1663","10380.25"
"1664","10345.11"
"1665","10291.51"
"1666","10228.12"
"1667","10171.16"
"1668","10134.87"
"1669","10118.76"
"1670","10116.35"
"1671","10119.72"
"1672","10116.24"
"1673","10092.38"
"1674","10046.77"
"1675","9999.713"
"1676","9972.956"
"1677","9968.563"
"1678","9969.347"
"1679","9958.746"
"1680","9933.418"
"1681","9897.027"
"1682","9855.984"
"1683","9828.284"
"1684","9834.989"
"1685","9878.997"
"1686","9923.76"
"1687","9928.696"
"1688","9888.647"
"1689","9838.869"
"1690","9814.011"
"1691","9818.262"
"1692","9837.426"
"1693","9857.022"
"1694","9862.576"
"1695","9839.62"
"1696","9784.319"
"1697","9717.615"
"1698","9663.587"
"1699","9632.706"
"1700","9619.322"
"1701","9616.871"
"1702","9619.202"
"1703","9620.41"
"1704","9616.92"
"1705","9616.189"
"1706","9628.904"
"1707","9656.33"
"1708","9678.889"
"1709","9674.975"
"1710","9645.182"
"1711","9614.448"
"1712","9606.084"
"1713","9616.113"
"1714","9625.65"
"1715","9621.684"
"1716","9615.717"
"1717","9625.319"
"1718","9651.499"
"1719","9664.413"
"1720","9632.837"
"1721","9565.274"
"1722","9506.242"
"1723","9494.504"
"1724","9518.236"
"1725","9543.728"
"1726","9547.448"
"1727","9537.338"
"1728","9527.16"
"1729","9522.404"
"1730","9516.949"
"1731","9505.024"
"1732","9495.851"
"1733","9508.643"
"1734","9555.246"
"1735","9611.251"
"1736","9641.493"
"1737","9628.911"
"1738","9593.77"
"1739","9560.385"
"1740","9541.209"
"1741","9537.422"
"1742","9548.747"
"1743","9567.685"
"1744","9583.634"
"1745","9589.861"
"1746","9590.869"
"1747","9592.869"
"1748","9591.161"
"1749","9567.269"
"1750","9506.185"
"1751","9436.343"
"1752","9410.955"
"1753","9460.996"
"1754","9531.664"
"1755","9548.513"
"1756","9488.792"
"1757","9411.762"
"1758","9379.477"
"1759","9393.899"
"1760","9414.812"
"1761","9410.292"
"1762","9391.59"
"1763","9382.486"
"1764","9394.394"
"1765","9415.557"
"1766","9431.968"
"1767","9434.882"
"1768","9419.814"
"1769","9385.927"
"1770","9351.298"
"1771","9340.274"
"1772","9361.311"
"1773","9389.798"
"1774","9398.231"
"1775","9382.571"
"1776","9359.276"
"1777","9343.165"
"1778","9335.482"
"1779","9332.642"
"1780","9332.236"
"1781","9334.425"
"1782","9339.745"
"1783","9349.49"
"1784","9365.633"
"1785","9388.374"
"1786","9407.689"
"1787","9409.962"
"1788","9392.261"
"1789","9374.082"
"1790","9376.073"
"1791","9388.818"
"1792","9377.408"
"1793","9317.938"
"1794","9249.145"
"1795","9230.116"
"1796","9280.616"
"1797","9344.982"
"1798","9362.826"
"1799","9331.613"
"1800","9292.817"
"1801","9280.422"
"1802","9288.928"
"1803","9301.655"
"1804","9305.659"
"1805","9294.163"
"1806","9262.842"
"1807","9229.242"
"1808","9224.933"
"1809","9268.098"
"1810","9326.904"
"1811","9358.661"
"1812","9347.708"
"1813","9314.26"
"1814","9279.414"
"1815","9250.373"
"1816","9227.337"
"1817","9210.349"
"1818","9199.171"
"1819","9193.715"
"1820","9198.678"
"1821","9223.593"
"1822","9273.025"
"1823","9320.666"
"1824","9328.959"
"1825","9284.994"
"1826","9224.542"
"1827","9186.74"
"1828","9177.591"
"1829","9179.055"
"1830","9176.726"
"1831","9172.795"
"1832","9173.409"
"1833","9178.036"
"1834","9177.147"
"1835","9162.44"
"1836","9140.81"
"1837","9126.497"
"1838","9127.344"
"1839","9135.099"
"1840","9139.215"
"1841","9132.514"
"1842","9110.772"
"1843","9074.174"
"1844","9043.188"
"1845","9043.958"
"1846","9083.073"
"1847","9137.437"
"1848","9183.117"
"1849","9211.425"
"1850","9221.708"
"1851","9213.046"
"1852","9183.611"
"1853","9132.214"
"1854","9072.408"
"1855","9030.873"
"1856","9028.088"
"1857","9053.501"
"1858","9087.662"
"1859","9116.819"
"1860","9135.453"
"1861","9139.287"
"1862","9128.991"
"1863","9107.658"
"1864","9083.659"
"1865","9077.556"
"1866","9109.19"
"1867","9161.157"
"1868","9187.461"
"1869","9156.876"
"1870","9096.869"
"1871","9048.232"
"1872","9034.521"
"1873","9059.193"
"1874","9118.882"
"1875","9176.026"
"1876","9180.665"
"1877","9117.894"
"1878","9033.684"
"1879","8976.389"
"1880","8957.582"
"1881","8968.333"
"1882","8999.341"
"1883","9041.029"
"1884","9083.832"
"1885","9119.75"
"1886","9142.029"
"1887","9143.895"
"1888","9118.473"
"1889","9060.033"
"1890","8995.918"
"1891","8990.128"
"1892","9085.276"
"1893","9197.919"
"1894","9203.961"
"1895","9077.602"
"1896","8940.743"
"1897","8909.159"
"1898","8957.113"
"1899","8994.154"
"1900","8970.907"
"1901","8920.876"
"1902","8884.881"
"1903","8875.935"
"1904","8890.258"
"1905","8922.122"
"1906","8961.342"
"1907","8997.12"
"1908","9020.756"
"1909","9025.158"
"1910","9008.076"
"1911","8983.381"
"1912","8968.012"
"1913","8971.468"
"1914","8996.187"
"1915","9037.716"
"1916","9063.867"
"1917","9036.405"
"1918","8956.522"
"1919","8870.481"
"1920","8820.956"
"1921","8818.848"
"1922","8864.389"
"1923","8934.79"
"1924","8976.421"
"1925","8946.384"
"1926","8881.318"
"1927","8847.167"
"1928","8864.566"
"1929","8884.329"
"1930","8860.115"
"1931","8808.66"
"1932","8773.593"
"1933","8773.435"
"1934","8783.249"
"1935","8778.264"
"1936","8769.717"
"1937","8785.836"
"1938","8829.132"
"1939","8853.59"
"1940","8816.36"
"1941","8749.83"
"1942","8724.941"
"1943","8773.617"
"1944","8849.008"
"1945","8898.689"
"1946","8906.758"
"1947","8877.096"
"1948","8824.49"
"1949","8785.868"
"1950","8795.358"
"1951","8833.295"
"1952","8850.358"
"1953","8822.244"
"1954","8777.753"
"1955","8750.046"
"1956","8749.508"
"1957","8773.947"
"1958","8813.794"
"1959","8844.621"
"1960","8842.87"
"1961","8810.354"
"1962","8762.473"
"1963","8715.823"
"1964","8689.021"
"1965","8695.211"
"1966","8698.562"
"1967","8638.918"
"1968","8512.874"
"1969","8421.844"
"1970","8460.792"
"1971","8585.185"
"1972","8686.101"
"1973","8712.12"
"1974","8709.019"
"1975","8723.183"
"1976","8741.043"
"1977","8724.53"
"1978","8666.553"
"1979","8606.362"
"1980","8580.85"
"1981","8590.186"
"1982","8621.004"
"1983","8652.804"
"1984","8655.886"
"1985","8609.931"
"1986","8544.045"
"1987","8501.73"
"1988","8502.077"
"1989","8537.318"
"1990","8592.809"
"1991","8631.963"
"1992","8615.158"
"1993","8553.478"
"1994","8504.237"
"1995","8504.581"
"1996","8521.339"
"1997","8510.615"
"1998","8476.243"
"1999","8457.169"
"2000","8467.07"
"2001","8454.48"
"2002","8368.295"
"2003","8263.184"
"2004","8254.463"
"2005","8374.172"
"2006","8493.454"
"2007","8488.65"
"2008","8407.868"
"2009","8373.206"
"2010","8420.202"
"2011","8458.713"
"2012","8411.707"
"2013","8321.771"
"2014","8267.854"
"2015","8269.809"
"2016","8284.009"
"2017","8277.973"
"2018","8271.246"
"2019","8292.514"
"2020","8329.528"
"2021","8338.199"
"2022","8298.333"
"2023","8251.668"
"2024","8243.038"
"2025","8255.588"
"2026","8239.163"
"2027","8187.472"
"2028","8169.995"
"2029","8243.572"
"2030","8344.046"
"2031","8365.009"
"2032","8282.825"
"2033","8170.484"
"2034","8092.446"
"2035","8059.26"
"2036","8067.784"
"2037","8100.5"
"2038","8128.693"
"2039","8136.715"
"2040","8140.938"
"2041","8158.611"
"2042","8174.507"
"2043","8157.572"
"2044","8106.507"
"2045","8065.079"
"2046","8067.609"
"2047","8082.934"
"2048","8062.129"
"2049","8007.787"
"2050","7971.369"
"2051","7984.253"
"2052","8014.35"
"2053","8023.042"
"2054","8021.243"
"2055","8048.139"
"2056","8103.575"
"2057","8120.462"
"2058","8044.937"
"2059","7930.446"
"2060","7863.716"
"2061","7862.948"
"2062","7877.875"
"2063","7872.61"
"2064","7862.592"
"2065","7870.912"
"2066","7902.799"
"2067","7952.92"
"2068","7997.961"
"2069","7985.656"
"2070","7882.782"
"2071","7765.436"
"2072","7738.437"
"2073","7795.141"
"2074","7827.602"
"2075","7772.272"
"2076","7689.567"
"2077","7651.259"
"2078","7659.142"
"2079","7680.869"
"2080","7696.654"
"2081","7704.098"
"2082","7702.777"
"2083","7695.258"
"2084","7684.628"
"2085","7671.02"
"2086","7652.449"
"2087","7627.636"
"2088","7596.77"
"2089","7562.466"
"2090","7540.309"
"2091","7549.307"
"2092","7580.136"
"2093","7595.71"
"2094","7571.854"
"2095","7521.999"
"2096","7467.163"
"2097","7439.167"
"2098","7473.679"
"2099","7551.115"
"2100","7581.465"
"2101","7512.513"
"2102","7440.598"
"2103","7480.246"
"2104","7587.49"
"2105","7622.374"
"2106","7540.343"
"2107","7449.813"
"2108","7438.505"
"2109","7443.644"
"2110","7370.528"
"2111","7254.863"
"2112","7227.571"
"2113","7327.05"
"2114","7415.067"
"2115","7370.229"
"2116","7259.454"
"2117","7204.44"
"2118","7226.114"
"2119","7261.192"
"2120","7268.91"
"2121","7261.299"
"2122","7254.818"
"2123","7253.004"
"2124","7254.771"
"2125","7258.182"
"2126","7260.515"
"2127","7254.067"
"2128","7220.147"
"2129","7146.193"
"2130","7066.104"
"2131","7029.225"
"2132","7042.562"
"2133","7073.73"
"2134","7093.73"
"2135","7084.795"
"2136","7036.536"
"2137","6974.097"
"2138","6934.688"
"2139","6930.88"
"2140","6952.749"
"2141","6980.278"
"2142","6973.461"
"2143","6904.684"
"2144","6831.817"
"2145","6837.57"
"2146","6911.341"
"2147","6963.679"
"2148","6949.354"
"2149","6915.919"
"2150","6912.898"
"2151","6944.144"
"2152","6997.33"
"2153","7032.566"
"2154","6989.884"
"2155","6866.714"
"2156","6760.086"
"2157","6747.501"
"2158","6781.735"
"2159","6788.657"
"2160","6762.928"
"2161","6742.386"
"2162","6744.073"
"2163","6754.381"
"2164","6755.594"
"2165","6724.314"
"2166","6643.417"
"2167","6560.164"
"2168","6552.134"
"2169","6626.557"
"2170","6711.023"
"2171","6741.936"
"2172","6689.399"
"2173","6545.524"
"2174","6406.091"
"2175","6398.254"
"2176","6500.146"
"2177","6563.452"
"2178","6516.525"
"2179","6437.526"
"2180","6403.391"
"2181","6415.035"
"2182","6452.74"
"2183","6494.042"
"2184","6514.909"
"2185","6498.038"
"2186","6434.977"
"2187","6336.708"
"2188","6267.9"
"2189","6286.286"
"2190","6337.649"
"2191","6326.665"
"2192","6253.889"
"2193","6204.082"
"2194","6214.578"
"2195","6229.729"
"2196","6201.102"
"2197","6151.584"
"2198","6117.932"
"2199","6093.132"
"2200","6046.889"
"2201","5993.832"
"2202","6001.001"
"2203","6086.427"
"2204","6142.217"
"2205","6075.574"
"2206","5977.565"
"2207","5987.984"
"2208","6072.951"
"2209","6078.551"
"2210","5967.069"
"2211","5868.857"
"2212","5876.259"
"2213","5931.898"
"2214","5959.321"
"2215","5936.704"
"2216","5865.08"
"2217","5765.266"
"2218","5674.081"
"2219","5632.543"
"2220","5687.446"
"2221","5842.328"
"2222","5958.439"
"2223","5898.412"
"2224","5741.177"
"2225","5651.253"
"2226","5663.117"
"2227","5701.204"
"2228","5721.156"
"2229","5735.497"
"2230","5744.103"
"2231","5688.113"
"2232","5520.44"
"2233","5360.392"
"2234","5385.204"
"2235","5555.965"
"2236","5657.718"
"2237","5597.258"
"2238","5479.047"
"2239","5397.24"
"2240","5362.026"
"2241","5365.043"
"2242","5381.045"
"2243","5379.763"
"2244","5352.908"
"2245","5308.526"
"2246","5261.334"
"2247","5234.558"
"2248","5231.852"
"2249","5204.987"
"2250","5114.292"
"2251","5006.365"
"2252","4949.457"
"2253","4948.156"
"2254","4968.688"
"2255","4982.228"
"2256","4966.098"
"2257","4910.605"
"2258","4831.574"
"2259","4752.298"
"2260","4712.583"
"2261","4744.307"
"2262","4788.853"
"2263","4751.118"
"2264","4619.399"
"2265","4451.03"
"2266","4307.585"
"2267","4253.559"
"2268","4307.45"
"2269","4365.421"
"2270","4331.922"
"2271","4253.961"
"2272","4213.867"
"2273","4204.084"
"2274","4167.82"
"2275","4087.51"
"2276","3984.974"
"2277","3884.104"
"2278","3809.372"
"2279","3765.567"
"2280","3697.001"
"2281","3558.735"
"2282","3432.687"
"2283","3430.356"
"2284","3495.986"
"2285","3474.846"
"2286","3328.519"
"2287","3142.279"
"2288","2999.332"
"2289","2968.406"
"2290","3066.63"
"2291","3155.454"
"2292","3095.776"
"2293","2916.154"
"2294","2702.76"
"2295","2535.162"
"2296","2484.455"
"2297","2516.207"
"2298","2493.03"
"2299","2369.892"
"2300","2259.715"
