,"Scan 01141"
"400","13750.78"
"401","13758.23"
"402","13752.75"
"403","13723.33"
"404","13679.28"
"405","13636.37"
"406","13610.23"
"407","13614"
"408","13641.18"
"409","13675.91"
"410","13702.36"
"411","13705.89"
"412","13685.91"
"413","13651.6"
"414","13612.26"
"415","13576.98"
"416","13551.47"
"417","13538.18"
"418","13539.38"
"419","13557.21"
"420","13589.01"
"421","13625.64"
"422","13657.56"
"423","13675.37"
"424","13675.11"
"425","13662.83"
"426","13645.61"
"427","13630.47"
"428","13622.51"
"429","13622.06"
"430","13628.75"
"431","13642.2"
"432","13661.05"
"433","13680.7"
"434","13695.88"
"435","13701.36"
"436","13693.23"
"437","13673.46"
"438","13645.69"
"439","13613.5"
"440","13580.37"
"441","13549.2"
"442","13522.65"
"443","13503.38"
"444","13493.67"
"445","13493.01"
"446","13499.61"
"447","13511.69"
"448","13527.34"
"449","13543.58"
"450","13556.82"
"451","13563.43"
"452","13560.27"
"453","13549.48"
"454","13536.97"
"455","13528.66"
"456","13529.93"
"457","13537.78"
"458","13542.16"
"459","13532.91"
"460","13500.42"
"461","13446.56"
"462","13384.28"
"463","13326.93"
"464","13287.45"
"465","13269.85"
"466","13268.14"
"467","13275.85"
"468","13286.58"
"469","13295.34"
"470","13298.89"
"471","13294.11"
"472","13277.98"
"473","13249.87"
"474","13212.53"
"475","13168.94"
"476","13122.15"
"477","13078.36"
"478","13048.77"
"479","13044.91"
"480","13078.08"
"481","13145.43"
"482","13220.51"
"483","13274.77"
"484","13280.05"
"485","13228.37"
"486","13147.6"
"487","13069.15"
"488","13024.06"
"489","13025.52"
"490","13053.48"
"491","13084.39"
"492","13094.93"
"493","13073.26"
"494","13029.51"
"495","12976.23"
"496","12925.89"
"497","12885.93"
"498","12854.09"
"499","12826.99"
"500","12801.29"
"501","12774.55"
"502","12746.01"
"503","12715.13"
"504","12681.39"
"505","12645.23"
"506","12609.04"
"507","12575.36"
"508","12546.76"
"509","12524.1"
"510","12505.22"
"511","12487.64"
"512","12468.92"
"513","12447.5"
"514","12423.48"
"515","12397.12"
"516","12368.68"
"517","12340.06"
"518","12315.82"
"519","12300.75"
"520","12299.49"
"521","12310"
"522","12320"
"523","12316.41"
"524","12286.55"
"525","12231.52"
"526","12171.54"
"527","12128.16"
"528","12122.28"
"529","12155.1"
"530","12203.41"
"531","12242.56"
"532","12248.73"
"533","12218.28"
"534","12169.75"
"535","12122.74"
"536","12096.04"
"537","12093.35"
"538","12103.8"
"539","12116"
"540","12118.93"
"541","12106.74"
"542","12077.89"
"543","12030.97"
"544","11965.48"
"545","11892.7"
"546","11832.18"
"547","11803.5"
"548","11823.34"
"549","11879.24"
"550","11941.8"
"551","11981.55"
"552","11973.36"
"553","11925.73"
"554","11863.09"
"555","11809.88"
"556","11786.18"
"557","11785.96"
"558","11793.31"
"559","11792.34"
"560","11771.45"
"561","11738.98"
"562","11709.16"
"563","11696.13"
"564","11708.68"
"565","11736.34"
"566","11764.31"
"567","11777.88"
"568","11768.79"
"569","11746.31"
"570","11722.64"
"571","11709.87"
"572","11713.16"
"573","11723.52"
"574","11730.29"
"575","11722.95"
"576","11699.31"
"577","11669.87"
"578","11646.15"
"579","11639.31"
"580","11650.75"
"581","11670.74"
"582","11689"
"583","11695.81"
"584","11690.75"
"585","11681.24"
"586","11674.87"
"587","11678.32"
"588","11688.38"
"589","11695.87"
"590","11691.52"
"591","11668.15"
"592","11632.74"
"593","11598.34"
"594","11578"
"595","11580.78"
"596","11597.42"
"597","11613.35"
"598","11614.04"
"599","11591.45"
"600","11557.49"
"601","11527.89"
"602","11518.25"
"603","11532.88"
"604","11552.82"
"605","11556.33"
"606","11522.22"
"607","11449.41"
"608","11364.76"
"609","11297.04"
"610","11273.69"
"611","11297.31"
"612","11347.4"
"613","11402.7"
"614","11443.32"
"615","11463.58"
"616","11466.52"
"617","11455.28"
"618","11433.71"
"619","11410.3"
"620","11395.31"
"621","11398.98"
"622","11426.42"
"623","11463.4"
"624","11491.13"
"625","11490.91"
"626","11454.5"
"627","11397.64"
"628","11339.38"
"629","11298.44"
"630","11281.84"
"631","11279.99"
"632","11282.06"
"633","11277.72"
"634","11265.12"
"635","11249.88"
"636","11237.82"
"637","11234.21"
"638","11239.03"
"639","11249.45"
"640","11262.63"
"641","11276"
"642","11288.38"
"643","11298.99"
"644","11307.09"
"645","11312.23"
"646","11314.84"
"647","11315.51"
"648","11314.83"
"649","11313.7"
"650","11313.56"
"651","11315.87"
"652","11321.89"
"653","11328.55"
"654","11328.83"
"655","11315.58"
"656","11283.17"
"657","11239.51"
"658","11199.58"
"659","11178.42"
"660","11187.24"
"661","11220"
"662","11265.8"
"663","11313.78"
"664","11353.06"
"665","11372.76"
"666","11362"
"667","11310.4"
"668","11226.1"
"669","11141.14"
"670","11089.09"
"671","11100.48"
"672","11166.74"
"673","11251.54"
"674","11318.07"
"675","11335.9"
"676","11312.93"
"677","11271.35"
"678","11233.31"
"679","11214.04"
"680","11208.36"
"681","11207.41"
"682","11202.39"
"683","11189.89"
"684","11174.59"
"685","11161.78"
"686","11156.42"
"687","11158.15"
"688","11162.41"
"689","11164.51"
"690","11161.01"
"691","11156.2"
"692","11157.51"
"693","11172.31"
"694","11203.44"
"695","11240.08"
"696","11268.9"
"697","11276.78"
"698","11259.93"
"699","11228.16"
"700","11192.31"
"701","11162.82"
"702","11144.74"
"703","11139.2"
"704","11147.23"
"705","11168.68"
"706","11196.62"
"707","11221.81"
"708","11235.03"
"709","11231.68"
"710","11218.58"
"711","11204.27"
"712","11197.09"
"713","11198.62"
"714","11202.61"
"715","11202.3"
"716","11191.89"
"717","11173.93"
"718","11155.67"
"719","11144.41"
"720","11145.61"
"721","11157.47"
"722","11176.42"
"723","11198.91"
"724","11220.94"
"725","11237.83"
"726","11244.83"
"727","11237.66"
"728","11219.79"
"729","11200.8"
"730","11190.43"
"731","11196.39"
"732","11214.96"
"733","11238.38"
"734","11258.91"
"735","11271.54"
"736","11277.51"
"737","11278.94"
"738","11277.9"
"739","11274.5"
"740","11266.88"
"741","11253.1"
"742","11232.05"
"743","11208.77"
"744","11191.06"
"745","11186.71"
"746","11199.32"
"747","11220.59"
"748","11240.08"
"749","11247.61"
"750","11240.24"
"751","11223.71"
"752","11204.3"
"753","11188.09"
"754","11179.68"
"755","11182.92"
"756","11201.67"
"757","11237.06"
"758","11281.58"
"759","11326.03"
"760","11361.36"
"761","11384.51"
"762","11400.07"
"763","11413.11"
"764","11427.84"
"765","11440.37"
"766","11442.52"
"767","11426.04"
"768","11387.79"
"769","11340.8"
"770","11301.38"
"771","11285.51"
"772","11297.63"
"773","11327.73"
"774","11364.89"
"775","11398.75"
"776","11423.84"
"777","11437.12"
"778","11435.6"
"779","11419.92"
"780","11401.46"
"781","11393.55"
"782","11409.05"
"783","11447.44"
"784","11493.11"
"785","11529.62"
"786","11543.23"
"787","11539.3"
"788","11531.58"
"789","11533.83"
"790","11552.32"
"791","11574.94"
"792","11586.81"
"793","11573.89"
"794","11538.59"
"795","11498.67"
"796","11472.48"
"797","11474.03"
"798","11493.45"
"799","11512.62"
"800","11513.55"
"801","11490.74"
"802","11462.29"
"803","11448.93"
"804","11469.43"
"805","11517.4"
"806","11568.6"
"807","11598.41"
"808","11590.5"
"809","11560.94"
"810","11533.73"
"811","11532.43"
"812","11563.6"
"813","11610.8"
"814","11655.95"
"815","11682.91"
"816","11691.2"
"817","11688"
"818","11680.58"
"819","11673.8"
"820","11666.49"
"821","11656.5"
"822","11641.9"
"823","11624.32"
"824","11608.66"
"825","11599.92"
"826","11601.32"
"827","11607.31"
"828","11609.69"
"829","11600.38"
"830","11579.11"
"831","11557.96"
"832","11550.08"
"833","11566.86"
"834","11602.98"
"835","11643.9"
"836","11675.05"
"837","11687.72"
"838","11689.54"
"839","11690.88"
"840","11701.63"
"841","11722.22"
"842","11744.33"
"843","11759.29"
"844","11759.75"
"845","11744.5"
"846","11714.21"
"847","11669.71"
"848","11620.31"
"849","11588.01"
"850","11595.82"
"851","11661.91"
"852","11764.16"
"853","11860.35"
"854","11908.24"
"855","11886.6"
"856","11824.06"
"857","11756.45"
"858","11717.74"
"859","11714"
"860","11729.75"
"861","11748.95"
"862","11759.69"
"863","11765.58"
"864","11773.86"
"865","11791.57"
"866","11819.24"
"867","11849.95"
"868","11876.39"
"869","11892.31"
"870","11897.84"
"871","11895.44"
"872","11887.57"
"873","11878"
"874","11872.69"
"875","11877.81"
"876","11898.55"
"877","11931.55"
"878","11968.89"
"879","12002.6"
"880","12026.49"
"881","12038.53"
"882","12037.31"
"883","12021.86"
"884","11997.65"
"885","11974.91"
"886","11963.96"
"887","11971.15"
"888","11989.52"
"889","12009.29"
"890","12021.03"
"891","12022.98"
"892","12021.04"
"893","12021.38"
"894","12028.9"
"895","12042.41"
"896","12058.94"
"897","12075.58"
"898","12090.97"
"899","12105.79"
"900","12120.85"
"901","12136.32"
"902","12148.35"
"903","12151.55"
"904","12140.62"
"905","12116.76"
"906","12091.94"
"907","12079.11"
"908","12089.41"
"909","12118.8"
"910","12155.82"
"911","12188.96"
"912","12211.25"
"913","12225"
"914","12233.67"
"915","12240.53"
"916","12246.96"
"917","12253.13"
"918","12259.22"
"919","12263.25"
"920","12257.84"
"921","12234.76"
"922","12187.17"
"923","12126.94"
"924","12079.46"
"925","12070.43"
"926","12112.96"
"927","12182.12"
"928","12245.8"
"929","12273.65"
"930","12265.01"
"931","12244.22"
"932","12236.37"
"933","12257.62"
"934","12292.64"
"935","12319.11"
"936","12315.84"
"937","12285.01"
"938","12251.05"
"939","12239.28"
"940","12266.1"
"941","12311.97"
"942","12348.34"
"943","12347.7"
"944","12308.59"
"945","12256.99"
"946","12220.21"
"947","12218.48"
"948","12240.62"
"949","12266.69"
"950","12277.26"
"951","12267.51"
"952","12249.31"
"953","12235.4"
"954","12236.12"
"955","12250.14"
"956","12272.62"
"957","12298.69"
"958","12321.79"
"959","12333.32"
"960","12324.59"
"961","12290.21"
"962","12241.55"
"963","12195.31"
"964","12167.87"
"965","12164.72"
"966","12177.85"
"967","12198.4"
"968","12218.43"
"969","12234.99"
"970","12246.71"
"971","12252.29"
"972","12252.25"
"973","12249.46"
"974","12246.9"
"975","12246.8"
"976","12247.31"
"977","12245.26"
"978","12237.6"
"979","12225.24"
"980","12214.12"
"981","12210.46"
"982","12218.76"
"983","12234.69"
"984","12251.11"
"985","12260.98"
"986","12261.31"
"987","12254"
"988","12241.27"
"989","12225.54"
"990","12210.28"
"991","12199.29"
"992","12196.3"
"993","12201.78"
"994","12212.51"
"995","12225.05"
"996","12237.06"
"997","12251.14"
"998","12271.32"
"999","12301.37"
"1000","12337.95"
"1001","12369.97"
"1002","12385.97"
"1003","12378.43"
"1004","12356.31"
"1005","12332.92"
"1006","12321.57"
"1007","12330.44"
"1008","12354.91"
"1009","12388.37"
"1010","12424.05"
"1011","12453.84"
"1012","12468.79"
"1013","12460.02"
"1014","12426.38"
"1015","12381.94"
"1016","12342.6"
"1017","12322.4"
"1018","12321.47"
"1019","12333.65"
"1020","12352.73"
"1021","12374.5"
"1022","12397.58"
"1023","12420.89"
"1024","12443.44"
"1025","12464.97"
"1026","12485.47"
"1027","12504.86"
"1028","12522.02"
"1029","12534.65"
"1030","12540.38"
"1031","12538.55"
"1032","12534.68"
"1033","12535.77"
"1034","12548.32"
"1035","12571.4"
"1036","12598.28"
"1037","12622.06"
"1038","12637.23"
"1039","12641.68"
"1040","12633.79"
"1041","12613.08"
"1042","12588.83"
"1043","12575.58"
"1044","12587.73"
"1045","12626.83"
"1046","12673.58"
"1047","12706.77"
"1048","12710.16"
"1049","12694.84"
"1050","12681.14"
"1051","12688.73"
"1052","12719.5"
"1053","12756.74"
"1054","12782.83"
"1055","12785.57"
"1056","12770.3"
"1057","12745.93"
"1058","12721.32"
"1059","12705"
"1060","12705.24"
"1061","12730.22"
"1062","12779.06"
"1063","12833.56"
"1064","12873.61"
"1065","12882.73"
"1066","12867.2"
"1067","12841.97"
"1068","12821.73"
"1069","12812.9"
"1070","12812.75"
"1071","12818.06"
"1072","12825.81"
"1073","12833.59"
"1074","12839.15"
"1075","12840.55"
"1076","12839.66"
"1077","12840.75"
"1078","12848.11"
"1079","12864.03"
"1080","12887.33"
"1081","12916.46"
"1082","12949.01"
"1083","12978.01"
"1084","12994.96"
"1085","12991.94"
"1086","12973.39"
"1087","12955.27"
"1088","12953.99"
"1089","12975.94"
"1090","13001.66"
"1091","13007.58"
"1092","12973.93"
"1093","12911.46"
"1094","12845.54"
"1095","12801.15"
"1096","12785.28"
"1097","12781.95"
"1098","12773.66"
"1099","12748.69"
"1100","12715.75"
"1101","12688.07"
"1102","12677.98"
"1103","12687.88"
"1104","12713.99"
"1105","12752.34"
"1106","12794.97"
"1107","12827.43"
"1108","12834.71"
"1109","12807.6"
"1110","12762.82"
"1111","12724.3"
"1112","12714.31"
"1113","12731.37"
"1114","12756.38"
"1115","12769.93"
"1116","12764.4"
"1117","12754.25"
"1118","12756.3"
"1119","12782.47"
"1120","12819.44"
"1121","12845.91"
"1122","12841.85"
"1123","12808.18"
"1124","12762.88"
"1125","12724.35"
"1126","12703.12"
"1127","12694.02"
"1128","12690.03"
"1129","12684.92"
"1130","12676.76"
"1131","12665.01"
"1132","12649.45"
"1133","12634.65"
"1134","12629.08"
"1135","12641.28"
"1136","12671.84"
"1137","12705.82"
"1138","12726.49"
"1139","12721.62"
"1140","12701.49"
"1141","12683.48"
"1142","12683.6"
"1143","12697.84"
"1144","12706.97"
"1145","12691.53"
"1146","12647.18"
"1147","12596.16"
"1148","12563.38"
"1149","12567.12"
"1150","12596.72"
"1151","12633.67"
"1152","12660.61"
"1153","12673.77"
"1154","12678.15"
"1155","12678.91"
"1156","12679.97"
"1157","12683.43"
"1158","12691.25"
"1159","12704.6"
"1160","12721.94"
"1161","12741.19"
"1162","12759.78"
"1163","12771.31"
"1164","12767.43"
"1165","12740.27"
"1166","12696.61"
"1167","12659.59"
"1168","12653.22"
"1169","12687.4"
"1170","12737.23"
"1171","12772.55"
"1172","12770.14"
"1173","12747.57"
"1174","12737.21"
"1175","12769.05"
"1176","12834.95"
"1177","12896.6"
"1178","12915.21"
"1179","12880.73"
"1180","12831.13"
"1181","12808.97"
"1182","12842.2"
"1183","12904.87"
"1184","12958.57"
"1185","12969.5"
"1186","12944.15"
"1187","12909.72"
"1188","12892.8"
"1189","12899.69"
"1190","12915.21"
"1191","12923.18"
"1192","12916.31"
"1193","12906.6"
"1194","12908.65"
"1195","12932.81"
"1196","12969.52"
"1197","13003.32"
"1198","13019.75"
"1199","13015.93"
"1200","12996.11"
"1201","12964.8"
"1202","12931.43"
"1203","12911.4"
"1204","12920.44"
"1205","12962.32"
"1206","13011.4"
"1207","13037.59"
"1208","13018.09"
"1209","12967.9"
"1210","12914.17"
"1211","12882.35"
"1212","12877.54"
"1213","12891.68"
"1214","12916.46"
"1215","12943.49"
"1216","12964.25"
"1217","12970.24"
"1218","12959.88"
"1219","12948.04"
"1220","12952"
"1221","12983.58"
"1222","13028.39"
"1223","13064.21"
"1224","13071.04"
"1225","13051.83"
"1226","13022.94"
"1227","13000.49"
"1228","12989.97"
"1229","12985.46"
"1230","12980.5"
"1231","12972.42"
"1232","12966.04"
"1233","12967.05"
"1234","12979.9"
"1235","13004.35"
"1236","13039.02"
"1237","13081.41"
"1238","13120.71"
"1239","13142.31"
"1240","13132.77"
"1241","13098.06"
"1242","13059.95"
"1243","13040.45"
"1244","13048.38"
"1245","13073.74"
"1246","13105.03"
"1247","13132.01"
"1248","13147.6"
"1249","13145.23"
"1250","13122.42"
"1251","13096.21"
"1252","13089.46"
"1253","13121.67"
"1254","13181.96"
"1255","13243.15"
"1256","13278.98"
"1257","13283.86"
"1258","13271.04"
"1259","13254.38"
"1260","13242.49"
"1261","13235.85"
"1262","13234.28"
"1263","13237.74"
"1264","13246.61"
"1265","13261.33"
"1266","13281.86"
"1267","13305.96"
"1268","13330.72"
"1269","13352.83"
"1270","13365.61"
"1271","13360.65"
"1272","13330.46"
"1273","13282.81"
"1274","13237.97"
"1275","13216.27"
"1276","13223.03"
"1277","13243.77"
"1278","13262.68"
"1279","13270.11"
"1280","13269.68"
"1281","13266.67"
"1282","13264.85"
"1283","13262.37"
"1284","13256.18"
"1285","13243.84"
"1286","13226.66"
"1287","13207.34"
"1288","13189.19"
"1289","13181.43"
"1290","13196.82"
"1291","13246.91"
"1292","13318.11"
"1293","13373.73"
"1294","13376.96"
"1295","13326.88"
"1296","13273.14"
"1297","13269.02"
"1298","13338.07"
"1299","13439.33"
"1300","13523.45"
"1301","13554.62"
"1302","13543.24"
"1303","13509.5"
"1304","13471.87"
"1305","13439.66"
"1306","13419.1"
"1307","13415.04"
"1308","13420.32"
"1309","13421.62"
"1310","13406.68"
"1311","13378.66"
"1312","13352.41"
"1313","13342.58"
"1314","13349.91"
"1315","13359.91"
"1316","13357.47"
"1317","13337.6"
"1318","13311.36"
"1319","13291.23"
"1320","13283.74"
"1321","13281.71"
"1322","13276.04"
"1323","13260.44"
"1324","13238.08"
"1325","13214.15"
"1326","13193.93"
"1327","13183.11"
"1328","13187.49"
"1329","13210.94"
"1330","13242.6"
"1331","13265.08"
"1332","13262.79"
"1333","13241.49"
"1334","13220.34"
"1335","13217.29"
"1336","13224.9"
"1337","13213.8"
"1338","13154.92"
"1339","13052.15"
"1340","12947.93"
"1341","12886.51"
"1342","12884.6"
"1343","12915.26"
"1344","12947.76"
"1345","12963.83"
"1346","12971.81"
"1347","12983.49"
"1348","13005.93"
"1349","13032.49"
"1350","13054.05"
"1351","13063.79"
"1352","13063.97"
"1353","13059.11"
"1354","13053.92"
"1355","13054.07"
"1356","13065.55"
"1357","13091.98"
"1358","13119.79"
"1359","13127.8"
"1360","13097.64"
"1361","13039.22"
"1362","12978.6"
"1363","12940.95"
"1364","12935.93"
"1365","12961.88"
"1366","13016.27"
"1367","13084.61"
"1368","13141.38"
"1369","13161.3"
"1370","13139.11"
"1371","13092.47"
"1372","13040.28"
"1373","12997.99"
"1374","12976.17"
"1375","12984.9"
"1376","13020.54"
"1377","13055.46"
"1378","13059.7"
"1379","13022.56"
"1380","12975.06"
"1381","12953.61"
"1382","12976.31"
"1383","13012.72"
"1384","13024.42"
"1385","12988.21"
"1386","12930.12"
"1387","12886.2"
"1388","12881.84"
"1389","12900.44"
"1390","12915.07"
"1391","12904.63"
"1392","12876.11"
"1393","12844.8"
"1394","12823.84"
"1395","12814.03"
"1396","12811.77"
"1397","12814.39"
"1398","12825.53"
"1399","12851.49"
"1400","12895.69"
"1401","12938.53"
"1402","12949.29"
"1403","12902.17"
"1404","12819.08"
"1405","12748.36"
"1406","12734"
"1407","12767.26"
"1408","12806.26"
"1409","12811.8"
"1410","12787.02"
"1411","12764.98"
"1412","12777.02"
"1413","12817.26"
"1414","12850.6"
"1415","12843.37"
"1416","12802.33"
"1417","12769.37"
"1418","12785.55"
"1419","12850.07"
"1420","12922.32"
"1421","12961.37"
"1422","12956.92"
"1423","12930.21"
"1424","12903.67"
"1425","12891.4"
"1426","12898.29"
"1427","12928.5"
"1428","12976.87"
"1429","13027.33"
"1430","13063.47"
"1431","13080.91"
"1432","13090.31"
"1433","13103.17"
"1434","13125.23"
"1435","13154.63"
"1436","13189"
"1437","13225.22"
"1438","13259.21"
"1439","13286.84"
"1440","13307.01"
"1441","13322.84"
"1442","13337.75"
"1443","13351.55"
"1444","13358.88"
"1445","13354.04"
"1446","13335.98"
"1447","13310.55"
"1448","13284.14"
"1449","13263.73"
"1450","13257.05"
"1451","13271.64"
"1452","13298.15"
"1453","13302.05"
"1454","13247.41"
"1455","13136.44"
"1456","13027.98"
"1457","12984.47"
"1458","13017.49"
"1459","13064.3"
"1460","13057.21"
"1461","12977.58"
"1462","12876.73"
"1463","12810.57"
"1464","12797.85"
"1465","12805.92"
"1466","12798.88"
"1467","12763.61"
"1468","12717.16"
"1469","12678.31"
"1470","12651.83"
"1471","12624.75"
"1472","12583.37"
"1473","12527.89"
"1474","12475.17"
"1475","12442.52"
"1476","12431.69"
"1477","12426.98"
"1478","12412.14"
"1479","12381.07"
"1480","12338.33"
"1481","12289.04"
"1482","12239.42"
"1483","12196.8"
"1484","12168.25"
"1485","12155.58"
"1486","12155.89"
"1487","12165.93"
"1488","12179.09"
"1489","12186.08"
"1490","12178.36"
"1491","12158.85"
"1492","12138.84"
"1493","12128.89"
"1494","12129.09"
"1495","12132.72"
"1496","12133.14"
"1497","12125.55"
"1498","12106.23"
"1499","12072.68"
"1500","12032.46"
"1501","11998.23"
"1502","11980.53"
"1503","11974.6"
"1504","11968.96"
"1505","11954.83"
"1506","11939.65"
"1507","11936.96"
"1508","11955.67"
"1509","11981.2"
"1510","11991.55"
"1511","11972.04"
"1512","11938.65"
"1513","11915.51"
"1514","11917.72"
"1515","11929.04"
"1516","11926.4"
"1517","11897.98"
"1518","11864.17"
"1519","11851.02"
"1520","11868.02"
"1521","11885.65"
"1522","11869.07"
"1523","11810.13"
"1524","11751.85"
"1525","11742.44"
"1526","11790.4"
"1527","11842.3"
"1528","11840.48"
"1529","11772.89"
"1530","11685.31"
"1531","11625.64"
"1532","11602.75"
"1533","11585.47"
"1534","11542.88"
"1535","11478.99"
"1536","11426.46"
"1537","11415.87"
"1538","11442.38"
"1539","11478.11"
"1540","11498.06"
"1541","11505.67"
"1542","11518.9"
"1543","11551.76"
"1544","11592.11"
"1545","11617.53"
"1546","11612.24"
"1547","11591.97"
"1548","11581.88"
"1549","11597.54"
"1550","11620.79"
"1551","11625.99"
"1552","11599.92"
"1553","11561.65"
"1554","11535.39"
"1555","11533.58"
"1556","11545.66"
"1557","11558.53"
"1558","11563.46"
"1559","11558.08"
"1560","11540.87"
"1561","11519.31"
"1562","11510.66"
"1563","11530.95"
"1564","11568.28"
"1565","11588.29"
"1566","11559.88"
"1567","11492.88"
"1568","11421.31"
"1569","11375.43"
"1570","11357.14"
"1571","11356.32"
"1572","11362.5"
"1573","11363.96"
"1574","11348.55"
"1575","11313.95"
"1576","11289.84"
"1577","11312.35"
"1578","11389.58"
"1579","11466.61"
"1580","11480.56"
"1581","11415.72"
"1582","11330.46"
"1583","11287.94"
"1584","11303.64"
"1585","11340.45"
"1586","11360.41"
"1587","11354.11"
"1588","11334.13"
"1589","11313.01"
"1590","11298.21"
"1591","11294.48"
"1592","11304.89"
"1593","11323.11"
"1594","11339.45"
"1595","11346.45"
"1596","11344.64"
"1597","11336.43"
"1598","11323.95"
"1599","11308.76"
"1600","11292.34"
"1601","11277.42"
"1602","11268.69"
"1603","11270.84"
"1604","11284.12"
"1605","11304.22"
"1606","11326.38"
"1607","11343.51"
"1608","11346.83"
"1609","11330.94"
"1610","11315.13"
"1611","11329.61"
"1612","11391.35"
"1613","11458.16"
"1614","11471.56"
"1615","11403.62"
"1616","11308.94"
"1617","11255.46"
"1618","11270.14"
"1619","11310.89"
"1620","11330.26"
"1621","11315.42"
"1622","11290.62"
"1623","11280.22"
"1624","11286.9"
"1625","11298.7"
"1626","11304.71"
"1627","11303.07"
"1628","11295.67"
"1629","11285.02"
"1630","11275.88"
"1631","11273.56"
"1632","11280.25"
"1633","11290.97"
"1634","11299.83"
"1635","11303.85"
"1636","11304.1"
"1637","11301.89"
"1638","11296.72"
"1639","11286.58"
"1640","11270.25"
"1641","11253.35"
"1642","11244.92"
"1643","11252.6"
"1644","11277.14"
"1645","11317.33"
"1646","11367.63"
"1647","11411.47"
"1648","11430.75"
"1649","11421.52"
"1650","11400.77"
"1651","11386.68"
"1652","11388.09"
"1653","11405.67"
"1654","11438.93"
"1655","11479.8"
"1656","11516.44"
"1657","11538.97"
"1658","11546.52"
"1659","11540.67"
"1660","11518.84"
"1661","11468.62"
"1662","11376.87"
"1663","11258.03"
"1664","11162.91"
"1665","11140.65"
"1666","11179.73"
"1667","11223.3"
"1668","11221.56"
"1669","11179.68"
"1670","11125.42"
"1671","11082.3"
"1672","11059.21"
"1673","11061.78"
"1674","11081.41"
"1675","11084"
"1676","11034.75"
"1677","10942.76"
"1678","10860.15"
"1679","10834.1"
"1680","10850.48"
"1681","10862.67"
"1682","10835.62"
"1683","10786.01"
"1684","10744.51"
"1685","10730.64"
"1686","10739.69"
"1687","10763.6"
"1688","10788.45"
"1689","10793.7"
"1690","10761.2"
"1691","10702.19"
"1692","10645.67"
"1693","10614.71"
"1694","10602.25"
"1695","10592.17"
"1696","10575.52"
"1697","10560.18"
"1698","10556.12"
"1699","10563.98"
"1700","10573.28"
"1701","10573.78"
"1702","10564.92"
"1703","10552"
"1704","10540.21"
"1705","10533.57"
"1706","10535.79"
"1707","10547.62"
"1708","10563.25"
"1709","10576"
"1710","10580.64"
"1711","10573.44"
"1712","10552.13"
"1713","10527.35"
"1714","10516.81"
"1715","10530.21"
"1716","10544.63"
"1717","10529.05"
"1718","10477.86"
"1719","10432.84"
"1720","10438.46"
"1721","10489.81"
"1722","10537.23"
"1723","10536.93"
"1724","10498.82"
"1725","10456.04"
"1726","10432"
"1727","10419.96"
"1728","10407.64"
"1729","10393.41"
"1730","10390.52"
"1731","10411.68"
"1732","10449.27"
"1733","10482.12"
"1734","10493.55"
"1735","10489.79"
"1736","10483.84"
"1737","10483.54"
"1738","10486.06"
"1739","10487.4"
"1740","10487.66"
"1741","10490.77"
"1742","10499.08"
"1743","10502.76"
"1744","10486.71"
"1745","10445.54"
"1746","10401.86"
"1747","10382.65"
"1748","10390.74"
"1749","10398.42"
"1750","10379.58"
"1751","10344.03"
"1752","10322.01"
"1753","10333.77"
"1754","10360.43"
"1755","10374.04"
"1756","10360.08"
"1757","10325.37"
"1758","10278.92"
"1759","10233.1"
"1760","10202.64"
"1761","10197.16"
"1762","10201.79"
"1763","10194.66"
"1764","10167.89"
"1765","10139.95"
"1766","10130.75"
"1767","10136.76"
"1768","10135.43"
"1769","10110.74"
"1770","10084.69"
"1771","10091.88"
"1772","10142.38"
"1773","10195.28"
"1774","10205.84"
"1775","10177.68"
"1776","10156.65"
"1777","10179.06"
"1778","10217.81"
"1779","10223.32"
"1780","10177.88"
"1781","10132.79"
"1782","10145.21"
"1783","10211.18"
"1784","10272.57"
"1785","10279.98"
"1786","10245.61"
"1787","10203.42"
"1788","10176.11"
"1789","10162.52"
"1790","10158.24"
"1791","10154.52"
"1792","10138.91"
"1793","10103.53"
"1794","10065.3"
"1795","10049.17"
"1796","10063.2"
"1797","10083.06"
"1798","10082.47"
"1799","10061.89"
"1800","10042.05"
"1801","10037.68"
"1802","10033.75"
"1803","10007.01"
"1804","9955.71"
"1805","9913.415"
"1806","9913.804"
"1807","9953.193"
"1808","10003.97"
"1809","10044.15"
"1810","10074.04"
"1811","10098.87"
"1812","10117.57"
"1813","10120.65"
"1814","10099.64"
"1815","10059.67"
"1816","10012.75"
"1817","9971.99"
"1818","9953.291"
"1819","9971.929"
"1820","10016.39"
"1821","10048.05"
"1822","10034.66"
"1823","9989.432"
"1824","9942.294"
"1825","9913.965"
"1826","9906.895"
"1827","9920.397"
"1828","9940.093"
"1829","9941.644"
"1830","9911.121"
"1831","9876.812"
"1832","9876.701"
"1833","9915.258"
"1834","9951.836"
"1835","9949.463"
"1836","9927.288"
"1837","9931.561"
"1838","9981.683"
"1839","10029.65"
"1840","10020.06"
"1841","9952.789"
"1842","9875.994"
"1843","9830.306"
"1844","9812.689"
"1845","9807.383"
"1846","9804.671"
"1847","9804.026"
"1848","9805.663"
"1849","9809.536"
"1850","9815.466"
"1851","9822.477"
"1852","9827.481"
"1853","9827.104"
"1854","9819.124"
"1855","9802.361"
"1856","9777.793"
"1857","9756.252"
"1858","9751.229"
"1859","9765.338"
"1860","9785.482"
"1861","9797.731"
"1862","9791.677"
"1863","9758.639"
"1864","9701.582"
"1865","9650.522"
"1866","9636.644"
"1867","9650.239"
"1868","9650.226"
"1869","9612.536"
"1870","9580.447"
"1871","9611.346"
"1872","9705.795"
"1873","9798.145"
"1874","9829.109"
"1875","9801.254"
"1876","9740.176"
"1877","9673.68"
"1878","9633.202"
"1879","9646.169"
"1880","9696.981"
"1881","9746.02"
"1882","9761.096"
"1883","9729.945"
"1884","9646.19"
"1885","9547.55"
"1886","9507.039"
"1887","9569.746"
"1888","9671.925"
"1889","9726.392"
"1890","9708.192"
"1891","9661.426"
"1892","9626.586"
"1893","9604.868"
"1894","9584.438"
"1895","9559.694"
"1896","9534.433"
"1897","9514.13"
"1898","9510.98"
"1899","9540.139"
"1900","9596.307"
"1901","9633.342"
"1902","9607.246"
"1903","9549.753"
"1904","9538.325"
"1905","9610.366"
"1906","9696.805"
"1907","9716.458"
"1908","9666.432"
"1909","9604.021"
"1910","9571.405"
"1911","9554.525"
"1912","9528.531"
"1913","9489.771"
"1914","9454.719"
"1915","9438.088"
"1916","9443.64"
"1917","9472.116"
"1918","9519.591"
"1919","9576.809"
"1920","9630.423"
"1921","9647.867"
"1922","9591.411"
"1923","9468.473"
"1924","9347.061"
"1925","9288.542"
"1926","9286.621"
"1927","9309.622"
"1928","9334.083"
"1929","9349.301"
"1930","9348.043"
"1931","9340.148"
"1932","9342.689"
"1933","9360.929"
"1934","9379.743"
"1935","9383.666"
"1936","9370.922"
"1937","9346.312"
"1938","9319.657"
"1939","9310.089"
"1940","9333.796"
"1941","9371.936"
"1942","9387.702"
"1943","9363.206"
"1944","9318.73"
"1945","9278.635"
"1946","9262.362"
"1947","9286.61"
"1948","9348.863"
"1949","9406.885"
"1950","9418.456"
"1951","9389.841"
"1952","9354.058"
"1953","9330.396"
"1954","9308.747"
"1955","9277.247"
"1956","9242.634"
"1957","9221.868"
"1958","9226.613"
"1959","9257.335"
"1960","9310.088"
"1961","9353.394"
"1962","9341.271"
"1963","9267.411"
"1964","9204.003"
"1965","9221.208"
"1966","9291.783"
"1967","9339.486"
"1968","9328.642"
"1969","9299.089"
"1970","9292.111"
"1971","9296.452"
"1972","9276.649"
"1973","9221.473"
"1974","9160.579"
"1975","9123.198"
"1976","9108.395"
"1977","9102.675"
"1978","9094.923"
"1979","9077.653"
"1980","9046.64"
"1981","9015.144"
"1982","9002.421"
"1983","9012.342"
"1984","9028.818"
"1985","9037.804"
"1986","9042.021"
"1987","9049.136"
"1988","9061.116"
"1989","9073.654"
"1990","9080.798"
"1991","9071.372"
"1992","9034.307"
"1993","8987.09"
"1994","8973.242"
"1995","9015.782"
"1996","9068.894"
"1997","9076.742"
"1998","9037.881"
"1999","8990.904"
"2000","8959.123"
"2001","8925.24"
"2002","8869.9"
"2003","8816.183"
"2004","8811.44"
"2005","8863.473"
"2006","8903.814"
"2007","8869.503"
"2008","8801.139"
"2009","8783.688"
"2010","8835.885"
"2011","8880.398"
"2012","8849.728"
"2013","8766.997"
"2014","8684.093"
"2015","8640.484"
"2016","8662.283"
"2017","8752.01"
"2018","8829.136"
"2019","8801.197"
"2020","8684.522"
"2021","8580.175"
"2022","8558.662"
"2023","8608.062"
"2024","8700.063"
"2025","8771.899"
"2026","8742.646"
"2027","8603.192"
"2028","8467.827"
"2029","8441.346"
"2030","8497.243"
"2031","8561.601"
"2032","8597.404"
"2033","8610.793"
"2034","8608.276"
"2035","8588.534"
"2036","8549.473"
"2037","8505.615"
"2038","8484.395"
"2039","8499.002"
"2040","8527.714"
"2041","8545.61"
"2042","8544.49"
"2043","8524.607"
"2044","8490.236"
"2045","8451.586"
"2046","8417.816"
"2047","8390.265"
"2048","8367.873"
"2049","8349.739"
"2050","8335.092"
"2051","8319.358"
"2052","8287.099"
"2053","8224.812"
"2054","8158.683"
"2055","8137.592"
"2056","8178.101"
"2057","8241.74"
"2058","8288.061"
"2059","8295.366"
"2060","8249.856"
"2061","8175.811"
"2062","8135.522"
"2063","8165.144"
"2064","8218.749"
"2065","8239.254"
"2066","8210.061"
"2067","8138.088"
"2068","8045.327"
"2069","7977.738"
"2070","7972.988"
"2071","8015.335"
"2072","8072.147"
"2073","8107.984"
"2074","8084.917"
"2075","7995.297"
"2076","7909.557"
"2077","7899.875"
"2078","7948.809"
"2079","7995.485"
"2080","8010.239"
"2081","8006.169"
"2082","7994.599"
"2083","7967.828"
"2084","7915.158"
"2085","7848.954"
"2086","7798.037"
"2087","7780.266"
"2088","7791.502"
"2089","7822.107"
"2090","7845.336"
"2091","7829.794"
"2092","7778.938"
"2093","7730.386"
"2094","7710.536"
"2095","7711.943"
"2096","7720.882"
"2097","7718.019"
"2098","7682.231"
"2099","7628.882"
"2100","7619.833"
"2101","7690.548"
"2102","7773.351"
"2103","7785.432"
"2104","7727.107"
"2105","7649.657"
"2106","7597.111"
"2107","7600.732"
"2108","7670.298"
"2109","7726.504"
"2110","7673.54"
"2111","7528.833"
"2112","7392.97"
"2113","7337.205"
"2114","7374.193"
"2115","7496.564"
"2116","7626.675"
"2117","7669.144"
"2118","7615.74"
"2119","7531.044"
"2120","7456.921"
"2121","7382.762"
"2122","7301.083"
"2123","7260.125"
"2124","7323.02"
"2125","7453.489"
"2126","7525.595"
"2127","7471.85"
"2128","7363"
"2129","7279.412"
"2130","7244.589"
"2131","7259.437"
"2132","7297.082"
"2133","7304.947"
"2134","7258.535"
"2135","7199.212"
"2136","7169.104"
"2137","7159.51"
"2138","7143.966"
"2139","7119.697"
"2140","7105.445"
"2141","7106.576"
"2142","7097.7"
"2143","7057.827"
"2144","7014.025"
"2145","7008.238"
"2146","7045.925"
"2147","7101.53"
"2148","7142.186"
"2149","7122.699"
"2150","7018.814"
"2151","6918.956"
"2152","6936.098"
"2153","7024.729"
"2154","7021.488"
"2155","6877.359"
"2156","6745.155"
"2157","6749.776"
"2158","6813.108"
"2159","6815.054"
"2160","6767.914"
"2161","6766.492"
"2162","6835.432"
"2163","6897.463"
"2164","6893.797"
"2165","6854.216"
"2166","6821.412"
"2167","6789.355"
"2168","6728.74"
"2169","6650.95"
"2170","6613.391"
"2171","6642.66"
"2172","6680.661"
"2173","6666.833"
"2174","6608.428"
"2175","6537.59"
"2176","6468.792"
"2177","6401.516"
"2178","6343.943"
"2179","6321.199"
"2180","6349.383"
"2181","6397.659"
"2182","6424.352"
"2183","6408.194"
"2184","6341.628"
"2185","6266.805"
"2186","6290.271"
"2187","6449.063"
"2188","6569.093"
"2189","6478.266"
"2190","6273.505"
"2191","6154.455"
"2192","6165.222"
"2193","6212.795"
"2194","6235.828"
"2195","6240.297"
"2196","6236.719"
"2197","6224.532"
"2198","6202.063"
"2199","6184.394"
"2200","6194.817"
"2201","6217.173"
"2202","6189.429"
"2203","6094.697"
"2204","6031.798"
"2205","6082.504"
"2206","6142.806"
"2207","6060.431"
"2208","5872.13"
"2209","5745.894"
"2210","5751.412"
"2211","5815.193"
"2212","5868.579"
"2213","5889.518"
"2214","5867.242"
"2215","5809.644"
"2216","5732.886"
"2217","5666.107"
"2218","5648.467"
"2219","5689.772"
"2220","5752.791"
"2221","5796.558"
"2222","5782.033"
"2223","5683.298"
"2224","5564.799"
"2225","5523.799"
"2226","5550.427"
"2227","5544.798"
"2228","5471.948"
"2229","5407.916"
"2230","5408.359"
"2231","5427.595"
"2232","5408.116"
"2233","5355.989"
"2234","5304.303"
"2235","5286.549"
"2236","5335.588"
"2237","5429.314"
"2238","5460.329"
"2239","5361.956"
"2240","5214.402"
"2241","5115.033"
"2242","5092.93"
"2243","5147.472"
"2244","5228.561"
"2245","5250.929"
"2246","5184.301"
"2247","5074.442"
"2248","4963.029"
"2249","4866.924"
"2250","4796.617"
"2251","4749.738"
"2252","4720.7"
"2253","4713.266"
"2254","4735.852"
"2255","4769.002"
"2256","4762.668"
"2257","4691.221"
"2258","4581.387"
"2259","4462.77"
"2260","4351.633"
"2261","4261.812"
"2262","4212.162"
"2263","4220.562"
"2264","4249.708"
"2265","4218.341"
"2266","4126.349"
"2267","4093.855"
"2268","4172.707"
"2269","4208.919"
"2270","4063.697"
"2271","3843.783"
"2272","3717.433"
"2273","3703.451"
"2274","3736.336"
"2275","3759.2"
"2276","3725.095"
"2277","3626.164"
"2278","3520.877"
"2279","3457.097"
"2280","3429.753"
"2281","3418.239"
"2282","3371.44"
"2283","3238.599"
"2284","3092.104"
"2285","3074.477"
"2286","3173.217"
"2287","3212.875"
"2288","3104.704"
"2289","2928.269"
"2290","2765.625"
"2291","2652.075"
"2292","2605.489"
"2293","2596.095"
"2294","2579.347"
"2295","2530.249"
"2296","2437.028"
"2297","2324.352"
"2298","2252.162"
"2299","2238.625"
"2300","2231.23"
