,"Scan 01143"
"400","11539.25"
"401","11521.55"
"402","11484.3"
"403","11419.61"
"404","11335.52"
"405","11245.16"
"406","11161.55"
"407","11095.94"
"408","11045.79"
"409","11001.94"
"410","10955.25"
"411","10897.89"
"412","10838.08"
"413","10795.24"
"414","10788.83"
"415","10837.23"
"416","10937.12"
"417","11064.03"
"418","11192.8"
"419","11298.78"
"420","11372.34"
"421","11423.97"
"422","11465.53"
"423","11508.7"
"424","11557.05"
"425","11599.23"
"426","11622.39"
"427","11613.81"
"428","11570.32"
"429","11512.57"
"430","11464.72"
"431","11450.79"
"432","11484.84"
"433","11547.79"
"434","11613.66"
"435","11656.69"
"436","11658.11"
"437","11630.33"
"438","11594.49"
"439","11571.52"
"440","11578.49"
"441","11609.73"
"442","11651.28"
"443","11689.28"
"444","11710.97"
"445","11711.88"
"446","11691.37"
"447","11648.83"
"448","11584.66"
"449","11509.37"
"450","11439.28"
"451","11390.68"
"452","11378.41"
"453","11399.62"
"454","11439.08"
"455","11481.43"
"456","11511.98"
"457","11526.16"
"458","11527.85"
"459","11521.13"
"460","11510.03"
"461","11497.42"
"462","11485.09"
"463","11474.76"
"464","11468.04"
"465","11463.41"
"466","11455.9"
"467","11440.37"
"468","11411.88"
"469","11371.26"
"470","11326.65"
"471","11286.61"
"472","11259.52"
"473","11248.05"
"474","11246.82"
"475","11249.87"
"476","11251.34"
"477","11248.13"
"478","11241.4"
"479","11232.7"
"480","11223.53"
"481","11214.24"
"482","11203.21"
"483","11188.65"
"484","11168.79"
"485","11144.46"
"486","11120.96"
"487","11104.08"
"488","11099.5"
"489","11107.72"
"490","11119.58"
"491","11124.92"
"492","11113.7"
"493","11082.96"
"494","11043.36"
"495","11007.01"
"496","10985.9"
"497","10984"
"498","10989.62"
"499","10989.33"
"500","10969.85"
"501","10925.81"
"502","10867.19"
"503","10805.66"
"504","10752.82"
"505","10715.25"
"506","10690.01"
"507","10673.12"
"508","10660.6"
"509","10646.9"
"510","10623.58"
"511","10581.89"
"512","10513.29"
"513","10420.54"
"514","10326.39"
"515","10255.43"
"516","10231.9"
"517","10259.32"
"518","10307.18"
"519","10341.95"
"520","10330.67"
"521","10265.37"
"522","10175.98"
"523","10095.5"
"524","10056.24"
"525","10067.55"
"526","10106.98"
"527","10149.83"
"528","10171.99"
"529","10165"
"530","10139.88"
"531","10108.83"
"532","10083.7"
"533","10068.34"
"534","10057.84"
"535","10046.85"
"536","10030.25"
"537","10007.04"
"538","9980.172"
"539","9952.776"
"540","9927.877"
"541","9907.304"
"542","9891.891"
"543","9882.438"
"544","9879.591"
"545","9881.966"
"546","9886.772"
"547","9891.199"
"548","9892.814"
"549","9892.903"
"550","9894.913"
"551","9902.308"
"552","9917.68"
"553","9936.908"
"554","9952.677"
"555","9957.689"
"556","9946.398"
"557","9923.848"
"558","9899.096"
"559","9881.165"
"560","9876.738"
"561","9881.557"
"562","9888.136"
"563","9889.023"
"564","9879.351"
"565","9863.497"
"566","9847.917"
"567","9839.031"
"568","9840.411"
"569","9847.912"
"570","9856.107"
"571","9859.601"
"572","9854.809"
"573","9841.82"
"574","9821.176"
"575","9793.44"
"576","9760.488"
"577","9726.214"
"578","9694.673"
"579","9669.897"
"580","9655.953"
"581","9656.959"
"582","9677.005"
"583","9719.563"
"584","9777.564"
"585","9835.094"
"586","9876.02"
"587","9885.935"
"588","9868.343"
"589","9837.653"
"590","9808.355"
"591","9792.7"
"592","9787.416"
"593","9782.598"
"594","9768.355"
"595","9738.037"
"596","9700.051"
"597","9667.171"
"598","9652.118"
"599","9661.846"
"600","9685.499"
"601","9708.824"
"602","9717.671"
"603","9705.551"
"604","9681.731"
"605","9657.389"
"606","9643.478"
"607","9642.591"
"608","9645.786"
"609","9643.298"
"610","9625.939"
"611","9595.443"
"612","9563.662"
"613","9542.78"
"614","9543.573"
"615","9561.817"
"616","9584.138"
"617","9597.077"
"618","9590.009"
"619","9570.043"
"620","9551.167"
"621","9547.346"
"622","9567.102"
"623","9598.388"
"624","9624.306"
"625","9628.057"
"626","9601.9"
"627","9558.887"
"628","9514.932"
"629","9485.675"
"630","9476.023"
"631","9475.675"
"632","9473.209"
"633","9457.79"
"634","9428.734"
"635","9394.288"
"636","9362.973"
"637","9342.719"
"638","9336.283"
"639","9343.651"
"640","9364.779"
"641","9398.325"
"642","9436.443"
"643","9469.295"
"644","9487.077"
"645","9485.138"
"646","9473.026"
"647","9462.712"
"648","9465.981"
"649","9485.62"
"650","9510.19"
"651","9527.024"
"652","9524.155"
"653","9502.954"
"654","9477.041"
"655","9460.463"
"656","9465.31"
"657","9486.464"
"658","9509.771"
"659","9521.041"
"660","9510.151"
"661","9485.38"
"662","9460.206"
"663","9448.055"
"664","9456.495"
"665","9479.215"
"666","9507.905"
"667","9534.314"
"668","9551.871"
"669","9556.16"
"670","9542.927"
"671","9508.831"
"672","9462.74"
"673","9422.155"
"674","9404.727"
"675","9423.823"
"676","9467.185"
"677","9512.989"
"678","9539.468"
"679","9532.688"
"680","9501.796"
"681","9460.17"
"682","9421.045"
"683","9391.567"
"684","9369.75"
"685","9352.849"
"686","9338.237"
"687","9324.971"
"688","9313.433"
"689","9304.037"
"690","9297.735"
"691","9298.897"
"692","9313.261"
"693","9346.548"
"694","9399.3"
"695","9456.564"
"696","9500.53"
"697","9513.748"
"698","9495.23"
"699","9467.934"
"700","9456.64"
"701","9483.674"
"702","9538.038"
"703","9584.503"
"704","9587.355"
"705","9521.103"
"706","9416.965"
"707","9325.8"
"708","9298.305"
"709","9358.878"
"710","9466.717"
"711","9571.136"
"712","9622.753"
"713","9609.534"
"714","9563.253"
"715","9518.109"
"716","9505.075"
"717","9524.456"
"718","9559.419"
"719","9592.97"
"720","9611.644"
"721","9615.783"
"722","9609.131"
"723","9595.418"
"724","9578.146"
"725","9560.42"
"726","9545.304"
"727","9535.792"
"728","9533.999"
"729","9541.323"
"730","9559.151"
"731","9587.828"
"732","9621.848"
"733","9653.654"
"734","9675.709"
"735","9683.678"
"736","9680.674"
"737","9670.843"
"738","9658.303"
"739","9646.369"
"740","9637.533"
"741","9634.249"
"742","9638.326"
"743","9646.803"
"744","9654.597"
"745","9656.616"
"746","9650.138"
"747","9639.177"
"748","9628.947"
"749","9624.552"
"750","9627.957"
"751","9637.349"
"752","9650.697"
"753","9665.896"
"754","9680.138"
"755","9690.257"
"756","9693.096"
"757","9688.085"
"758","9682.934"
"759","9686.986"
"760","9709.32"
"761","9749.238"
"762","9793.495"
"763","9828.047"
"764","9840.365"
"765","9831.719"
"766","9810.729"
"767","9786.072"
"768","9765.095"
"769","9750.842"
"770","9745.492"
"771","9751.149"
"772","9767.214"
"773","9789.68"
"774","9814.33"
"775","9837.241"
"776","9856.967"
"777","9873.31"
"778","9886.082"
"779","9895.77"
"780","9904.831"
"781","9916.082"
"782","9932.25"
"783","9953.413"
"784","9976.667"
"785","9998.952"
"786","10017.49"
"787","10031.57"
"788","10041.38"
"789","10047.1"
"790","10049.1"
"791","10048.17"
"792","10045.15"
"793","10040.88"
"794","10035.55"
"795","10028.79"
"796","10020.19"
"797","10010.08"
"798","10002.75"
"799","10003.86"
"800","10019.01"
"801","10048.05"
"802","10079.9"
"803","10102.3"
"804","10104.08"
"805","10088.65"
"806","10069.71"
"807","10061.19"
"808","10072.6"
"809","10096.22"
"810","10120.12"
"811","10132.55"
"812","10129.73"
"813","10118.63"
"814","10106.96"
"815","10102.07"
"816","10108.26"
"817","10128.32"
"818","10165.04"
"819","10215.85"
"820","10264.61"
"821","10293"
"822","10283.84"
"823","10241.12"
"824","10187.85"
"825","10147.73"
"826","10139.49"
"827","10157.58"
"828","10189.06"
"829","10221.03"
"830","10245.44"
"831","10261.77"
"832","10270.19"
"833","10271.03"
"834","10266.23"
"835","10258.59"
"836","10250.94"
"837","10245.87"
"838","10245.34"
"839","10251.2"
"840","10265"
"841","10282.44"
"842","10293.77"
"843","10289.06"
"844","10261.58"
"845","10220.22"
"846","10178.51"
"847","10149.88"
"848","10142.11"
"849","10154.61"
"850","10186.06"
"851","10234.54"
"852","10292.78"
"853","10350.86"
"854","10398.85"
"855","10430.12"
"856","10445.84"
"857","10448.33"
"858","10440.06"
"859","10426.09"
"860","10413.47"
"861","10409.29"
"862","10417.89"
"863","10433.25"
"864","10446.9"
"865","10450.66"
"866","10444.38"
"867","10437.13"
"868","10438.53"
"869","10455.85"
"870","10482.93"
"871","10508.73"
"872","10522.32"
"873","10522"
"874","10521.43"
"875","10535.75"
"876","10577.44"
"877","10634.94"
"878","10684.01"
"879","10700.31"
"880","10672.08"
"881","10617.59"
"882","10559.46"
"883","10519.29"
"884","10504.1"
"885","10510.19"
"886","10533.61"
"887","10570.14"
"888","10614.77"
"889","10662.31"
"890","10707.62"
"891","10747"
"892","10778.17"
"893","10798.9"
"894","10807.87"
"895","10807.82"
"896","10802.73"
"897","10796.55"
"898","10794.27"
"899","10802.12"
"900","10826.45"
"901","10871.05"
"902","10924.03"
"903","10967.43"
"904","10983.48"
"905","10967.58"
"906","10936.95"
"907","10910.87"
"908","10906.29"
"909","10921.12"
"910","10943.89"
"911","10963.11"
"912","10972.03"
"913","10973.7"
"914","10972.38"
"915","10972.07"
"916","10974.17"
"917","10978.48"
"918","10984.78"
"919","10992.2"
"920","10998.29"
"921","11000.34"
"922","10996.05"
"923","10988.8"
"924","10986.05"
"925","10995.37"
"926","11020.47"
"927","11053.46"
"928","11084.23"
"929","11103.15"
"930","11108.41"
"931","11104.79"
"932","11097.3"
"933","11089.5"
"934","11080.05"
"935","11066.5"
"936","11046.66"
"937","11023.42"
"938","11004.55"
"939","10998"
"940","11009.08"
"941","11032.37"
"942","11059.81"
"943","11083.5"
"944","11100.86"
"945","11114.8"
"946","11128.53"
"947","11143.37"
"948","11152.21"
"949","11145.62"
"950","11114.59"
"951","11062.78"
"952","11008.29"
"953","10969.99"
"954","10962.17"
"955","10976.96"
"956","10999.84"
"957","11016.66"
"958","11024.79"
"959","11035.48"
"960","11060.84"
"961","11108.25"
"962","11161.21"
"963","11195.7"
"964","11188.36"
"965","11140.3"
"966","11083.02"
"967","11049.97"
"968","11066.59"
"969","11116.8"
"970","11171.08"
"971","11200.38"
"972","11194.55"
"973","11167.21"
"974","11133.52"
"975","11105.87"
"976","11082.44"
"977","11056.75"
"978","11022.51"
"979","10980.26"
"980","10939"
"981","10908.31"
"982","10895.98"
"983","10900.71"
"984","10918.34"
"985","10944.67"
"986","10975.22"
"987","11005.1"
"988","11029.45"
"989","11044.5"
"990","11052.15"
"991","11056"
"992","11059.66"
"993","11066.83"
"994","11081.31"
"995","11106.93"
"996","11145.84"
"997","11192.6"
"998","11239.59"
"999","11279.3"
"1000","11307.02"
"1001","11321.12"
"1002","11320.11"
"1003","11304.29"
"1004","11281.45"
"1005","11261.33"
"1006","11253.66"
"1007","11262.63"
"1008","11278.43"
"1009","11289.1"
"1010","11283.83"
"1011","11263.87"
"1012","11237.57"
"1013","11213.4"
"1014","11199.24"
"1015","11201.93"
"1016","11228.14"
"1017","11282.11"
"1018","11349.45"
"1019","11407.29"
"1020","11433.02"
"1021","11421.3"
"1022","11392.51"
"1023","11369.22"
"1024","11369.85"
"1025","11390.84"
"1026","11421.29"
"1027","11450.47"
"1028","11473.06"
"1029","11489.62"
"1030","11501.06"
"1031","11508.14"
"1032","11511.2"
"1033","11510.46"
"1034","11506.27"
"1035","11500.8"
"1036","11497.65"
"1037","11500.44"
"1038","11511.69"
"1039","11531.13"
"1040","11558.07"
"1041","11591.26"
"1042","11624.39"
"1043","11648.47"
"1044","11654.57"
"1045","11641.44"
"1046","11620.26"
"1047","11603.34"
"1048","11601.06"
"1049","11613.08"
"1050","11635.43"
"1051","11664.1"
"1052","11694.26"
"1053","11720.24"
"1054","11736.3"
"1055","11738.79"
"1056","11730.83"
"1057","11716.89"
"1058","11701.37"
"1059","11687.87"
"1060","11679.43"
"1061","11679.05"
"1062","11686.22"
"1063","11693.77"
"1064","11693.77"
"1065","11680.95"
"1066","11666.72"
"1067","11668.79"
"1068","11704.13"
"1069","11767.67"
"1070","11829.86"
"1071","11859.83"
"1072","11838.82"
"1073","11787.83"
"1074","11736.08"
"1075","11710.56"
"1076","11713.32"
"1077","11730.62"
"1078","11748.59"
"1079","11759.68"
"1080","11767.48"
"1081","11776.71"
"1082","11791.02"
"1083","11808.52"
"1084","11825.48"
"1085","11838.26"
"1086","11845.46"
"1087","11847.78"
"1088","11846.02"
"1089","11841.16"
"1090","11834.7"
"1091","11828.23"
"1092","11822.9"
"1093","11816.36"
"1094","11804.58"
"1095","11783.71"
"1096","11756"
"1097","11731.55"
"1098","11720.98"
"1099","11730.49"
"1100","11750.7"
"1101","11768.77"
"1102","11773.01"
"1103","11764.63"
"1104","11752.85"
"1105","11746.96"
"1106","11750.51"
"1107","11757.83"
"1108","11762.42"
"1109","11760.02"
"1110","11756.19"
"1111","11759.22"
"1112","11776.77"
"1113","11807.38"
"1114","11842.8"
"1115","11874.64"
"1116","11896.58"
"1117","11906.17"
"1118","11901.39"
"1119","11881.83"
"1120","11855.29"
"1121","11832.18"
"1122","11822.33"
"1123","11825.98"
"1124","11835.56"
"1125","11843.27"
"1126","11844.79"
"1127","11842.6"
"1128","11840.04"
"1129","11839.36"
"1130","11837.38"
"1131","11829.08"
"1132","11809.8"
"1133","11780.53"
"1134","11746.89"
"1135","11714.67"
"1136","11690.45"
"1137","11682.39"
"1138","11698.83"
"1139","11743.99"
"1140","11801.42"
"1141","11848.18"
"1142","11862.77"
"1143","11845.31"
"1144","11812.35"
"1145","11780.81"
"1146","11762.09"
"1147","11757.92"
"1148","11769.04"
"1149","11794.72"
"1150","11827.9"
"1151","11859.77"
"1152","11882.24"
"1153","11895.4"
"1154","11904.72"
"1155","11915.62"
"1156","11928.07"
"1157","11933.99"
"1158","11924.71"
"1159","11896.81"
"1160","11864.96"
"1161","11847.64"
"1162","11860.99"
"1163","11900.71"
"1164","11952.07"
"1165","12000.42"
"1166","12036.28"
"1167","12055.94"
"1168","12055.96"
"1169","12035.89"
"1170","12002.46"
"1171","11963.53"
"1172","11927.41"
"1173","11904.86"
"1174","11907.57"
"1175","11945.82"
"1176","12007.78"
"1177","12064.09"
"1178","12085.16"
"1179","12062.31"
"1180","12021.75"
"1181","11993.01"
"1182","11996.96"
"1183","12022.38"
"1184","12050.68"
"1185","12065.2"
"1186","12066.69"
"1187","12064.83"
"1188","12069.17"
"1189","12084.94"
"1190","12112.71"
"1191","12152.81"
"1192","12199.95"
"1193","12236.56"
"1194","12243.48"
"1195","12208.46"
"1196","12152.11"
"1197","12104.77"
"1198","12093.96"
"1199","12115.75"
"1200","12146.66"
"1201","12163.37"
"1202","12157.42"
"1203","12138.59"
"1204","12117.8"
"1205","12103.79"
"1206","12099.94"
"1207","12108.82"
"1208","12131.57"
"1209","12161.75"
"1210","12190.5"
"1211","12209.62"
"1212","12218.58"
"1213","12221.9"
"1214","12224.09"
"1215","12227.48"
"1216","12231.79"
"1217","12236.53"
"1218","12240.16"
"1219","12238.61"
"1220","12227.43"
"1221","12205.19"
"1222","12184.77"
"1223","12183.38"
"1224","12215.39"
"1225","12266.29"
"1226","12304.69"
"1227","12300.27"
"1228","12257.28"
"1229","12217.12"
"1230","12222.81"
"1231","12288.65"
"1232","12372.12"
"1233","12423.99"
"1234","12411.58"
"1235","12364.92"
"1236","12328.89"
"1237","12341.39"
"1238","12388.06"
"1239","12430.9"
"1240","12433.94"
"1241","12397.29"
"1242","12350.4"
"1243","12323.27"
"1244","12328"
"1245","12351.01"
"1246","12376.75"
"1247","12394.17"
"1248","12403.7"
"1249","12407.6"
"1250","12408"
"1251","12406.28"
"1252","12403.57"
"1253","12400.99"
"1254","12399.02"
"1255","12397.84"
"1256","12397.72"
"1257","12400.46"
"1258","12409.29"
"1259","12427.43"
"1260","12453.47"
"1261","12478.89"
"1262","12494.58"
"1263","12495.93"
"1264","12490.21"
"1265","12486.61"
"1266","12492.56"
"1267","12507.2"
"1268","12527.24"
"1269","12549.17"
"1270","12567.53"
"1271","12575.87"
"1272","12568.32"
"1273","12548.46"
"1274","12527.66"
"1275","12517.34"
"1276","12520.94"
"1277","12531.38"
"1278","12540.86"
"1279","12543.54"
"1280","12537.82"
"1281","12522.62"
"1282","12498.31"
"1283","12470.41"
"1284","12445.55"
"1285","12429.37"
"1286","12421.35"
"1287","12418.71"
"1288","12418.75"
"1289","12419.57"
"1290","12419.8"
"1291","12418.1"
"1292","12414.26"
"1293","12409.02"
"1294","12403.27"
"1295","12400.1"
"1296","12405.8"
"1297","12426.88"
"1298","12465.83"
"1299","12516.41"
"1300","12571.26"
"1301","12622.28"
"1302","12658.89"
"1303","12670.02"
"1304","12648.43"
"1305","12607.72"
"1306","12568.47"
"1307","12549.64"
"1308","12556.53"
"1309","12587.44"
"1310","12639.62"
"1311","12695.56"
"1312","12726.66"
"1313","12705.19"
"1314","12635.98"
"1315","12559.53"
"1316","12517.8"
"1317","12524.34"
"1318","12547.85"
"1319","12553.04"
"1320","12525.12"
"1321","12496.31"
"1322","12505.46"
"1323","12574.09"
"1324","12664.97"
"1325","12728.44"
"1326","12726.16"
"1327","12676.62"
"1328","12616.04"
"1329","12576.1"
"1330","12554.91"
"1331","12535.51"
"1332","12503.02"
"1333","12467.22"
"1334","12453.37"
"1335","12484.47"
"1336","12538.25"
"1337","12553.36"
"1338","12469.19"
"1339","12290.34"
"1340","12097.78"
"1341","11976.02"
"1342","11955.1"
"1343","11978.74"
"1344","11983.22"
"1345","11942.41"
"1346","11910.59"
"1347","11952.39"
"1348","12098.83"
"1349","12283.26"
"1350","12421.35"
"1351","12454.37"
"1352","12424.75"
"1353","12399.97"
"1354","12433.94"
"1355","12507.92"
"1356","12578.91"
"1357","12609.21"
"1358","12600"
"1359","12569.6"
"1360","12535.41"
"1361","12504.71"
"1362","12479.07"
"1363","12460.08"
"1364","12451.05"
"1365","12456.57"
"1366","12480.72"
"1367","12516.86"
"1368","12548.5"
"1369","12559.16"
"1370","12543.95"
"1371","12511.32"
"1372","12470.47"
"1373","12432.48"
"1374","12411.05"
"1375","12419.9"
"1376","12456.92"
"1377","12492.15"
"1378","12492.91"
"1379","12449.19"
"1380","12399.92"
"1381","12390.41"
"1382","12441.59"
"1383","12509.87"
"1384","12541.06"
"1385","12503.65"
"1386","12439.74"
"1387","12406.31"
"1388","12441.81"
"1389","12511.38"
"1390","12562.12"
"1391","12553.61"
"1392","12505.07"
"1393","12453.49"
"1394","12429.64"
"1395","12429"
"1396","12434.52"
"1397","12431.13"
"1398","12417.43"
"1399","12397.67"
"1400","12376.03"
"1401","12355.79"
"1402","12339.83"
"1403","12330.83"
"1404","12330.17"
"1405","12338.42"
"1406","12355.44"
"1407","12372.83"
"1408","12377.04"
"1409","12355.98"
"1410","12318.05"
"1411","12286.17"
"1412","12282.18"
"1413","12306.5"
"1414","12342.71"
"1415","12374.41"
"1416","12394.45"
"1417","12403.7"
"1418","12403.23"
"1419","12392.85"
"1420","12371.16"
"1421","12337.09"
"1422","12298.49"
"1423","12272.41"
"1424","12275.77"
"1425","12309.17"
"1426","12355.2"
"1427","12395.76"
"1428","12422.08"
"1429","12436.41"
"1430","12441.74"
"1431","12444.2"
"1432","12453.83"
"1433","12480.59"
"1434","12520.35"
"1435","12550.38"
"1436","12547.18"
"1437","12509.86"
"1438","12468.47"
"1439","12454.9"
"1440","12478.86"
"1441","12518.57"
"1442","12550.07"
"1443","12561.33"
"1444","12557.71"
"1445","12545.94"
"1446","12532.89"
"1447","12525.63"
"1448","12531.17"
"1449","12552.09"
"1450","12584.34"
"1451","12623.22"
"1452","12657.58"
"1453","12666.64"
"1454","12629.25"
"1455","12546.22"
"1456","12451.02"
"1457","12379.39"
"1458","12348.79"
"1459","12349.89"
"1460","12371.19"
"1461","12399.16"
"1462","12417.37"
"1463","12409.46"
"1464","12371"
"1465","12314.19"
"1466","12252.31"
"1467","12194.51"
"1468","12144.45"
"1469","12105.34"
"1470","12078.06"
"1471","12060.56"
"1472","12050.48"
"1473","12041.71"
"1474","12023.65"
"1475","11986.13"
"1476","11938.56"
"1477","11912.38"
"1478","11938.59"
"1479","12006.55"
"1480","12062.06"
"1481","12051.3"
"1482","11973.83"
"1483","11880.88"
"1484","11823.81"
"1485","11817.13"
"1486","11842.61"
"1487","11881.09"
"1488","11916.64"
"1489","11935.95"
"1490","11927.13"
"1491","11896.83"
"1492","11865.14"
"1493","11850.58"
"1494","11849.02"
"1495","11841.67"
"1496","11811.94"
"1497","11767.93"
"1498","11731.94"
"1499","11724.02"
"1500","11743.9"
"1501","11781.06"
"1502","11824.09"
"1503","11855.78"
"1504","11856.41"
"1505","11812.73"
"1506","11750.68"
"1507","11710.84"
"1508","11723.12"
"1509","11763.26"
"1510","11789.9"
"1511","11774.27"
"1512","11740.68"
"1513","11727.47"
"1514","11757.51"
"1515","11799.91"
"1516","11812.04"
"1517","11771.69"
"1518","11714.94"
"1519","11688.2"
"1520","11711.24"
"1521","11741.35"
"1522","11727.16"
"1523","11654"
"1524","11577.37"
"1525","11560"
"1526","11614.01"
"1527","11672.62"
"1528","11663.66"
"1529","11571.83"
"1530","11453.92"
"1531","11369.13"
"1532","11321.48"
"1533","11258.46"
"1534","11129.09"
"1535","10951.45"
"1536","10800.34"
"1537","10746.3"
"1538","10789"
"1539","10881.87"
"1540","10981.38"
"1541","11077.56"
"1542","11177.5"
"1543","11285.33"
"1544","11385.29"
"1545","11453.78"
"1546","11476.12"
"1547","11480.12"
"1548","11506.28"
"1549","11576.55"
"1550","11647.66"
"1551","11661.96"
"1552","11593.96"
"1553","11502.27"
"1554","11458.83"
"1555","11496.16"
"1556","11570.12"
"1557","11628.21"
"1558","11642.57"
"1559","11621.19"
"1560","11574.94"
"1561","11515.97"
"1562","11457.83"
"1563","11413.63"
"1564","11388.52"
"1565","11381.23"
"1566","11389.85"
"1567","11408.2"
"1568","11427.52"
"1569","11440.06"
"1570","11445.28"
"1571","11445.69"
"1572","11442.75"
"1573","11432.8"
"1574","11410.65"
"1575","11375.9"
"1576","11343.8"
"1577","11332.71"
"1578","11349.15"
"1579","11372.93"
"1580","11380.46"
"1581","11364.4"
"1582","11343"
"1583","11336.27"
"1584","11350.21"
"1585","11375.38"
"1586","11401.61"
"1587","11419.76"
"1588","11421.49"
"1589","11400.51"
"1590","11369.04"
"1591","11349.01"
"1592","11357.12"
"1593","11379.29"
"1594","11390.61"
"1595","11374.83"
"1596","11347.5"
"1597","11331.41"
"1598","11338.9"
"1599","11357.46"
"1600","11371.12"
"1601","11371.25"
"1602","11360.73"
"1603","11343.61"
"1604","11327.82"
"1605","11325.32"
"1606","11346.55"
"1607","11380.09"
"1608","11399.5"
"1609","11383.54"
"1610","11351.49"
"1611","11340.58"
"1612","11376.65"
"1613","11434.6"
"1614","11475.25"
"1615","11474.42"
"1616","11448.42"
"1617","11420.18"
"1618","11403.33"
"1619","11395.65"
"1620","11393.41"
"1621","11392.23"
"1622","11387.12"
"1623","11373.65"
"1624","11355.5"
"1625","11341.8"
"1626","11340.61"
"1627","11351.96"
"1628","11372.56"
"1629","11398.42"
"1630","11422.96"
"1631","11438.95"
"1632","11444"
"1633","11446.78"
"1634","11457.34"
"1635","11476.5"
"1636","11492.36"
"1637","11492.65"
"1638","11475.28"
"1639","11446.66"
"1640","11413.82"
"1641","11386.25"
"1642","11374.75"
"1643","11386.37"
"1644","11410.9"
"1645","11433.16"
"1646","11443.53"
"1647","11446.73"
"1648","11449.71"
"1649","11454.59"
"1650","11456.41"
"1651","11450.02"
"1652","11437.53"
"1653","11427.32"
"1654","11427.47"
"1655","11441.41"
"1656","11470.23"
"1657","11511.57"
"1658","11547.97"
"1659","11557.78"
"1660","11527.77"
"1661","11464.58"
"1662","11378.03"
"1663","11290.94"
"1664","11243.26"
"1665","11271.65"
"1666","11348.16"
"1667","11396.56"
"1668","11355.24"
"1669","11268.82"
"1670","11225.55"
"1671","11278.87"
"1672","11363.14"
"1673","11387.92"
"1674","11315.66"
"1675","11203.58"
"1676","11116.94"
"1677","11079.09"
"1678","11072.3"
"1679","11077.51"
"1680","11079.05"
"1681","11063.04"
"1682","11020.92"
"1683","10966.95"
"1684","10921.59"
"1685","10898.31"
"1686","10895.42"
"1687","10909.17"
"1688","10933.7"
"1689","10960.76"
"1690","10981.68"
"1691","10985.06"
"1692","10957.84"
"1693","10893.97"
"1694","10821.58"
"1695","10779.09"
"1696","10784"
"1697","10805.08"
"1698","10805.06"
"1699","10778.01"
"1700","10755.08"
"1701","10765.4"
"1702","10792.58"
"1703","10792.47"
"1704","10735.66"
"1705","10664.55"
"1706","10642.61"
"1707","10697.55"
"1708","10777.82"
"1709","10822.89"
"1710","10820.35"
"1711","10810.51"
"1712","10830.82"
"1713","10865.77"
"1714","10870.89"
"1715","10817.09"
"1716","10738.8"
"1717","10686.38"
"1718","10682.99"
"1719","10701.08"
"1720","10708.69"
"1721","10696.9"
"1722","10677.66"
"1723","10662.31"
"1724","10652.24"
"1725","10644.53"
"1726","10637.36"
"1727","10632.26"
"1728","10631.39"
"1729","10636.24"
"1730","10647.35"
"1731","10664.31"
"1732","10675.95"
"1733","10663.92"
"1734","10617.63"
"1735","10564.26"
"1736","10542.23"
"1737","10570.11"
"1738","10625.58"
"1739","10681.57"
"1740","10717.71"
"1741","10719.96"
"1742","10678.16"
"1743","10608.1"
"1744","10536.73"
"1745","10486.65"
"1746","10467.73"
"1747","10487.11"
"1748","10534.36"
"1749","10576.92"
"1750","10585.12"
"1751","10572.84"
"1752","10578.76"
"1753","10625.42"
"1754","10672.92"
"1755","10667.1"
"1756","10597.51"
"1757","10522.92"
"1758","10503.24"
"1759","10531.13"
"1760","10552.03"
"1761","10524.49"
"1762","10473.37"
"1763","10442.69"
"1764","10452.14"
"1765","10475.8"
"1766","10484.18"
"1767","10472.45"
"1768","10455.69"
"1769","10447.87"
"1770","10453.71"
"1771","10474.79"
"1772","10503.26"
"1773","10511.68"
"1774","10472.54"
"1775","10402.72"
"1776","10357.88"
"1777","10382.28"
"1778","10446.7"
"1779","10495.82"
"1780","10498.17"
"1781","10474.01"
"1782","10449.8"
"1783","10440.79"
"1784","10452.23"
"1785","10484.49"
"1786","10511.67"
"1787","10498.71"
"1788","10439.54"
"1789","10388.99"
"1790","10405.78"
"1791","10480.23"
"1792","10544.69"
"1793","10543.18"
"1794","10491.69"
"1795","10429.89"
"1796","10386.83"
"1797","10371.18"
"1798","10387.94"
"1799","10421.6"
"1800","10441.1"
"1801","10422.8"
"1802","10379.15"
"1803","10332.8"
"1804","10302.58"
"1805","10301"
"1806","10337.91"
"1807","10398.89"
"1808","10453.91"
"1809","10480.64"
"1810","10485.93"
"1811","10483.22"
"1812","10481.47"
"1813","10483.66"
"1814","10490.72"
"1815","10489.4"
"1816","10459.28"
"1817","10394.52"
"1818","10329.54"
"1819","10304.37"
"1820","10326.37"
"1821","10369.88"
"1822","10408.12"
"1823","10416.65"
"1824","10372.08"
"1825","10280.32"
"1826","10204.96"
"1827","10210.83"
"1828","10284.75"
"1829","10356.95"
"1830","10374.64"
"1831","10357.57"
"1832","10343.01"
"1833","10347.22"
"1834","10358.22"
"1835","10362.75"
"1836","10353.7"
"1837","10326.94"
"1838","10284.76"
"1839","10245.38"
"1840","10228.78"
"1841","10241.56"
"1842","10278.65"
"1843","10330.02"
"1844","10364.24"
"1845","10344.18"
"1846","10270.38"
"1847","10200.42"
"1848","10189.37"
"1849","10225.05"
"1850","10259.77"
"1851","10263.54"
"1852","10254.01"
"1853","10255.33"
"1854","10267.34"
"1855","10268.23"
"1856","10243.95"
"1857","10219.91"
"1858","10232.4"
"1859","10287.16"
"1860","10345.85"
"1861","10370.23"
"1862","10351.87"
"1863","10296.84"
"1864","10218.95"
"1865","10149.82"
"1866","10121.34"
"1867","10130.53"
"1868","10147.61"
"1869","10149.31"
"1870","10139.53"
"1871","10128.66"
"1872","10129.72"
"1873","10158.78"
"1874","10224.67"
"1875","10291.48"
"1876","10307.02"
"1877","10256.67"
"1878","10191.05"
"1879","10162.16"
"1880","10170.96"
"1881","10189.98"
"1882","10199.45"
"1883","10200.35"
"1884","10196.85"
"1885","10192.65"
"1886","10191.02"
"1887","10193.56"
"1888","10195.6"
"1889","10191.3"
"1890","10182.65"
"1891","10180.44"
"1892","10190.59"
"1893","10190.5"
"1894","10148.71"
"1895","10075.03"
"1896","10041.3"
"1897","10108.42"
"1898","10214.31"
"1899","10240.84"
"1900","10142.8"
"1901","10021.3"
"1902","9983.961"
"1903","10019.76"
"1904","10046.01"
"1905","10017.41"
"1906","9989.06"
"1907","10026.89"
"1908","10114.76"
"1909","10173.45"
"1910","10152.8"
"1911","10106.13"
"1912","10105.38"
"1913","10156.48"
"1914","10202.61"
"1915","10198.11"
"1916","10155.13"
"1917","10101.08"
"1918","10063.46"
"1919","10069.91"
"1920","10134.84"
"1921","10204.59"
"1922","10205.05"
"1923","10123.92"
"1924","10031.88"
"1925","9993.354"
"1926","9997.945"
"1927","10007.34"
"1928","10002.02"
"1929","9991.515"
"1930","9986.447"
"1931","9987.59"
"1932","9991.503"
"1933","9997.067"
"1934","10007.2"
"1935","10023.9"
"1936","10038.98"
"1937","10039.42"
"1938","10024.86"
"1939","10018.77"
"1940","10042.76"
"1941","10079.21"
"1942","10090.37"
"1943","10061.88"
"1944","10026.53"
"1945","10018.65"
"1946","10034.3"
"1947","10048.89"
"1948","10045.45"
"1949","10023.31"
"1950","9985.516"
"1951","9951.215"
"1952","9948.336"
"1953","9981.673"
"1954","10007.41"
"1955","9982.149"
"1956","9925.742"
"1957","9892.702"
"1958","9905.17"
"1959","9917.832"
"1960","9884.735"
"1961","9830.983"
"1962","9819.447"
"1963","9869.26"
"1964","9912.577"
"1965","9881.751"
"1966","9799.354"
"1967","9733.45"
"1968","9727.49"
"1969","9778.776"
"1970","9874.024"
"1971","9956.648"
"1972","9950.641"
"1973","9848.372"
"1974","9757.072"
"1975","9775.232"
"1976","9864.751"
"1977","9931.301"
"1978","9931.422"
"1979","9897.882"
"1980","9863.865"
"1981","9827.995"
"1982","9776.839"
"1983","9716.643"
"1984","9679.159"
"1985","9685.812"
"1986","9698.55"
"1987","9663.22"
"1988","9587.765"
"1989","9548.432"
"1990","9599.439"
"1991","9691.696"
"1992","9752.242"
"1993","9751.916"
"1994","9701.487"
"1995","9621.92"
"1996","9561.936"
"1997","9570.994"
"1998","9628.989"
"1999","9664.593"
"2000","9642.161"
"2001","9618.248"
"2002","9655.212"
"2003","9729.763"
"2004","9769.275"
"2005","9738.06"
"2006","9672.399"
"2007","9611.937"
"2008","9561.05"
"2009","9508.874"
"2010","9457.387"
"2011","9427.225"
"2012","9432.851"
"2013","9449.104"
"2014","9439.526"
"2015","9407.707"
"2016","9400.236"
"2017","9438.797"
"2018","9446.997"
"2019","9335.868"
"2020","9166.4"
"2021","9116.285"
"2022","9267.59"
"2023","9455.246"
"2024","9498.948"
"2025","9437.122"
"2026","9426.854"
"2027","9517.813"
"2028","9573.355"
"2029","9473.421"
"2030","9308.563"
"2031","9243.423"
"2032","9318.104"
"2033","9427.302"
"2034","9478.588"
"2035","9460.788"
"2036","9383.7"
"2037","9283.498"
"2038","9216.866"
"2039","9209.372"
"2040","9210.816"
"2041","9168.037"
"2042","9097.763"
"2043","9051.425"
"2044","9054.073"
"2045","9090.478"
"2046","9139.989"
"2047","9172.029"
"2048","9155.256"
"2049","9108.362"
"2050","9097.497"
"2051","9152.853"
"2052","9195.775"
"2053","9141.421"
"2054","9041.06"
"2055","9023.842"
"2056","9118.978"
"2057","9185.393"
"2058","9102.482"
"2059","8951.068"
"2060","8874.832"
"2061","8899.533"
"2062","8933.124"
"2063","8912.35"
"2064","8874.202"
"2065","8867.915"
"2066","8880.534"
"2067","8863.638"
"2068","8798.398"
"2069","8714.877"
"2070","8648.375"
"2071","8637.327"
"2072","8717.663"
"2073","8854.843"
"2074","8950.304"
"2075","8942.568"
"2076","8871.941"
"2077","8791.687"
"2078","8727.765"
"2079","8692.646"
"2080","8692.314"
"2081","8724.087"
"2082","8774.175"
"2083","8787.685"
"2084","8707.828"
"2085","8590.979"
"2086","8573.916"
"2087","8693.698"
"2088","8791.048"
"2089","8722.013"
"2090","8563.521"
"2091","8466.746"
"2092","8469.036"
"2093","8496.044"
"2094","8493.718"
"2095","8474.756"
"2096","8460.831"
"2097","8457.311"
"2098","8461.679"
"2099","8471.378"
"2100","8483.858"
"2101","8492.196"
"2102","8474.302"
"2103","8410.798"
"2104","8348.48"
"2105","8373.483"
"2106","8481.709"
"2107","8525.709"
"2108","8401.968"
"2109","8255.474"
"2110","8282.257"
"2111","8436.746"
"2112","8496.611"
"2113","8367.092"
"2114","8199.186"
"2115","8137.95"
"2116","8157.16"
"2117","8179.759"
"2118","8201.105"
"2119","8276.83"
"2120","8406.308"
"2121","8467.319"
"2122","8357.613"
"2123","8179.793"
"2124","8102.377"
"2125","8148.585"
"2126","8210.356"
"2127","8214.024"
"2128","8173.796"
"2129","8116.755"
"2130","8075.548"
"2131","8082.275"
"2132","8113.296"
"2133","8093.32"
"2134","7993.583"
"2135","7895.149"
"2136","7876.508"
"2137","7907.989"
"2138","7921.84"
"2139","7895.923"
"2140","7849.673"
"2141","7804.2"
"2142","7780.847"
"2143","7793.93"
"2144","7817.453"
"2145","7813.878"
"2146","7792.362"
"2147","7801.408"
"2148","7850.388"
"2149","7868.68"
"2150","7798.219"
"2151","7692.062"
"2152","7634.311"
"2153","7652.861"
"2154","7732.991"
"2155","7830.059"
"2156","7849.921"
"2157","7731.687"
"2158","7575.918"
"2159","7513.927"
"2160","7539.858"
"2161","7561.917"
"2162","7538.768"
"2163","7503.005"
"2164","7482.632"
"2165","7471.102"
"2166","7456.271"
"2167","7440.053"
"2168","7431.216"
"2169","7430.842"
"2170","7431.268"
"2171","7424.472"
"2172","7402.749"
"2173","7362.866"
"2174","7329"
"2175","7333.006"
"2176","7356.867"
"2177","7340.278"
"2178","7252.553"
"2179","7120.502"
"2180","6986.784"
"2181","6934.63"
"2182","7043.875"
"2183","7236.666"
"2184","7341.066"
"2185","7286.494"
"2186","7136.438"
"2187","6962.147"
"2188","6830.706"
"2189","6798.542"
"2190","6853.506"
"2191","6954.21"
"2192","7041.893"
"2193","7043.193"
"2194","6952.845"
"2195","6892.149"
"2196","6951.545"
"2197","7037.65"
"2198","7024.808"
"2199","6935.845"
"2200","6874.787"
"2201","6860.655"
"2202","6812.635"
"2203","6693.808"
"2204","6587.442"
"2205","6573.309"
"2206","6614.871"
"2207","6640.055"
"2208","6624.258"
"2209","6576.729"
"2210","6526.748"
"2211","6530.851"
"2212","6609.476"
"2213","6670.888"
"2214","6624.671"
"2215","6523.12"
"2216","6469.882"
"2217","6480.29"
"2218","6498.665"
"2219","6482.874"
"2220","6415.607"
"2221","6305.468"
"2222","6238.076"
"2223","6293.486"
"2224","6400.691"
"2225","6430.58"
"2226","6374.424"
"2227","6325.052"
"2228","6326.249"
"2229","6336.142"
"2230","6314.953"
"2231","6256.204"
"2232","6166.192"
"2233","6092.344"
"2234","6095.057"
"2235","6157.748"
"2236","6200.851"
"2237","6170.372"
"2238","6055.168"
"2239","5878.711"
"2240","5758.198"
"2241","5794.918"
"2242","5878.252"
"2243","5830.899"
"2244","5687.473"
"2245","5635.286"
"2246","5717.635"
"2247","5777.043"
"2248","5717.808"
"2249","5640.607"
"2250","5643.87"
"2251","5654.439"
"2252","5558.258"
"2253","5389.626"
"2254","5269.937"
"2255","5242.318"
"2256","5262.382"
"2257","5294.162"
"2258","5327.785"
"2259","5347.715"
"2260","5305.212"
"2261","5158.146"
"2262","4975.312"
"2263","4870.319"
"2264","4856.354"
"2265","4864.21"
"2266","4857.458"
"2267","4851.147"
"2268","4850.209"
"2269","4822.174"
"2270","4737.935"
"2271","4616.118"
"2272","4487.136"
"2273","4350.74"
"2274","4191.046"
"2275","4031.041"
"2276","3931.85"
"2277","3915.439"
"2278","3933.778"
"2279","3941.727"
"2280","3924.501"
"2281","3877.586"
"2282","3822.135"
"2283","3782.788"
"2284","3722.848"
"2285","3571.252"
"2286","3348.067"
"2287","3169.101"
"2288","3104.378"
"2289","3134.088"
"2290","3211.585"
"2291","3236.144"
"2292","3128.101"
"2293","2985.384"
"2294","2949.504"
"2295","2970.78"
"2296","2892.277"
"2297","2711.386"
"2298","2578.334"
"2299","2558.995"
"2300","2570.785"
