,"Scan 01170"
"400","7285.808"
"401","7313.635"
"402","7327.965"
"403","7320.165"
"404","7297.043"
"405","7270.334"
"406","7251.682"
"407","7250.898"
"408","7263.571"
"409","7278.461"
"410","7284.363"
"411","7271.341"
"412","7244.95"
"413","7221.495"
"414","7217.38"
"415","7247.964"
"416","7307.769"
"417","7371.024"
"418","7411.288"
"419","7402.875"
"420","7344.328"
"421","7266.724"
"422","7203.235"
"423","7186.576"
"424","7227.529"
"425","7296.736"
"426","7360.714"
"427","7386.264"
"428","7355.313"
"429","7287.282"
"430","7207.216"
"431","7139.981"
"432","7103.57"
"433","7093.138"
"434","7099.067"
"435","7111.811"
"436","7123.307"
"437","7131.991"
"438","7138.133"
"439","7142.004"
"440","7144.001"
"441","7145.309"
"442","7147.393"
"443","7151.709"
"444","7159.433"
"445","7169.629"
"446","7180.384"
"447","7189.787"
"448","7195.952"
"449","7197.084"
"450","7191.448"
"451","7177.322"
"452","7153.338"
"453","7122.676"
"454","7091.697"
"455","7066.781"
"456","7053.877"
"457","7052.25"
"458","7055.603"
"459","7057.508"
"460","7051.82"
"461","7037.668"
"462","7019.309"
"463","7001.18"
"464","6987.564"
"465","6978.857"
"466","6971.14"
"467","6960.284"
"468","6942.336"
"469","6918.875"
"470","6898.467"
"471","6890.081"
"472","6902.435"
"473","6935.002"
"474","6974.247"
"475","7005.733"
"476","7015.289"
"477","6999.623"
"478","6972.231"
"479","6947.981"
"480","6941.508"
"481","6957.07"
"482","6981.606"
"483","7000.479"
"484","6999.244"
"485","6972.944"
"486","6933.461"
"487","6894.348"
"488","6869.003"
"489","6863.159"
"490","6868.29"
"491","6874.361"
"492","6871.441"
"493","6854.679"
"494","6828.954"
"495","6800.22"
"496","6774.376"
"497","6754.636"
"498","6739.002"
"499","6724.885"
"500","6709.714"
"501","6691.643"
"502","6670.207"
"503","6645.11"
"504","6616.057"
"505","6583.227"
"506","6547.705"
"507","6510.668"
"508","6473.295"
"509","6436.759"
"510","6402.25"
"511","6370.952"
"512","6344.032"
"513","6321.243"
"514","6299.881"
"515","6276.994"
"516","6249.701"
"517","6218.417"
"518","6189.012"
"519","6167.827"
"520","6161.06"
"521","6168.286"
"522","6178.997"
"523","6181.888"
"524","6165.93"
"525","6129.807"
"526","6085.672"
"527","6046.612"
"528","6025.356"
"529","6024.357"
"530","6033.281"
"531","6041.039"
"532","6036.881"
"533","6017.781"
"534","5989.224"
"535","5957.106"
"536","5927.275"
"537","5905.091"
"538","5895.448"
"539","5903.197"
"540","5932.48"
"541","5975.9"
"542","6016.527"
"543","6037.222"
"544","6022.609"
"545","5979.312"
"546","5929.354"
"547","5894.959"
"548","5895.61"
"549","5923.633"
"550","5955.573"
"551","5967.884"
"552","5940.669"
"553","5882.206"
"554","5814.157"
"555","5758.154"
"556","5732.204"
"557","5732.432"
"558","5746.68"
"559","5762.829"
"560","5770.688"
"561","5769.059"
"562","5759.394"
"563","5743.142"
"564","5722.996"
"565","5706.164"
"566","5700.848"
"567","5715.204"
"568","5751.58"
"569","5796.524"
"570","5833.97"
"571","5847.988"
"572","5832.117"
"573","5799.215"
"574","5764.462"
"575","5742.813"
"576","5740.458"
"577","5750.161"
"578","5763.577"
"579","5772.565"
"580","5774.033"
"581","5770.642"
"582","5765.354"
"583","5760.958"
"584","5757.479"
"585","5752.61"
"586","5743.985"
"587","5729.643"
"588","5711.942"
"589","5695.862"
"590","5686.398"
"591","5687.794"
"592","5699.075"
"593","5717.044"
"594","5738.503"
"595","5759.931"
"596","5776.22"
"597","5781.817"
"598","5771.193"
"599","5742.76"
"600","5707.115"
"601","5677.177"
"602","5665.761"
"603","5677.582"
"604","5700.7"
"605","5721.158"
"606","5725.282"
"607","5709.546"
"608","5684.466"
"609","5661.549"
"610","5651.766"
"611","5656.173"
"612","5666.629"
"613","5674.677"
"614","5672.676"
"615","5661.555"
"616","5647.476"
"617","5636.657"
"618","5634.465"
"619","5641.018"
"620","5654.379"
"621","5672.62"
"622","5692.977"
"623","5709.486"
"624","5715.445"
"625","5704.192"
"626","5673.864"
"627","5633.618"
"628","5594.12"
"629","5565.885"
"630","5553.728"
"631","5554.389"
"632","5564.01"
"633","5578.727"
"634","5594.339"
"635","5606.349"
"636","5610.271"
"637","5602.583"
"638","5588.562"
"639","5578.176"
"640","5581.401"
"641","5604.528"
"642","5635.592"
"643","5657"
"644","5651.226"
"645","5610.822"
"646","5556.186"
"647","5512.432"
"648","5504.326"
"649","5539.211"
"650","5596.899"
"651","5654.824"
"652","5691.261"
"653","5699.991"
"654","5689.062"
"655","5667.028"
"656","5642.03"
"657","5618.668"
"658","5599.672"
"659","5587.751"
"660","5585.012"
"661","5590.846"
"662","5603.879"
"663","5622.732"
"664","5644.202"
"665","5660.726"
"666","5664.13"
"667","5646.533"
"668","5610.702"
"669","5573.164"
"670","5551.318"
"671","5560.951"
"672","5596.926"
"673","5639.256"
"674","5667.695"
"675","5665.772"
"676","5639.65"
"677","5603.925"
"678","5573.172"
"679","5557.584"
"680","5554.473"
"681","5558.792"
"682","5565.546"
"683","5572.086"
"684","5579.29"
"685","5588.323"
"686","5600.135"
"687","5612.319"
"688","5619.829"
"689","5617.557"
"690","5601.963"
"691","5579.619"
"692","5561.106"
"693","5556.991"
"694","5573.346"
"695","5602.813"
"696","5635.555"
"697","5661.855"
"698","5677.168"
"699","5684.462"
"700","5687.291"
"701","5688.898"
"702","5688.345"
"703","5681.651"
"704","5664.776"
"705","5635.381"
"706","5600.634"
"707","5570.985"
"708","5556.856"
"709","5563.805"
"710","5585.354"
"711","5613.198"
"712","5639.159"
"713","5658.583"
"714","5670.943"
"715","5675.947"
"716","5673.609"
"717","5666.894"
"718","5660.412"
"719","5658.783"
"720","5665.012"
"721","5675.755"
"722","5686.107"
"723","5691.2"
"724","5688.302"
"725","5678.352"
"726","5662.656"
"727","5642.783"
"728","5624.602"
"729","5617.394"
"730","5630.519"
"731","5670.061"
"732","5723.558"
"733","5772.033"
"734","5796.575"
"735","5788.019"
"736","5759.83"
"737","5728.652"
"738","5710.583"
"739","5709.137"
"740","5714.949"
"741","5718.087"
"742","5710.361"
"743","5696.354"
"744","5686.374"
"745","5690.726"
"746","5714.216"
"747","5745.917"
"748","5772.128"
"749","5779.506"
"750","5765.826"
"751","5742.197"
"752","5720.502"
"753","5711.377"
"754","5714.79"
"755","5725.224"
"756","5737.133"
"757","5746.873"
"758","5756.866"
"759","5770.739"
"760","5792.021"
"761","5820.729"
"762","5852.374"
"763","5882.178"
"764","5905.542"
"765","5919.506"
"766","5921.984"
"767","5910.895"
"768","5887.044"
"769","5860.498"
"770","5843.175"
"771","5846.694"
"772","5872.154"
"773","5907.437"
"774","5939.595"
"775","5957.227"
"776","5962.017"
"777","5962.276"
"778","5966.36"
"779","5978.818"
"780","5993.009"
"781","6000.243"
"782","5992.245"
"783","5972.441"
"784","5957.475"
"785","5964.675"
"786","6007.331"
"787","6069.635"
"788","6123.029"
"789","6138.978"
"790","6104.42"
"791","6044.368"
"792","5989.552"
"793","5969.483"
"794","5989.361"
"795","6031.715"
"796","6078.225"
"797","6112.671"
"798","6130.429"
"799","6130.873"
"800","6113.423"
"801","6082.076"
"802","6049.479"
"803","6029.231"
"804","6033.719"
"805","6059.438"
"806","6091.626"
"807","6115.297"
"808","6119.556"
"809","6109.535"
"810","6094.287"
"811","6082.787"
"812","6080.894"
"813","6090.257"
"814","6112.233"
"815","6147.266"
"816","6188.355"
"817","6224.842"
"818","6246.06"
"819","6245.849"
"820","6229.552"
"821","6204.32"
"822","6177.218"
"823","6153.71"
"824","6137.831"
"825","6133.554"
"826","6142.98"
"827","6158.988"
"828","6171.64"
"829","6171.153"
"830","6157.131"
"831","6143.978"
"832","6147.388"
"833","6180.587"
"834","6233.484"
"835","6283.137"
"836","6306.5"
"837","6292.404"
"838","6262.368"
"839","6243.478"
"840","6261.402"
"841","6313.824"
"842","6372.595"
"843","6408.606"
"844","6399.827"
"845","6358.264"
"846","6306.154"
"847","6265.553"
"848","6248.855"
"849","6254.09"
"850","6278.122"
"851","6317.146"
"852","6361.804"
"853","6399.964"
"854","6419.508"
"855","6415.161"
"856","6397.862"
"857","6380.897"
"858","6376.831"
"859","6387.465"
"860","6406.288"
"861","6426.567"
"862","6442.128"
"863","6448.876"
"864","6443.204"
"865","6421.758"
"866","6388.685"
"867","6356.769"
"868","6339.271"
"869","6346.709"
"870","6373.604"
"871","6408.676"
"872","6440.717"
"873","6464.457"
"874","6484.535"
"875","6506.528"
"876","6535.039"
"877","6565.917"
"878","6590.361"
"879","6599.556"
"880","6589.902"
"881","6570.256"
"882","6551.29"
"883","6543.192"
"884","6549.392"
"885","6568.323"
"886","6598.302"
"887","6635.414"
"888","6668.224"
"889","6683.723"
"890","6669.676"
"891","6631.5"
"892","6592.107"
"893","6575.173"
"894","6597.533"
"895","6644.353"
"896","6691.615"
"897","6715.746"
"898","6710.393"
"899","6691.536"
"900","6676.637"
"901","6680.337"
"902","6699.675"
"903","6724.914"
"904","6746.35"
"905","6757.702"
"906","6758.352"
"907","6748.209"
"908","6728.187"
"909","6707.411"
"910","6699.043"
"911","6716.195"
"912","6760.299"
"913","6808.643"
"914","6835.529"
"915","6818.478"
"916","6769.44"
"917","6721.182"
"918","6706.729"
"919","6742.581"
"920","6803.485"
"921","6857.698"
"922","6875.684"
"923","6858.178"
"924","6827.782"
"925","6807.586"
"926","6812.135"
"927","6830.154"
"928","6845.506"
"929","6842.983"
"930","6823.334"
"931","6800.711"
"932","6789.683"
"933","6799.794"
"934","6822.848"
"935","6846.733"
"936","6859.804"
"937","6860.398"
"938","6856.34"
"939","6855.831"
"940","6864.755"
"941","6879.675"
"942","6894.813"
"943","6904.465"
"944","6904.947"
"945","6894.695"
"946","6872.249"
"947","6838.188"
"948","6802.195"
"949","6776.485"
"950","6772.866"
"951","6791.112"
"952","6817.297"
"953","6836.748"
"954","6838.243"
"955","6827.172"
"956","6813.917"
"957","6808.67"
"958","6815.432"
"959","6830.742"
"960","6850.702"
"961","6871.529"
"962","6890.051"
"963","6903.289"
"964","6908.306"
"965","6903.716"
"966","6890.066"
"967","6868.017"
"968","6839.314"
"969","6811.284"
"970","6793.069"
"971","6793.582"
"972","6813.233"
"973","6841.724"
"974","6868.068"
"975","6882.626"
"976","6882.827"
"977","6868.386"
"978","6839.155"
"979","6799.701"
"980","6760.494"
"981","6732.375"
"982","6724.08"
"983","6733.565"
"984","6755.362"
"985","6784"
"986","6814.193"
"987","6840.867"
"988","6858.961"
"989","6864.231"
"990","6856.425"
"991","6836.505"
"992","6805.655"
"993","6771.828"
"994","6750.798"
"995","6758.797"
"996","6805.558"
"997","6871.083"
"998","6926.881"
"999","6945.382"
"1000","6924.09"
"1001","6887.707"
"1002","6862.306"
"1003","6867.348"
"1004","6894.485"
"1005","6928.091"
"1006","6952.532"
"1007","6957.821"
"1008","6948.144"
"1009","6929.879"
"1010","6909.627"
"1011","6896.209"
"1012","6899.766"
"1013","6930.369"
"1014","6987.064"
"1015","7047.191"
"1016","7085.545"
"1017","7081.086"
"1018","7044.249"
"1019","6999.806"
"1020","6972.362"
"1021","6972.794"
"1022","6991.449"
"1023","7016.988"
"1024","7039.165"
"1025","7053.627"
"1026","7057.988"
"1027","7050.071"
"1028","7033.579"
"1029","7018.676"
"1030","7015.871"
"1031","7032.454"
"1032","7063.815"
"1033","7102.591"
"1034","7141.552"
"1035","7175.547"
"1036","7201.045"
"1037","7214.568"
"1038","7215.401"
"1039","7209.638"
"1040","7204.418"
"1041","7206.044"
"1042","7213.213"
"1043","7220.59"
"1044","7222.854"
"1045","7218.943"
"1046","7214.718"
"1047","7216.672"
"1048","7229.284"
"1049","7245.984"
"1050","7256.462"
"1051","7250.859"
"1052","7230.991"
"1053","7210.917"
"1054","7205.284"
"1055","7223.461"
"1056","7257.717"
"1057","7296.85"
"1058","7330.348"
"1059","7355.853"
"1060","7376.328"
"1061","7394.803"
"1062","7410.607"
"1063","7416.045"
"1064","7402.62"
"1065","7365.572"
"1066","7323.166"
"1067","7302.47"
"1068","7329.475"
"1069","7399.083"
"1070","7471.63"
"1071","7505.617"
"1072","7476.581"
"1073","7416.117"
"1074","7367.356"
"1075","7369.628"
"1076","7419.217"
"1077","7485.253"
"1078","7536.57"
"1079","7554.648"
"1080","7543.107"
"1081","7507.801"
"1082","7456.269"
"1083","7404.986"
"1084","7373.395"
"1085","7379.895"
"1086","7421.09"
"1087","7473.187"
"1088","7511.6"
"1089","7520.082"
"1090","7503.866"
"1091","7471.611"
"1092","7432.035"
"1093","7394.295"
"1094","7367.769"
"1095","7361.565"
"1096","7374.646"
"1097","7393.039"
"1098","7401.923"
"1099","7391.246"
"1100","7367.87"
"1101","7342.384"
"1102","7324.73"
"1103","7317.47"
"1104","7318.569"
"1105","7325.904"
"1106","7336.18"
"1107","7344.223"
"1108","7344.686"
"1109","7333.915"
"1110","7315.764"
"1111","7296.18"
"1112","7280.953"
"1113","7273.588"
"1114","7275.909"
"1115","7289.664"
"1116","7314.208"
"1117","7344.409"
"1118","7374.648"
"1119","7399.519"
"1120","7414.754"
"1121","7416.438"
"1122","7401.174"
"1123","7373.958"
"1124","7346.625"
"1125","7331.157"
"1126","7332.602"
"1127","7342.194"
"1128","7349.532"
"1129","7346.507"
"1130","7337.198"
"1131","7329.704"
"1132","7331.521"
"1133","7340.131"
"1134","7344.808"
"1135","7334.652"
"1136","7308.546"
"1137","7284.45"
"1138","7282.541"
"1139","7316.441"
"1140","7366.881"
"1141","7404.281"
"1142","7401.195"
"1143","7361.911"
"1144","7314.875"
"1145","7288.97"
"1146","7296.567"
"1147","7321.05"
"1148","7342.856"
"1149","7347.479"
"1150","7342.334"
"1151","7340.77"
"1152","7354.886"
"1153","7381.957"
"1154","7409.607"
"1155","7425.421"
"1156","7423.776"
"1157","7408.952"
"1158","7386.012"
"1159","7360.782"
"1160","7341.695"
"1161","7337.741"
"1162","7356.556"
"1163","7394.098"
"1164","7440.368"
"1165","7485.339"
"1166","7519.747"
"1167","7535.176"
"1168","7523.272"
"1169","7483.213"
"1170","7432.755"
"1171","7392.489"
"1172","7379.601"
"1173","7391.329"
"1174","7417.689"
"1175","7448.885"
"1176","7478.388"
"1177","7502.265"
"1178","7516.695"
"1179","7521.395"
"1180","7521.974"
"1181","7524.613"
"1182","7532.25"
"1183","7535.86"
"1184","7523.656"
"1185","7486.62"
"1186","7439.885"
"1187","7411.001"
"1188","7426.553"
"1189","7485.492"
"1190","7557.508"
"1191","7610.932"
"1192","7627.507"
"1193","7618.171"
"1194","7597.706"
"1195","7579.186"
"1196","7567.55"
"1197","7565.332"
"1198","7574.409"
"1199","7589.341"
"1200","7600.153"
"1201","7597.114"
"1202","7581.484"
"1203","7567.999"
"1204","7572.203"
"1205","7600.118"
"1206","7634.43"
"1207","7654.293"
"1208","7643.981"
"1209","7614.313"
"1210","7584.664"
"1211","7573.177"
"1212","7583.379"
"1213","7609.325"
"1214","7644.857"
"1215","7681.729"
"1216","7709.127"
"1217","7716.097"
"1218","7699.647"
"1219","7675.671"
"1220","7662.806"
"1221","7674.796"
"1222","7701.844"
"1223","7727.103"
"1224","7735.32"
"1225","7727.665"
"1226","7714.871"
"1227","7707.446"
"1228","7706.375"
"1229","7702.404"
"1230","7685.838"
"1231","7655.227"
"1232","7625.427"
"1233","7613.22"
"1234","7629.449"
"1235","7662.475"
"1236","7695.324"
"1237","7713.29"
"1238","7718.65"
"1239","7721.368"
"1240","7731.044"
"1241","7750.6"
"1242","7777.505"
"1243","7809.027"
"1244","7840.447"
"1245","7864.195"
"1246","7872.493"
"1247","7863.374"
"1248","7849.808"
"1249","7847.13"
"1250","7866.206"
"1251","7896.608"
"1252","7921.582"
"1253","7926.484"
"1254","7916.036"
"1255","7905.292"
"1256","7908.754"
"1257","7927.986"
"1258","7952.741"
"1259","7972.428"
"1260","7981.4"
"1261","7981.629"
"1262","7975.739"
"1263","7966.161"
"1264","7954.833"
"1265","7943.616"
"1266","7934.321"
"1267","7928.56"
"1268","7927.877"
"1269","7933.818"
"1270","7947.851"
"1271","7971.411"
"1272","8005.352"
"1273","8040.794"
"1274","8060.88"
"1275","8048.951"
"1276","8006.782"
"1277","7960.527"
"1278","7937.944"
"1279","7952.611"
"1280","7987.701"
"1281","8022.443"
"1282","8040.44"
"1283","8040.866"
"1284","8026.361"
"1285","7999.729"
"1286","7964.732"
"1287","7925.496"
"1288","7886.548"
"1289","7856.619"
"1290","7846.926"
"1291","7867.908"
"1292","7913.564"
"1293","7962.794"
"1294","7994.274"
"1295","8003.324"
"1296","8008.678"
"1297","8030.774"
"1298","8077.932"
"1299","8132.248"
"1300","8172.372"
"1301","8183.349"
"1302","8171.938"
"1303","8149.499"
"1304","8126.115"
"1305","8105.005"
"1306","8087.09"
"1307","8073.357"
"1308","8065.368"
"1309","8064.96"
"1310","8073.52"
"1311","8085.574"
"1312","8090.491"
"1313","8077.942"
"1314","8049.802"
"1315","8021.31"
"1316","8008.268"
"1317","8017.03"
"1318","8039.01"
"1319","8064.289"
"1320","8084.346"
"1321","8093.888"
"1322","8088.068"
"1323","8065.583"
"1324","8037.13"
"1325","8015.95"
"1326","8011.996"
"1327","8018.753"
"1328","8024.572"
"1329","8019.196"
"1330","8002.735"
"1331","7979.952"
"1332","7955.871"
"1333","7938.095"
"1334","7935.856"
"1335","7957.36"
"1336","7991.785"
"1337","8011.876"
"1338","7990.723"
"1339","7929.438"
"1340","7861.973"
"1341","7823.885"
"1342","7831.917"
"1343","7873.023"
"1344","7931.518"
"1345","7991.479"
"1346","8036.51"
"1347","8050.14"
"1348","8024.918"
"1349","7979.556"
"1350","7937.507"
"1351","7916.942"
"1352","7915.129"
"1353","7924.169"
"1354","7936.206"
"1355","7943.634"
"1356","7938.922"
"1357","7917.013"
"1358","7890.819"
"1359","7881.187"
"1360","7906.063"
"1361","7954.133"
"1362","7997.33"
"1363","8009.506"
"1364","7994.055"
"1365","7975.951"
"1366","7979.44"
"1367","8004.393"
"1368","8028.238"
"1369","8028.128"
"1370","7998.358"
"1371","7952.898"
"1372","7906.742"
"1373","7871.512"
"1374","7854.034"
"1375","7860.665"
"1376","7888.996"
"1377","7921.226"
"1378","7938.041"
"1379","7931.994"
"1380","7921.261"
"1381","7927.343"
"1382","7958.993"
"1383","7991.163"
"1384","7993.257"
"1385","7949.853"
"1386","7894.68"
"1387","7871.435"
"1388","7907.357"
"1389","7964.77"
"1390","7989.964"
"1391","7944.538"
"1392","7863.03"
"1393","7801.686"
"1394","7805.356"
"1395","7853.788"
"1396","7903.655"
"1397","7918.02"
"1398","7903.654"
"1399","7885.518"
"1400","7885.215"
"1401","7896.687"
"1402","7900.509"
"1403","7879.961"
"1404","7844.947"
"1405","7820.135"
"1406","7827.744"
"1407","7860.563"
"1408","7892.874"
"1409","7900.494"
"1410","7883.553"
"1411","7859.349"
"1412","7844.895"
"1413","7846.789"
"1414","7863.461"
"1415","7892.816"
"1416","7927.395"
"1417","7955.083"
"1418","7964.112"
"1419","7953.458"
"1420","7932.296"
"1421","7910.063"
"1422","7892.466"
"1423","7881.377"
"1424","7878.581"
"1425","7888.124"
"1426","7916.571"
"1427","7970.217"
"1428","8042.479"
"1429","8111.535"
"1430","8155.189"
"1431","8169.719"
"1432","8174.585"
"1433","8190.402"
"1434","8224.561"
"1435","8267.038"
"1436","8306.77"
"1437","8339.426"
"1438","8369.921"
"1439","8403.681"
"1440","8438.131"
"1441","8459.351"
"1442","8452.836"
"1443","8418.665"
"1444","8378.153"
"1445","8353.996"
"1446","8352.635"
"1447","8356.417"
"1448","8345.985"
"1449","8315.672"
"1450","8280.264"
"1451","8256.049"
"1452","8249.077"
"1453","8250.1"
"1454","8248.646"
"1455","8236.681"
"1456","8209.804"
"1457","8164.076"
"1458","8104.9"
"1459","8051.321"
"1460","8023.225"
"1461","8028.202"
"1462","8056.299"
"1463","8096.009"
"1464","8126.913"
"1465","8116.298"
"1466","8031.553"
"1467","7882.189"
"1468","7733.673"
"1469","7654.044"
"1470","7661.594"
"1471","7711.63"
"1472","7756.143"
"1473","7772.285"
"1474","7767.347"
"1475","7750.301"
"1476","7727.232"
"1477","7700.976"
"1478","7674.073"
"1479","7645.934"
"1480","7612.691"
"1481","7570.767"
"1482","7526.197"
"1483","7494.315"
"1484","7489.94"
"1485","7510.865"
"1486","7539.795"
"1487","7559.653"
"1488","7565.582"
"1489","7562.56"
"1490","7555.516"
"1491","7544.785"
"1492","7527.369"
"1493","7501.193"
"1494","7475.892"
"1495","7468.707"
"1496","7493.747"
"1497","7532.467"
"1498","7547.569"
"1499","7507.634"
"1500","7433.093"
"1501","7370.461"
"1502","7359.36"
"1503","7388.405"
"1504","7423.984"
"1505","7437.289"
"1506","7429.19"
"1507","7411.628"
"1508","7395.542"
"1509","7386.674"
"1510","7389.126"
"1511","7405.013"
"1512","7428.03"
"1513","7449.649"
"1514","7462.537"
"1515","7463.534"
"1516","7450.383"
"1517","7423.477"
"1518","7390.777"
"1519","7361.589"
"1520","7342.743"
"1521","7335.246"
"1522","7339.238"
"1523","7350.094"
"1524","7354.077"
"1525","7336.646"
"1526","7297.679"
"1527","7259.559"
"1528","7246.259"
"1529","7267.266"
"1530","7313.696"
"1531","7375.023"
"1532","7429.922"
"1533","7445.998"
"1534","7393.39"
"1535","7292.98"
"1536","7207.345"
"1537","7194.43"
"1538","7242.287"
"1539","7293.371"
"1540","7296.199"
"1541","7258.745"
"1542","7219.35"
"1543","7210.797"
"1544","7228.623"
"1545","7253.728"
"1546","7270.344"
"1547","7278.783"
"1548","7284.128"
"1549","7287.481"
"1550","7275.913"
"1551","7233.419"
"1552","7160.02"
"1553","7097.587"
"1554","7094.513"
"1555","7164.78"
"1556","7255.44"
"1557","7306.491"
"1558","7293.903"
"1559","7245.935"
"1560","7194.374"
"1561","7154.401"
"1562","7123.182"
"1563","7097.42"
"1564","7080.921"
"1565","7083.217"
"1566","7112.354"
"1567","7159.285"
"1568","7204.865"
"1569","7232.177"
"1570","7240.834"
"1571","7237.45"
"1572","7227.03"
"1573","7206.756"
"1574","7171.484"
"1575","7121.897"
"1576","7077.669"
"1577","7062.297"
"1578","7083.844"
"1579","7115.613"
"1580","7126.453"
"1581","7105.427"
"1582","7073.373"
"1583","7053.43"
"1584","7054.799"
"1585","7071.329"
"1586","7095.884"
"1587","7118.533"
"1588","7127.192"
"1589","7112.064"
"1590","7084.488"
"1591","7066.985"
"1592","7076.782"
"1593","7100.3"
"1594","7113.076"
"1595","7100.135"
"1596","7081.321"
"1597","7084.401"
"1598","7119.585"
"1599","7155.499"
"1600","7155.179"
"1601","7111.116"
"1602","7061.786"
"1603","7048.237"
"1604","7075.262"
"1605","7109.979"
"1606","7120.118"
"1607","7103.977"
"1608","7080.851"
"1609","7068.53"
"1610","7070.577"
"1611","7084.249"
"1612","7105.844"
"1613","7127.574"
"1614","7140.519"
"1615","7139.129"
"1616","7126.976"
"1617","7109.139"
"1618","7089.676"
"1619","7070.904"
"1620","7055.025"
"1621","7045.354"
"1622","7046.399"
"1623","7061.799"
"1624","7083.54"
"1625","7095.729"
"1626","7085.768"
"1627","7064.533"
"1628","7052.672"
"1629","7064.577"
"1630","7089.934"
"1631","7112.404"
"1632","7122.83"
"1633","7128.528"
"1634","7138.913"
"1635","7153.7"
"1636","7159.217"
"1637","7142.007"
"1638","7109.424"
"1639","7086.354"
"1640","7094.615"
"1641","7125.02"
"1642","7152.74"
"1643","7158.55"
"1644","7149.732"
"1645","7141.221"
"1646","7146.609"
"1647","7175.992"
"1648","7238.501"
"1649","7320.532"
"1650","7374.803"
"1651","7354.722"
"1652","7276.837"
"1653","7212.62"
"1654","7225.298"
"1655","7292.287"
"1656","7347.919"
"1657","7342.526"
"1658","7298.572"
"1659","7258.317"
"1660","7245.482"
"1661","7239.923"
"1662","7215.689"
"1663","7168.856"
"1664","7124.578"
"1665","7107.938"
"1666","7114.053"
"1667","7115.666"
"1668","7090.194"
"1669","7050.183"
"1670","7022.602"
"1671","7025.458"
"1672","7046.033"
"1673","7065.092"
"1674","7065.684"
"1675","7034.979"
"1676","6962.038"
"1677","6868.658"
"1678","6808.7"
"1679","6829.295"
"1680","6904.076"
"1681","6967.674"
"1682","6970.273"
"1683","6931.34"
"1684","6889.049"
"1685","6866.691"
"1686","6855.206"
"1687","6841.606"
"1688","6822.589"
"1689","6805.909"
"1690","6798.73"
"1691","6795.462"
"1692","6782.811"
"1693","6752.203"
"1694","6718.488"
"1695","6703.568"
"1696","6715.57"
"1697","6730.503"
"1698","6720.501"
"1699","6681.215"
"1700","6636.179"
"1701","6609.365"
"1702","6611.599"
"1703","6645.705"
"1704","6708.009"
"1705","6764.651"
"1706","6772.935"
"1707","6718.735"
"1708","6651.176"
"1709","6626.31"
"1710","6655.432"
"1711","6700.703"
"1712","6725.167"
"1713","6724.228"
"1714","6710.959"
"1715","6695.167"
"1716","6672.644"
"1717","6635.712"
"1718","6586.108"
"1719","6543.099"
"1720","6526.638"
"1721","6532.34"
"1722","6533.739"
"1723","6509.353"
"1724","6479.039"
"1725","6480.548"
"1726","6532.466"
"1727","6594.518"
"1728","6616.054"
"1729","6587.968"
"1730","6559.409"
"1731","6578.875"
"1732","6632.96"
"1733","6666.976"
"1734","6639.861"
"1735","6579.738"
"1736","6535.301"
"1737","6533.381"
"1738","6555.748"
"1739","6579.184"
"1740","6593.108"
"1741","6598.917"
"1742","6598.944"
"1743","6598.816"
"1744","6605.574"
"1745","6621.534"
"1746","6635.407"
"1747","6633.708"
"1748","6612.477"
"1749","6579.799"
"1750","6545.369"
"1751","6526.977"
"1752","6547.049"
"1753","6611.679"
"1754","6664.732"
"1755","6636.165"
"1756","6517.743"
"1757","6399.238"
"1758","6371.844"
"1759","6429.295"
"1760","6496.902"
"1761","6515.291"
"1762","6503.917"
"1763","6505.037"
"1764","6532.166"
"1765","6544.94"
"1766","6500.672"
"1767","6415.929"
"1768","6355.202"
"1769","6369.901"
"1770","6433.136"
"1771","6491.901"
"1772","6512.313"
"1773","6500.373"
"1774","6467.315"
"1775","6428.942"
"1776","6405.059"
"1777","6410.747"
"1778","6432.965"
"1779","6448.679"
"1780","6444.322"
"1781","6426.874"
"1782","6405.862"
"1783","6388.182"
"1784","6378.396"
"1785","6380.375"
"1786","6394.435"
"1787","6419.612"
"1788","6451.11"
"1789","6476.117"
"1790","6481.62"
"1791","6469.326"
"1792","6453.424"
"1793","6445.425"
"1794","6440.476"
"1795","6428.401"
"1796","6406.697"
"1797","6387.578"
"1798","6383.807"
"1799","6391.424"
"1800","6393.739"
"1801","6379.664"
"1802","6365.165"
"1803","6373.657"
"1804","6408.416"
"1805","6439.648"
"1806","6437.455"
"1807","6406.867"
"1808","6375.297"
"1809","6364.852"
"1810","6376.685"
"1811","6406.898"
"1812","6441.215"
"1813","6451.596"
"1814","6414.161"
"1815","6348.891"
"1816","6297.911"
"1817","6288.127"
"1818","6303.848"
"1819","6322.707"
"1820","6337.611"
"1821","6356.909"
"1822","6385.929"
"1823","6407.936"
"1824","6398.156"
"1825","6348.924"
"1826","6286.364"
"1827","6239.39"
"1828","6220.026"
"1829","6228.059"
"1830","6257.922"
"1831","6284.003"
"1832","6276.392"
"1833","6235.885"
"1834","6204.586"
"1835","6220.014"
"1836","6258.428"
"1837","6266.485"
"1838","6219.56"
"1839","6165.17"
"1840","6158.935"
"1841","6200.674"
"1842","6241.475"
"1843","6242.64"
"1844","6221.769"
"1845","6212.716"
"1846","6229.494"
"1847","6256.007"
"1848","6274.77"
"1849","6278.771"
"1850","6266.536"
"1851","6243.62"
"1852","6233.923"
"1853","6262.214"
"1854","6312.28"
"1855","6331.464"
"1856","6282.9"
"1857","6209.091"
"1858","6174.702"
"1859","6199.099"
"1860","6236.196"
"1861","6241.309"
"1862","6223.388"
"1863","6217.386"
"1864","6241.895"
"1865","6276.933"
"1866","6298.201"
"1867","6299.323"
"1868","6287.676"
"1869","6269.071"
"1870","6242.052"
"1871","6203.998"
"1872","6168.915"
"1873","6170.184"
"1874","6231.383"
"1875","6310.208"
"1876","6340.231"
"1877","6297.132"
"1878","6229.782"
"1879","6189.487"
"1880","6179.511"
"1881","6176.316"
"1882","6165.039"
"1883","6153.839"
"1884","6153.982"
"1885","6168.182"
"1886","6192.305"
"1887","6220.021"
"1888","6237.556"
"1889","6230.094"
"1890","6203.353"
"1891","6185.82"
"1892","6200.151"
"1893","6230.863"
"1894","6249.965"
"1895","6246.271"
"1896","6233.872"
"1897","6226.994"
"1898","6224.801"
"1899","6219.554"
"1900","6205.419"
"1901","6180.463"
"1902","6144.631"
"1903","6112.94"
"1904","6109.508"
"1905","6141.93"
"1906","6174.32"
"1907","6167.046"
"1908","6130.659"
"1909","6114.305"
"1910","6147.83"
"1911","6192.795"
"1912","6198.701"
"1913","6164.184"
"1914","6134.556"
"1915","6143.365"
"1916","6166.529"
"1917","6165.789"
"1918","6133.759"
"1919","6098.329"
"1920","6083.603"
"1921","6084.017"
"1922","6084.649"
"1923","6076.649"
"1924","6059.349"
"1925","6035.952"
"1926","6029.763"
"1927","6071.043"
"1928","6150.518"
"1929","6198.096"
"1930","6152.992"
"1931","6058.08"
"1932","6000.381"
"1933","6017.408"
"1934","6061.044"
"1935","6080.375"
"1936","6070.658"
"1937","6049.161"
"1938","6028.44"
"1939","6011.907"
"1940","6000.778"
"1941","5985.886"
"1942","5952.806"
"1943","5903.442"
"1944","5872.393"
"1945","5893.613"
"1946","5958.17"
"1947","6033.95"
"1948","6093.984"
"1949","6122.604"
"1950","6108.31"
"1951","6066.455"
"1952","6027.223"
"1953","6011.267"
"1954","6018.866"
"1955","6045.547"
"1956","6066.135"
"1957","6044.175"
"1958","5973.17"
"1959","5908.497"
"1960","5905.52"
"1961","5948.427"
"1962","5983.415"
"1963","5976.147"
"1964","5931.54"
"1965","5861.524"
"1966","5798.523"
"1967","5785.119"
"1968","5833.746"
"1969","5901.15"
"1970","5941.897"
"1971","5941.136"
"1972","5898.534"
"1973","5836.134"
"1974","5813.266"
"1975","5877.798"
"1976","5973.986"
"1977","6003.964"
"1978","5941.486"
"1979","5867.358"
"1980","5855.703"
"1981","5888.845"
"1982","5916.342"
"1983","5913.179"
"1984","5887.381"
"1985","5850.773"
"1986","5822.896"
"1987","5824.804"
"1988","5852.167"
"1989","5872.726"
"1990","5864.078"
"1991","5849.427"
"1992","5861.417"
"1993","5891.994"
"1994","5895.996"
"1995","5847.326"
"1996","5785.458"
"1997","5759.542"
"1998","5769.104"
"1999","5777.124"
"2000","5761.203"
"2001","5737.676"
"2002","5726.661"
"2003","5726.149"
"2004","5721.39"
"2005","5707.889"
"2006","5701.08"
"2007","5714.744"
"2008","5734.167"
"2009","5732.39"
"2010","5699.21"
"2011","5648.761"
"2012","5598.792"
"2013","5575.6"
"2014","5606.633"
"2015","5675.345"
"2016","5717.95"
"2017","5691.58"
"2018","5638.04"
"2019","5614.531"
"2020","5618.84"
"2021","5602.525"
"2022","5547.907"
"2023","5517.301"
"2024","5573.218"
"2025","5662.793"
"2026","5670.842"
"2027","5567.426"
"2028","5469.889"
"2029","5484.602"
"2030","5563.919"
"2031","5605.485"
"2032","5579.594"
"2033","5541.392"
"2034","5535.955"
"2035","5551.401"
"2036","5563.364"
"2037","5563.686"
"2038","5556.826"
"2039","5545.951"
"2040","5530.328"
"2041","5509.488"
"2042","5489.974"
"2043","5481.735"
"2044","5486.799"
"2045","5495.196"
"2046","5498.267"
"2047","5498.86"
"2048","5503.009"
"2049","5509.354"
"2050","5509.532"
"2051","5498.669"
"2052","5482.796"
"2053","5468.913"
"2054","5454.044"
"2055","5429.516"
"2056","5394.54"
"2057","5361.758"
"2058","5343.623"
"2059","5344.348"
"2060","5364.787"
"2061","5392.024"
"2062","5399.408"
"2063","5373.167"
"2064","5339.325"
"2065","5328.039"
"2066","5337.071"
"2067","5345.641"
"2068","5343.07"
"2069","5335.507"
"2070","5327.776"
"2071","5310.285"
"2072","5270.443"
"2073","5225.533"
"2074","5219.953"
"2075","5271.12"
"2076","5324.469"
"2077","5323.177"
"2078","5287.29"
"2079","5273.797"
"2080","5298.892"
"2081","5323.114"
"2082","5312.118"
"2083","5267.768"
"2084","5201.592"
"2085","5135.075"
"2086","5096.737"
"2087","5099.051"
"2088","5123.091"
"2089","5148.718"
"2090","5169.87"
"2091","5185.581"
"2092","5196.724"
"2093","5205.961"
"2094","5214.633"
"2095","5220.366"
"2096","5220.702"
"2097","5217.47"
"2098","5214.373"
"2099","5207.245"
"2100","5181.888"
"2101","5132.745"
"2102","5086.767"
"2103","5073.69"
"2104","5075.364"
"2105","5044.767"
"2106","4972.511"
"2107","4909.323"
"2108","4898.809"
"2109","4929.667"
"2110","4975.753"
"2111","5013.439"
"2112","5021.084"
"2113","4994.88"
"2114","4964.185"
"2115","4957.063"
"2116","4975.703"
"2117","5013.641"
"2118","5058.56"
"2119","5093.247"
"2120","5103.726"
"2121","5083.227"
"2122","5030.991"
"2123","4975.642"
"2124","4954.707"
"2125","4973.093"
"2126","5006.157"
"2127","5021.493"
"2128","4971.949"
"2129","4829.029"
"2130","4690.052"
"2131","4692.062"
"2132","4814.776"
"2133","4891.832"
"2134","4830.487"
"2135","4717.684"
"2136","4651.018"
"2137","4641.714"
"2138","4668.673"
"2139","4707.381"
"2140","4730.324"
"2141","4723.363"
"2142","4701.746"
"2143","4682.707"
"2144","4672.561"
"2145","4673.545"
"2146","4682.995"
"2147","4694.102"
"2148","4699.678"
"2149","4692.115"
"2150","4667.365"
"2151","4639.554"
"2152","4627.238"
"2153","4630.064"
"2154","4633.499"
"2155","4626.521"
"2156","4604.787"
"2157","4568.536"
"2158","4534.517"
"2159","4522.131"
"2160","4530.818"
"2161","4547.346"
"2162","4557.931"
"2163","4548.313"
"2164","4513.842"
"2165","4482.216"
"2166","4484.002"
"2167","4515.64"
"2168","4556.285"
"2169","4586.091"
"2170","4586.542"
"2171","4555.706"
"2172","4533.59"
"2173","4555.418"
"2174","4585.589"
"2175","4564.573"
"2176","4488.882"
"2177","4402.809"
"2178","4342.648"
"2179","4326.879"
"2180","4361.788"
"2181","4409.408"
"2182","4423.598"
"2183","4400.033"
"2184","4359.988"
"2185","4326.199"
"2186","4322.753"
"2187","4356.096"
"2188","4381.957"
"2189","4356.727"
"2190","4302.747"
"2191","4268.135"
"2192","4273.947"
"2193","4317.161"
"2194","4379.388"
"2195","4415.5"
"2196","4389.422"
"2197","4314.688"
"2198","4218.153"
"2199","4131.92"
"2200","4090.058"
"2201","4093.043"
"2202","4102.281"
"2203","4092.303"
"2204","4074.947"
"2205","4063.752"
"2206","4051.47"
"2207","4025.36"
"2208","3992.423"
"2209","3973.295"
"2210","3974.992"
"2211","3984.82"
"2212","3993.855"
"2213","4008.681"
"2214","4034.728"
"2215","4051.653"
"2216","4030.596"
"2217","3971.332"
"2218","3896.779"
"2219","3833.488"
"2220","3812.613"
"2221","3852.578"
"2222","3928.816"
"2223","4006.779"
"2224","4044.026"
"2225","3999.07"
"2226","3907.972"
"2227","3871.469"
"2228","3913.302"
"2229","3927.784"
"2230","3846.113"
"2231","3760.864"
"2232","3774.357"
"2233","3824.42"
"2234","3788.065"
"2235","3694.165"
"2236","3694.576"
"2237","3811.691"
"2238","3860.999"
"2239","3729.579"
"2240","3577.386"
"2241","3577.816"
"2242","3662.881"
"2243","3681.238"
"2244","3616.744"
"2245","3551.768"
"2246","3523.105"
"2247","3502.39"
"2248","3474.567"
"2249","3470.796"
"2250","3511.864"
"2251","3528.07"
"2252","3434.667"
"2253","3295.777"
"2254","3260.982"
"2255","3346.77"
"2256","3422.033"
"2257","3405.735"
"2258","3333.096"
"2259","3250.787"
"2260","3195.606"
"2261","3192.323"
"2262","3191.85"
"2263","3117.412"
"2264","2994.945"
"2265","2933.683"
"2266","2962.664"
"2267","2990.221"
"2268","2953.613"
"2269","2892.237"
"2270","2853.044"
"2271","2836.938"
"2272","2829.184"
"2273","2802.161"
"2274","2722.994"
"2275","2606.335"
"2276","2513.67"
"2277","2486.39"
"2278","2527.835"
"2279","2606.489"
"2280","2595.964"
"2281","2398.234"
"2282","2180.06"
"2283","2173.784"
"2284","2304.461"
"2285","2315.91"
"2286","2178.145"
"2287","2100.2"
"2288","2169.854"
"2289","2238.799"
"2290","2188.511"
"2291","2069.298"
"2292","1953.911"
"2293","1857.382"
"2294","1776.355"
"2295","1723.46"
"2296","1719.052"
"2297","1742.224"
"2298","1731.623"
"2299","1658.442"
"2300","1549.927"
