,"Scan 01169"
"400","8053.793"
"401","8071.072"
"402","8074.211"
"403","8052.897"
"404","8014.704"
"405","7972.906"
"406","7940.674"
"407","7929.414"
"408","7936.9"
"409","7954.349"
"410","7973.003"
"411","7984.596"
"412","7986.469"
"413","7979.882"
"414","7966.156"
"415","7946.76"
"416","7926.582"
"417","7913.839"
"418","7916.824"
"419","7943.589"
"420","7993.85"
"421","8056.132"
"422","8118.258"
"423","8168.173"
"424","8198.024"
"425","8207.613"
"426","8197.562"
"427","8168.494"
"428","8124.411"
"429","8077.742"
"430","8042.134"
"431","8031.141"
"432","8052.338"
"433","8093.322"
"434","8137.554"
"435","8168.616"
"436","8174.105"
"437","8159.395"
"438","8134.831"
"439","8110.69"
"440","8095.742"
"441","8090.155"
"442","8090.939"
"443","8095.119"
"444","8099.903"
"445","8103.86"
"446","8106.189"
"447","8106.095"
"448","8102.688"
"449","8094.026"
"450","8077.57"
"451","8050.787"
"452","8011.693"
"453","7965.299"
"454","7921.503"
"455","7890.229"
"456","7880.722"
"457","7891.439"
"458","7911.891"
"459","7931.375"
"460","7939.701"
"461","7936.445"
"462","7930.673"
"463","7931.784"
"464","7948.728"
"465","7979.006"
"466","8007.352"
"467","8017.919"
"468","7995.384"
"469","7940.083"
"470","7872.148"
"471","7812.857"
"472","7783.024"
"473","7787.483"
"474","7808.595"
"475","7827.124"
"476","7824.175"
"477","7794.215"
"478","7752.324"
"479","7715.271"
"480","7699.565"
"481","7709.739"
"482","7730.346"
"483","7744.125"
"484","7734.049"
"485","7695.06"
"486","7643.358"
"487","7597.242"
"488","7574.799"
"489","7583.214"
"490","7609.398"
"491","7638.119"
"492","7654.301"
"493","7650.744"
"494","7635.322"
"495","7617.579"
"496","7606.944"
"497","7605.419"
"498","7600.573"
"499","7578.365"
"500","7524.936"
"501","7438.568"
"502","7341.137"
"503","7257.12"
"504","7210.724"
"505","7210.968"
"506","7237.908"
"507","7268.442"
"508","7279.698"
"509","7258.858"
"510","7211.611"
"511","7145.612"
"512","7068.495"
"513","6988.835"
"514","6916.933"
"515","6863.206"
"516","6837.869"
"517","6840.538"
"518","6853.362"
"519","6856.945"
"520","6832.262"
"521","6775.955"
"522","6708.487"
"523","6652.228"
"524","6629.085"
"525","6645.379"
"526","6685.825"
"527","6733.627"
"528","6772.271"
"529","6792.228"
"530","6792.636"
"531","6773.196"
"532","6733.826"
"533","6680.786"
"534","6627.323"
"535","6586.977"
"536","6572.641"
"537","6584.63"
"538","6611.172"
"539","6640.055"
"540","6659.438"
"541","6662.65"
"542","6647.291"
"543","6611.107"
"544","6552.783"
"545","6483.109"
"546","6421.348"
"547","6386.835"
"548","6396.291"
"549","6440.479"
"550","6495.083"
"551","6535.712"
"552","6541.282"
"553","6516.2"
"554","6476.982"
"555","6440.136"
"556","6419.65"
"557","6414.369"
"558","6417.393"
"559","6421.843"
"560","6422.304"
"561","6420.19"
"562","6418.936"
"563","6421.96"
"564","6430.865"
"565","6440.741"
"566","6445.219"
"567","6437.967"
"568","6416.254"
"569","6387.142"
"570","6359.316"
"571","6341.388"
"572","6337.197"
"573","6340.821"
"574","6345.169"
"575","6343.264"
"576","6332.664"
"577","6317.883"
"578","6304.009"
"579","6296.032"
"580","6296.738"
"581","6306.398"
"582","6325.149"
"583","6352.937"
"584","6386.456"
"585","6419.664"
"586","6446.467"
"587","6461.266"
"588","6463.61"
"589","6456.188"
"590","6441.712"
"591","6422.748"
"592","6400.838"
"593","6377.08"
"594","6352.57"
"595","6328.67"
"596","6308.013"
"597","6293.599"
"598","6288.415"
"599","6293.997"
"600","6307.409"
"601","6324.861"
"602","6342.577"
"603","6357.21"
"604","6366.26"
"605","6367.345"
"606","6358.162"
"607","6339.505"
"608","6316.464"
"609","6294.425"
"610","6278.491"
"611","6268.506"
"612","6259.435"
"613","6246.078"
"614","6224.045"
"615","6197.561"
"616","6176.11"
"617","6169.217"
"618","6184.038"
"619","6212.886"
"620","6242.305"
"621","6258.877"
"622","6253.32"
"623","6231.96"
"624","6204.827"
"625","6181.895"
"626","6169.629"
"627","6166.464"
"628","6169.717"
"629","6176.692"
"630","6183.646"
"631","6185.34"
"632","6176.445"
"633","6152.148"
"634","6117.02"
"635","6083.871"
"636","6065.749"
"637","6073.859"
"638","6102.836"
"639","6138.47"
"640","6166.517"
"641","6175.733"
"642","6169.671"
"643","6156.458"
"644","6144.194"
"645","6138.498"
"646","6138.166"
"647","6140.825"
"648","6144.128"
"649","6146.55"
"650","6147.884"
"651","6148.04"
"652","6146.934"
"653","6144.721"
"654","6141.766"
"655","6138.443"
"656","6135.239"
"657","6133.678"
"658","6135.822"
"659","6143.734"
"660","6158.301"
"661","6175.063"
"662","6188.052"
"663","6191.327"
"664","6182.056"
"665","6164.78"
"666","6145.1"
"667","6128.555"
"668","6118.791"
"669","6117.012"
"670","6124.258"
"671","6141.159"
"672","6162.948"
"673","6181.022"
"674","6186.727"
"675","6173.507"
"676","6147.446"
"677","6119.33"
"678","6099.928"
"679","6096.343"
"680","6104.892"
"681","6119.918"
"682","6135.816"
"683","6148.893"
"684","6158.344"
"685","6163.595"
"686","6164.078"
"687","6159.112"
"688","6147.934"
"689","6129.786"
"690","6105.088"
"691","6081.944"
"692","6071.502"
"693","6084.89"
"694","6126.824"
"695","6182.871"
"696","6235.056"
"697","6265.676"
"698","6268.729"
"699","6255.223"
"700","6237.481"
"701","6227.09"
"702","6225.791"
"703","6228.172"
"704","6228.664"
"705","6222.76"
"706","6211.838"
"707","6199.305"
"708","6188.567"
"709","6182.813"
"710","6184.693"
"711","6196.774"
"712","6221.425"
"713","6254.909"
"714","6286.33"
"715","6304.398"
"716","6299.368"
"717","6276.134"
"718","6247.767"
"719","6227.405"
"720","6224.893"
"721","6237.14"
"722","6257.878"
"723","6280.86"
"724","6300.791"
"725","6313.992"
"726","6316.959"
"727","6306.661"
"728","6287.552"
"729","6270.029"
"730","6264.644"
"731","6279.557"
"732","6309.482"
"733","6344.397"
"734","6374.308"
"735","6391.624"
"736","6394.349"
"737","6381.275"
"738","6351.495"
"739","6311.217"
"740","6273.938"
"741","6253.462"
"742","6261.024"
"743","6288.973"
"744","6321.208"
"745","6341.62"
"746","6340.38"
"747","6325.582"
"748","6308.487"
"749","6300.12"
"750","6304.161"
"751","6315.488"
"752","6328.463"
"753","6338.021"
"754","6343.93"
"755","6348.451"
"756","6353.862"
"757","6362.168"
"758","6374.514"
"759","6391.871"
"760","6415.138"
"761","6442.543"
"762","6468.868"
"763","6488.684"
"764","6497.077"
"765","6493.813"
"766","6481.162"
"767","6461.408"
"768","6438.063"
"769","6418.573"
"770","6411.173"
"771","6423.854"
"772","6456.232"
"773","6497.387"
"774","6535.737"
"775","6560.965"
"776","6573.39"
"777","6578.715"
"778","6582.687"
"779","6588.804"
"780","6593.969"
"781","6593.869"
"782","6584.449"
"783","6568.671"
"784","6557.439"
"785","6562.065"
"786","6591.326"
"787","6635.729"
"788","6677.789"
"789","6700.019"
"790","6694.314"
"791","6675.622"
"792","6662.357"
"793","6672.034"
"794","6704.161"
"795","6741.459"
"796","6766.02"
"797","6763.93"
"798","6743.335"
"799","6719.994"
"800","6709.575"
"801","6718.773"
"802","6737.336"
"803","6753.126"
"804","6755"
"805","6744.827"
"806","6733.68"
"807","6732.824"
"808","6749.589"
"809","6775.899"
"810","6799.913"
"811","6810.011"
"812","6803.777"
"813","6791.226"
"814","6783.246"
"815","6789.27"
"816","6806.803"
"817","6827.499"
"818","6842.977"
"819","6847.63"
"820","6842.917"
"821","6831.414"
"822","6815.826"
"823","6801.494"
"824","6796.123"
"825","6807.497"
"826","6840.123"
"827","6882.434"
"828","6917.945"
"829","6930.376"
"830","6915.566"
"831","6888.46"
"832","6865.672"
"833","6862.2"
"834","6877.784"
"835","6903.748"
"836","6931.341"
"837","6953.529"
"838","6967.998"
"839","6973.245"
"840","6967.938"
"841","6954.217"
"842","6937.429"
"843","6923.04"
"844","6915.415"
"845","6913.641"
"846","6915.214"
"847","6917.652"
"848","6919.641"
"849","6921.593"
"850","6924.07"
"851","6927.668"
"852","6933.384"
"853","6942.403"
"854","6955.91"
"855","6973.836"
"856","6993.156"
"857","7010.422"
"858","7022.442"
"859","7029.98"
"860","7036.853"
"861","7046.953"
"862","7062.508"
"863","7079.482"
"864","7092.366"
"865","7095.889"
"866","7091.865"
"867","7090.259"
"868","7101.488"
"869","7132.795"
"870","7172.88"
"871","7203.734"
"872","7207.526"
"873","7181.018"
"874","7145.31"
"875","7123.81"
"876","7136.955"
"877","7178.434"
"878","7227.76"
"879","7264.357"
"880","7276.409"
"881","7273.015"
"882","7266.325"
"883","7267.677"
"884","7277.031"
"885","7285.951"
"886","7285.802"
"887","7272.352"
"888","7256.175"
"889","7250.948"
"890","7269.809"
"891","7313.632"
"892","7371.126"
"893","7430.481"
"894","7481.08"
"895","7517.867"
"896","7537.392"
"897","7536.397"
"898","7518.862"
"899","7498.161"
"900","7488.286"
"901","7499.893"
"902","7522.806"
"903","7538.828"
"904","7529.938"
"905","7492.042"
"906","7444.068"
"907","7407.107"
"908","7399.527"
"909","7417.299"
"910","7445.399"
"911","7468.76"
"912","7479.06"
"913","7481.879"
"914","7484.522"
"915","7493.857"
"916","7512.086"
"917","7538.587"
"918","7572.694"
"919","7610.143"
"920","7637.618"
"921","7640.379"
"922","7605.616"
"923","7546.741"
"924","7496.129"
"925","7486.571"
"926","7535.563"
"927","7614.374"
"928","7685.561"
"929","7713.585"
"930","7695.618"
"931","7656.284"
"932","7621.072"
"933","7608.36"
"934","7611.42"
"935","7617.997"
"936","7616.275"
"937","7604.033"
"938","7588.162"
"939","7575.915"
"940","7573.173"
"941","7580.277"
"942","7596.178"
"943","7619.626"
"944","7644.258"
"945","7658.327"
"946","7649.832"
"947","7612.116"
"948","7562.349"
"949","7524.331"
"950","7521.116"
"951","7553.634"
"952","7597.624"
"953","7627.459"
"954","7624.086"
"955","7600.067"
"956","7577.464"
"957","7577.802"
"958","7604.795"
"959","7640.728"
"960","7666.6"
"961","7667.302"
"962","7647.388"
"963","7617.63"
"964","7588.743"
"965","7569.481"
"966","7566.161"
"967","7584.943"
"968","7628.307"
"969","7679.585"
"970","7715.902"
"971","7714.953"
"972","7675.509"
"973","7622.898"
"974","7584.15"
"975","7579.87"
"976","7597.125"
"977","7612.093"
"978","7601.48"
"979","7561.507"
"980","7512.784"
"981","7477.461"
"982","7473.152"
"983","7494.244"
"984","7527.738"
"985","7560.777"
"986","7585.507"
"987","7600.151"
"988","7603.297"
"989","7595.079"
"990","7583.178"
"991","7577.579"
"992","7587.89"
"993","7612.136"
"994","7634.918"
"995","7640.079"
"996","7617.538"
"997","7585.002"
"998","7568.125"
"999","7591.601"
"1000","7654.006"
"1001","7725.594"
"1002","7775.186"
"1003","7780.23"
"1004","7754.416"
"1005","7720.944"
"1006","7702.996"
"1007","7713.554"
"1008","7739.93"
"1009","7765.47"
"1010","7774.843"
"1011","7766.538"
"1012","7747.197"
"1013","7723.577"
"1014","7702.554"
"1015","7691.253"
"1016","7696.824"
"1017","7724.825"
"1018","7768.784"
"1019","7816.747"
"1020","7856.822"
"1021","7882.56"
"1022","7895.639"
"1023","7898.411"
"1024","7893.563"
"1025","7885.615"
"1026","7879.69"
"1027","7880.73"
"1028","7888.432"
"1029","7896.709"
"1030","7899.187"
"1031","7892.8"
"1032","7886.765"
"1033","7893.135"
"1034","7922.879"
"1035","7970.175"
"1036","8016.05"
"1037","8041.198"
"1038","8036.679"
"1039","8019.154"
"1040","8009.19"
"1041","8024.556"
"1042","8057.626"
"1043","8087.272"
"1044","8092.452"
"1045","8067.67"
"1046","8032.679"
"1047","8009.562"
"1048","8016.275"
"1049","8048.206"
"1050","8093.087"
"1051","8138.73"
"1052","8175.517"
"1053","8196.512"
"1054","8194.902"
"1055","8168.3"
"1056","8128.661"
"1057","8090.845"
"1058","8069.042"
"1059","8069.358"
"1060","8092.62"
"1061","8139.48"
"1062","8201.131"
"1063","8250.776"
"1064","8259.595"
"1065","8206.843"
"1066","8121.774"
"1067","8052.734"
"1068","8046.646"
"1069","8108.604"
"1070","8197.181"
"1071","8268.495"
"1072","8291.607"
"1073","8278.191"
"1074","8248.672"
"1075","8222.352"
"1076","8205.703"
"1077","8197.12"
"1078","8194.879"
"1079","8198.344"
"1080","8208.793"
"1081","8227.7"
"1082","8255.43"
"1083","8286.482"
"1084","8313.401"
"1085","8328.973"
"1086","8331.119"
"1087","8322.558"
"1088","8306.188"
"1089","8284.471"
"1090","8258.708"
"1091","8230.011"
"1092","8200.196"
"1093","8176.59"
"1094","8169.174"
"1095","8187.609"
"1096","8228.768"
"1097","8273.217"
"1098","8300.457"
"1099","8296.456"
"1100","8270.088"
"1101","8235.284"
"1102","8205.281"
"1103","8185.504"
"1104","8176.491"
"1105","8178.665"
"1106","8189.56"
"1107","8202.071"
"1108","8208.673"
"1109","8203.922"
"1110","8191.631"
"1111","8178.184"
"1112","8169.838"
"1113","8170.919"
"1114","8184.325"
"1115","8212.853"
"1116","8252.254"
"1117","8285.14"
"1118","8292.686"
"1119","8261.572"
"1120","8206.538"
"1121","8151.228"
"1122","8118.221"
"1123","8112.51"
"1124","8124.778"
"1125","8145.303"
"1126","8166.614"
"1127","8185.738"
"1128","8200.227"
"1129","8207.93"
"1130","8208.258"
"1131","8201.145"
"1132","8186.768"
"1133","8169.346"
"1134","8156.413"
"1135","8155.552"
"1136","8168.221"
"1137","8183.918"
"1138","8190.766"
"1139","8180.15"
"1140","8159.942"
"1141","8143.167"
"1142","8141.828"
"1143","8152.694"
"1144","8160.936"
"1145","8151.548"
"1146","8120.358"
"1147","8082.198"
"1148","8053.841"
"1149","8048.824"
"1150","8066.636"
"1151","8102.964"
"1152","8153.146"
"1153","8208.41"
"1154","8257.304"
"1155","8288.457"
"1156","8297.178"
"1157","8288.502"
"1158","8268.24"
"1159","8242.888"
"1160","8221.259"
"1161","8212.678"
"1162","8225.262"
"1163","8256.797"
"1164","8299.799"
"1165","8346.642"
"1166","8387.035"
"1167","8407.722"
"1168","8395.303"
"1169","8346.936"
"1170","8285.824"
"1171","8239.138"
"1172","8229.017"
"1173","8248.123"
"1174","8278.436"
"1175","8302.836"
"1176","8318.766"
"1177","8335.224"
"1178","8361.408"
"1179","8397.992"
"1180","8431.409"
"1181","8446.735"
"1182","8435.17"
"1183","8410.573"
"1184","8392.044"
"1185","8396.014"
"1186","8415.619"
"1187","8432.03"
"1188","8427.044"
"1189","8401.438"
"1190","8376.075"
"1191","8372.738"
"1192","8400.582"
"1193","8441.288"
"1194","8472.919"
"1195","8479.014"
"1196","8469.161"
"1197","8460.66"
"1198","8468.907"
"1199","8488.101"
"1200","8499.273"
"1201","8483.818"
"1202","8442.503"
"1203","8399.833"
"1204","8381.753"
"1205","8401.966"
"1206","8444.148"
"1207","8487.454"
"1208","8514.076"
"1209","8522.063"
"1210","8514.564"
"1211","8495.054"
"1212","8470.714"
"1213","8451.115"
"1214","8445.604"
"1215","8454.017"
"1216","8464.474"
"1217","8464.384"
"1218","8447.28"
"1219","8421.227"
"1220","8396.397"
"1221","8382.885"
"1222","8390.367"
"1223","8428.4"
"1224","8503.815"
"1225","8595.747"
"1226","8667.155"
"1227","8682.164"
"1228","8641.483"
"1229","8585.153"
"1230","8555.014"
"1231","8570.283"
"1232","8605.462"
"1233","8629.789"
"1234","8622.076"
"1235","8597.416"
"1236","8579.493"
"1237","8588.578"
"1238","8619.29"
"1239","8654.639"
"1240","8678.455"
"1241","8689.088"
"1242","8696.725"
"1243","8711.803"
"1244","8739.34"
"1245","8776.606"
"1246","8820.258"
"1247","8864.66"
"1248","8898.302"
"1249","8908.734"
"1250","8888.54"
"1251","8854.272"
"1252","8829.61"
"1253","8835.012"
"1254","8861.521"
"1255","8884.471"
"1256","8880.365"
"1257","8851.658"
"1258","8824.49"
"1259","8825.554"
"1260","8861.451"
"1261","8907.932"
"1262","8938.112"
"1263","8936.091"
"1264","8914.908"
"1265","8892.333"
"1266","8883.747"
"1267","8893.354"
"1268","8922.12"
"1269","8969.44"
"1270","9021.568"
"1271","9058.182"
"1272","9060.203"
"1273","9030.124"
"1274","8988.166"
"1275","8954.84"
"1276","8940.594"
"1277","8942.557"
"1278","8956.927"
"1279","8976.958"
"1280","8989.607"
"1281","8981"
"1282","8943.811"
"1283","8894"
"1284","8852.717"
"1285","8837.791"
"1286","8847.086"
"1287","8871.075"
"1288","8900.273"
"1289","8925.871"
"1290","8939.465"
"1291","8933.255"
"1292","8911.524"
"1293","8889.66"
"1294","8883.289"
"1295","8899.213"
"1296","8931.822"
"1297","8974.571"
"1298","9020.052"
"1299","9059.013"
"1300","9081.948"
"1301","9083.032"
"1302","9068.876"
"1303","9048.751"
"1304","9031.005"
"1305","9019.097"
"1306","9014.845"
"1307","9019.941"
"1308","9035.005"
"1309","9060.094"
"1310","9094.619"
"1311","9128.524"
"1312","9144.61"
"1313","9126.223"
"1314","9076.738"
"1315","9021.495"
"1316","8986.72"
"1317","8981.491"
"1318","8987.729"
"1319","8984.978"
"1320","8963.325"
"1321","8937.141"
"1322","8924.208"
"1323","8935.689"
"1324","8960.283"
"1325","8981.937"
"1326","8987.969"
"1327","8982.567"
"1328","8975.18"
"1329","8973.824"
"1330","8975.833"
"1331","8973.75"
"1332","8961.109"
"1333","8942.802"
"1334","8930.882"
"1335","8936.814"
"1336","8959.52"
"1337","8987.07"
"1338","9007.271"
"1339","9010.786"
"1340","8991.652"
"1341","8944.245"
"1342","8872.97"
"1343","8798.092"
"1344","8741.254"
"1345","8715.99"
"1346","8718.481"
"1347","8742.673"
"1348","8780.239"
"1349","8816.275"
"1350","8834.679"
"1351","8827.212"
"1352","8816.736"
"1353","8833.813"
"1354","8900.029"
"1355","8988.864"
"1356","9057.737"
"1357","9070.337"
"1358","9036.122"
"1359","8984.751"
"1360","8943.782"
"1361","8918.887"
"1362","8903.21"
"1363","8890.215"
"1364","8879.913"
"1365","8877.091"
"1366","8886.326"
"1367","8905.894"
"1368","8928.264"
"1369","8945.866"
"1370","8956.584"
"1371","8964.563"
"1372","8974.244"
"1373","8987.366"
"1374","9001.839"
"1375","9015.247"
"1376","9023.058"
"1377","9017.01"
"1378","8988.518"
"1379","8939.871"
"1380","8896.825"
"1381","8888.186"
"1382","8926.698"
"1383","8982.542"
"1384","9018.906"
"1385","9011.466"
"1386","8976.38"
"1387","8938.004"
"1388","8914.563"
"1389","8900.09"
"1390","8882.645"
"1391","8854.489"
"1392","8827.925"
"1393","8821.207"
"1394","8847.312"
"1395","8889.049"
"1396","8918.539"
"1397","8913.305"
"1398","8887.767"
"1399","8871.704"
"1400","8889.849"
"1401","8925.676"
"1402","8942.732"
"1403","8909.623"
"1404","8844.534"
"1405","8793.13"
"1406","8797.092"
"1407","8849.653"
"1408","8913.591"
"1409","8953.121"
"1410","8958.151"
"1411","8936.726"
"1412","8897.792"
"1413","8858.202"
"1414","8841.03"
"1415","8867.778"
"1416","8928.158"
"1417","8984.305"
"1418","8998.991"
"1419","8968.188"
"1420","8919.389"
"1421","8880.848"
"1422","8868.328"
"1423","8884.76"
"1424","8932.106"
"1425","9002.063"
"1426","9074.941"
"1427","9130.896"
"1428","9164.331"
"1429","9186.529"
"1430","9209.559"
"1431","9238.396"
"1432","9269.125"
"1433","9297.351"
"1434","9322.044"
"1435","9346.616"
"1436","9374.683"
"1437","9405.492"
"1438","9432.3"
"1439","9448.053"
"1440","9452.016"
"1441","9452.42"
"1442","9457.977"
"1443","9466.79"
"1444","9461.52"
"1445","9424.077"
"1446","9361.979"
"1447","9320.661"
"1448","9347.76"
"1449","9442.239"
"1450","9530.332"
"1451","9533.355"
"1452","9432.213"
"1453","9296.918"
"1454","9204.044"
"1455","9187.136"
"1456","9215.911"
"1457","9255.103"
"1458","9280.87"
"1459","9286.063"
"1460","9265.093"
"1461","9224.004"
"1462","9185.448"
"1463","9172.769"
"1464","9182.485"
"1465","9174.048"
"1466","9105.223"
"1467","8977.295"
"1468","8849.35"
"1469","8783.218"
"1470","8792.824"
"1471","8831.437"
"1472","8849.285"
"1473","8826.081"
"1474","8776.847"
"1475","8718.674"
"1476","8668.139"
"1477","8641.225"
"1478","8652.926"
"1479","8693.963"
"1480","8729.648"
"1481","8725.542"
"1482","8679.093"
"1483","8618.588"
"1484","8572.441"
"1485","8547.293"
"1486","8530.493"
"1487","8509.436"
"1488","8483.207"
"1489","8460.305"
"1490","8449.313"
"1491","8456.259"
"1492","8485.305"
"1493","8538.781"
"1494","8598.007"
"1495","8630.669"
"1496","8608.329"
"1497","8543.762"
"1498","8473.421"
"1499","8430.782"
"1500","8421.549"
"1501","8437.457"
"1502","8468.997"
"1503","8498.597"
"1504","8505.154"
"1505","8473.065"
"1506","8420.04"
"1507","8376.228"
"1508","8366.093"
"1509","8385.186"
"1510","8419.932"
"1511","8455.952"
"1512","8475.557"
"1513","8460.157"
"1514","8403.375"
"1515","8341.332"
"1516","8319.394"
"1517","8360.556"
"1518","8423.737"
"1519","8456.531"
"1520","8431.996"
"1521","8382.906"
"1522","8350.438"
"1523","8354.846"
"1524","8376.288"
"1525","8390.594"
"1526","8385.823"
"1527","8369.152"
"1528","8349.376"
"1529","8333.178"
"1530","8324.569"
"1531","8326.986"
"1532","8334.046"
"1533","8329.306"
"1534","8297.269"
"1535","8245.927"
"1536","8202.577"
"1537","8192.592"
"1538","8211.582"
"1539","8235.754"
"1540","8243.591"
"1541","8236.333"
"1542","8226.842"
"1543","8225.987"
"1544","8231.29"
"1545","8235.021"
"1546","8231.091"
"1547","8221.248"
"1548","8209.582"
"1549","8200.473"
"1550","8199.345"
"1551","8211.849"
"1552","8239.493"
"1553","8272.952"
"1554","8301.156"
"1555","8314.845"
"1556","8308.277"
"1557","8276.387"
"1558","8227.962"
"1559","8191.912"
"1560","8197.563"
"1561","8241.901"
"1562","8286.835"
"1563","8294.954"
"1564","8268.742"
"1565","8242.792"
"1566","8248.872"
"1567","8279.623"
"1568","8304.582"
"1569","8297.251"
"1570","8260.96"
"1571","8211.674"
"1572","8164.772"
"1573","8132.51"
"1574","8126.223"
"1575","8151.372"
"1576","8194.222"
"1577","8237.125"
"1578","8265.337"
"1579","8270.697"
"1580","8246.135"
"1581","8197.381"
"1582","8150.277"
"1583","8131.745"
"1584","8149.272"
"1585","8188.922"
"1586","8235.639"
"1587","8274.428"
"1588","8290.331"
"1589","8271.24"
"1590","8230.72"
"1591","8195.925"
"1592","8188.725"
"1593","8200.113"
"1594","8210.176"
"1595","8204.487"
"1596","8188.837"
"1597","8173.625"
"1598","8164.98"
"1599","8158.929"
"1600","8150.11"
"1601","8138.362"
"1602","8131.637"
"1603","8138.35"
"1604","8160.597"
"1605","8193.907"
"1606","8233.137"
"1607","8268.608"
"1608","8287.529"
"1609","8280.332"
"1610","8261.6"
"1611","8256.653"
"1612","8282.731"
"1613","8321.066"
"1614","8342.942"
"1615","8330.799"
"1616","8297.224"
"1617","8259.762"
"1618","8229.331"
"1619","8205.646"
"1620","8187.293"
"1621","8171.564"
"1622","8154.345"
"1623","8132.369"
"1624","8113.631"
"1625","8113.762"
"1626","8145.396"
"1627","8199.722"
"1628","8259.006"
"1629","8308.396"
"1630","8344.49"
"1631","8366.692"
"1632","8373.009"
"1633","8358.28"
"1634","8317.14"
"1635","8255.198"
"1636","8193.221"
"1637","8152.434"
"1638","8142.307"
"1639","8162.403"
"1640","8210.662"
"1641","8273.839"
"1642","8333.034"
"1643","8373.021"
"1644","8395.731"
"1645","8408.067"
"1646","8415.999"
"1647","8423.095"
"1648","8432.437"
"1649","8441.094"
"1650","8437.222"
"1651","8409.641"
"1652","8372.491"
"1653","8361.946"
"1654","8408.291"
"1655","8485.561"
"1656","8539.533"
"1657","8530.045"
"1658","8479.966"
"1659","8429.466"
"1660","8402.144"
"1661","8382.369"
"1662","8349.299"
"1663","8300.573"
"1664","8258.226"
"1665","8243.937"
"1666","8249.928"
"1667","8246.418"
"1668","8208.604"
"1669","8148.761"
"1670","8094.379"
"1671","8066.855"
"1672","8066.555"
"1673","8089.281"
"1674","8121.944"
"1675","8135.549"
"1676","8101.252"
"1677","8031.297"
"1678","7978.141"
"1679","7988.347"
"1680","8039.368"
"1681","8071.996"
"1682","8042.086"
"1683","7972.562"
"1684","7904.449"
"1685","7865.158"
"1686","7852.433"
"1687","7859.97"
"1688","7876.617"
"1689","7885.698"
"1690","7871.888"
"1691","7837.837"
"1692","7797.039"
"1693","7761.958"
"1694","7739.283"
"1695","7733.941"
"1696","7745.75"
"1697","7762.616"
"1698","7771.065"
"1699","7768.486"
"1700","7765.139"
"1701","7771.3"
"1702","7789.165"
"1703","7816.01"
"1704","7846.426"
"1705","7862.667"
"1706","7843.401"
"1707","7784.452"
"1708","7719.636"
"1709","7686.901"
"1710","7696.272"
"1711","7727.129"
"1712","7758.409"
"1713","7779.912"
"1714","7787.364"
"1715","7778.606"
"1716","7759.87"
"1717","7739.489"
"1718","7722.633"
"1719","7708.582"
"1720","7696.281"
"1721","7690.854"
"1722","7703.007"
"1723","7740.558"
"1724","7789.252"
"1725","7825.276"
"1726","7831.106"
"1727","7808.656"
"1728","7763.744"
"1729","7711.92"
"1730","7682.344"
"1731","7701.322"
"1732","7747.455"
"1733","7767.512"
"1734","7723.798"
"1735","7656.058"
"1736","7626.991"
"1737","7663.336"
"1738","7717.732"
"1739","7735.772"
"1740","7708.436"
"1741","7669.759"
"1742","7650.948"
"1743","7650.821"
"1744","7654.251"
"1745","7652.455"
"1746","7655.063"
"1747","7674.526"
"1748","7705.473"
"1749","7720.003"
"1750","7692.938"
"1751","7640.77"
"1752","7603.773"
"1753","7609.37"
"1754","7634.961"
"1755","7646.338"
"1756","7628.653"
"1757","7597.791"
"1758","7571.946"
"1759","7563.461"
"1760","7580.583"
"1761","7624.799"
"1762","7666.313"
"1763","7666.392"
"1764","7613.659"
"1765","7548.015"
"1766","7512.819"
"1767","7514.966"
"1768","7531.864"
"1769","7543.124"
"1770","7544.941"
"1771","7539.063"
"1772","7529.161"
"1773","7522.878"
"1774","7527.743"
"1775","7539.861"
"1776","7545.359"
"1777","7533.707"
"1778","7515.66"
"1779","7509.537"
"1780","7524.146"
"1781","7547.726"
"1782","7566.33"
"1783","7575.734"
"1784","7580.352"
"1785","7583.367"
"1786","7579.167"
"1787","7559.075"
"1788","7523.684"
"1789","7493.073"
"1790","7488.385"
"1791","7505.715"
"1792","7519.921"
"1793","7510.201"
"1794","7482.492"
"1795","7451.515"
"1796","7429.561"
"1797","7424.198"
"1798","7441.234"
"1799","7468.115"
"1800","7478.31"
"1801","7452.567"
"1802","7406.575"
"1803","7365.888"
"1804","7349.179"
"1805","7363.77"
"1806","7414.018"
"1807","7482.119"
"1808","7536.047"
"1809","7553.73"
"1810","7550.563"
"1811","7550.199"
"1812","7561.687"
"1813","7574.691"
"1814","7578.393"
"1815","7569.358"
"1816","7547.882"
"1817","7517.273"
"1818","7489.074"
"1819","7475.787"
"1820","7478.901"
"1821","7488.76"
"1822","7496.578"
"1823","7501.829"
"1824","7506.99"
"1825","7509.647"
"1826","7497.759"
"1827","7459.835"
"1828","7407.832"
"1829","7370.717"
"1830","7368.351"
"1831","7382.85"
"1832","7387.411"
"1833","7374.902"
"1834","7364.663"
"1835","7374.349"
"1836","7392.664"
"1837","7394.313"
"1838","7367.296"
"1839","7332.995"
"1840","7316.927"
"1841","7325.848"
"1842","7350.125"
"1843","7378.585"
"1844","7395.523"
"1845","7384.208"
"1846","7347.357"
"1847","7317.171"
"1848","7323.357"
"1849","7350.356"
"1850","7358.682"
"1851","7327.547"
"1852","7286.128"
"1853","7270.026"
"1854","7281.442"
"1855","7292.885"
"1856","7283.269"
"1857","7266.258"
"1858","7265.159"
"1859","7281.95"
"1860","7287.795"
"1861","7257.69"
"1862","7217.627"
"1863","7218.298"
"1864","7277.124"
"1865","7333.641"
"1866","7321.294"
"1867","7249.616"
"1868","7186.521"
"1869","7182.168"
"1870","7213.765"
"1871","7241.818"
"1872","7243.21"
"1873","7213.906"
"1874","7156.43"
"1875","7106.228"
"1876","7110.657"
"1877","7181.641"
"1878","7269.563"
"1879","7324.005"
"1880","7347.187"
"1881","7370.679"
"1882","7407.044"
"1883","7419.352"
"1884","7366.829"
"1885","7273.158"
"1886","7213.608"
"1887","7239.228"
"1888","7304.377"
"1889","7342.335"
"1890","7333.508"
"1891","7310.593"
"1892","7301.178"
"1893","7290.364"
"1894","7249.491"
"1895","7177.658"
"1896","7115.666"
"1897","7101.765"
"1898","7127.905"
"1899","7164.841"
"1900","7194.08"
"1901","7218.882"
"1902","7244.417"
"1903","7268.62"
"1904","7285.062"
"1905","7290.521"
"1906","7290.349"
"1907","7290.577"
"1908","7286.604"
"1909","7265.656"
"1910","7223.025"
"1911","7181.826"
"1912","7169.67"
"1913","7185.102"
"1914","7199.046"
"1915","7189.777"
"1916","7171.337"
"1917","7166.567"
"1918","7179.302"
"1919","7191.662"
"1920","7188.139"
"1921","7171.707"
"1922","7151.366"
"1923","7140.186"
"1924","7156.671"
"1925","7212.642"
"1926","7276.561"
"1927","7301.027"
"1928","7271.508"
"1929","7224.127"
"1930","7194.782"
"1931","7186.625"
"1932","7188.693"
"1933","7188.39"
"1934","7170.458"
"1935","7123.945"
"1936","7074.533"
"1937","7065.185"
"1938","7106.769"
"1939","7149.624"
"1940","7144.114"
"1941","7100.297"
"1942","7058.928"
"1943","7050.043"
"1944","7081.591"
"1945","7155.062"
"1946","7236.287"
"1947","7271.949"
"1948","7241.628"
"1949","7193.564"
"1950","7178.386"
"1951","7187.019"
"1952","7177.481"
"1953","7131.439"
"1954","7080.864"
"1955","7061.023"
"1956","7077.685"
"1957","7120.313"
"1958","7171.699"
"1959","7201.338"
"1960","7181.768"
"1961","7129.154"
"1962","7082.923"
"1963","7066.889"
"1964","7073.542"
"1965","7090.705"
"1966","7097.983"
"1967","7071.036"
"1968","7013.34"
"1969","6979.622"
"1970","7019.339"
"1971","7097.378"
"1972","7139.688"
"1973","7117.001"
"1974","7075.602"
"1975","7061.229"
"1976","7065.825"
"1977","7059.313"
"1978","7037.031"
"1979","7032.341"
"1980","7070.557"
"1981","7111.172"
"1982","7091.274"
"1983","7011.405"
"1984","6954.343"
"1985","6984.501"
"1986","7048.054"
"1987","7057.654"
"1988","7006.374"
"1989","6975.75"
"1990","7023.125"
"1991","7089.659"
"1992","7091.478"
"1993","7029.171"
"1994","6980.341"
"1995","6996.705"
"1996","7037.697"
"1997","7047.821"
"1998","7022.216"
"1999","6993.313"
"2000","6981.051"
"2001","6971.905"
"2002","6949.429"
"2003","6919.848"
"2004","6902.421"
"2005","6904.663"
"2006","6911.273"
"2007","6907.866"
"2008","6905.59"
"2009","6926.233"
"2010","6959.972"
"2011","6951.264"
"2012","6860.938"
"2013","6753.42"
"2014","6723.548"
"2015","6783.996"
"2016","6859.203"
"2017","6886.644"
"2018","6867.483"
"2019","6818.483"
"2020","6774.313"
"2021","6783.547"
"2022","6853.19"
"2023","6885.487"
"2024","6788.086"
"2025","6673.327"
"2026","6763.535"
"2027","7080.864"
"2028","7302.487"
"2029","7148.656"
"2030","6804.952"
"2031","6621.045"
"2032","6684.908"
"2033","6778.954"
"2034","6734.354"
"2035","6634.849"
"2036","6616.226"
"2037","6689.948"
"2038","6770.703"
"2039","6795.895"
"2040","6763.724"
"2041","6685.867"
"2042","6612.833"
"2043","6613.651"
"2044","6694.202"
"2045","6764.847"
"2046","6748.611"
"2047","6671.16"
"2048","6588.789"
"2049","6536.848"
"2050","6530.806"
"2051","6569.801"
"2052","6608.363"
"2053","6599.66"
"2054","6565.138"
"2055","6565.326"
"2056","6613.147"
"2057","6640.366"
"2058","6588.683"
"2059","6496.813"
"2060","6434.128"
"2061","6422.015"
"2062","6433.919"
"2063","6451.222"
"2064","6484.894"
"2065","6547.26"
"2066","6609.783"
"2067","6620.784"
"2068","6562.686"
"2069","6473.88"
"2070","6394.68"
"2071","6348.533"
"2072","6351.955"
"2073","6387.442"
"2074","6406.59"
"2075","6383.585"
"2076","6353.722"
"2077","6355.045"
"2078","6367.575"
"2079","6343.84"
"2080","6284.232"
"2081","6254.25"
"2082","6300.302"
"2083","6374.697"
"2084","6410.434"
"2085","6395.067"
"2086","6355.222"
"2087","6315.778"
"2088","6296.442"
"2089","6309.148"
"2090","6323.958"
"2091","6297.934"
"2092","6234.502"
"2093","6182.546"
"2094","6175.117"
"2095","6197.859"
"2096","6230.033"
"2097","6262.535"
"2098","6291.75"
"2099","6309.42"
"2100","6301.332"
"2101","6265.259"
"2102","6242.154"
"2103","6275.169"
"2104","6327.288"
"2105","6313.065"
"2106","6205.314"
"2107","6070.019"
"2108","5975.112"
"2109","5960.034"
"2110","6050.405"
"2111","6185.38"
"2112","6241.034"
"2113","6166.667"
"2114","6050.969"
"2115","5983.624"
"2116","5979.374"
"2117","6027.542"
"2118","6093.452"
"2119","6122.496"
"2120","6088.145"
"2121","6024.148"
"2122","5967.405"
"2123","5928.628"
"2124","5909.316"
"2125","5912.318"
"2126","5941.684"
"2127","5993.079"
"2128","6043.381"
"2129","6069.51"
"2130","6064.655"
"2131","6028.322"
"2132","5964.953"
"2133","5883.636"
"2134","5807.601"
"2135","5791.44"
"2136","5873.079"
"2137","5963.172"
"2138","5932.288"
"2139","5800.383"
"2140","5723.021"
"2141","5773.75"
"2142","5836.875"
"2143","5800.239"
"2144","5713.934"
"2145","5680.265"
"2146","5715.971"
"2147","5765.261"
"2148","5785.202"
"2149","5763.118"
"2150","5699.049"
"2151","5639.03"
"2152","5639.174"
"2153","5691.007"
"2154","5737.819"
"2155","5752.264"
"2156","5759.624"
"2157","5780.313"
"2158","5792.167"
"2159","5766.387"
"2160","5726.721"
"2161","5729.14"
"2162","5775.001"
"2163","5787.1"
"2164","5711.808"
"2165","5595.122"
"2166","5501.327"
"2167","5471.253"
"2168","5531.879"
"2169","5650.329"
"2170","5726.427"
"2171","5696.462"
"2172","5599.021"
"2173","5486.775"
"2174","5399.62"
"2175","5369.828"
"2176","5378.923"
"2177","5365.615"
"2178","5317.556"
"2179","5315.619"
"2180","5413.34"
"2181","5502.746"
"2182","5449.959"
"2183","5313.901"
"2184","5267.643"
"2185","5331.581"
"2186","5324.944"
"2187","5152.977"
"2188","5005.916"
"2189","5079.081"
"2190","5258.206"
"2191","5312.188"
"2192","5214.129"
"2193","5116.89"
"2194","5108.186"
"2195","5143.797"
"2196","5176.487"
"2197","5205.414"
"2198","5238.433"
"2199","5252.617"
"2200","5209.26"
"2201","5121.06"
"2202","5060.653"
"2203","5074.105"
"2204","5134.617"
"2205","5202.158"
"2206","5224.495"
"2207","5152.1"
"2208","5027.14"
"2209","4954.956"
"2210","4967.965"
"2211","4993.449"
"2212","4971.556"
"2213","4904.152"
"2214","4812.03"
"2215","4765.182"
"2216","4844.906"
"2217","4996.999"
"2218","5059.657"
"2219","4974.48"
"2220","4852.101"
"2221","4787.232"
"2222","4773.107"
"2223","4783.769"
"2224","4803.106"
"2225","4818.899"
"2226","4814.129"
"2227","4768.098"
"2228","4688.265"
"2229","4628.317"
"2230","4623.181"
"2231","4631.602"
"2232","4605.896"
"2233","4563.353"
"2234","4546.439"
"2235","4557.355"
"2236","4565.258"
"2237","4549.15"
"2238","4504.962"
"2239","4443.367"
"2240","4415.321"
"2241","4463.977"
"2242","4535.381"
"2243","4544.81"
"2244","4501.842"
"2245","4483.872"
"2246","4498.735"
"2247","4457.555"
"2248","4318.289"
"2249","4177.342"
"2250","4132.777"
"2251","4177.441"
"2252","4268.773"
"2253","4343.966"
"2254","4330.477"
"2255","4229.272"
"2256","4122.231"
"2257","4060.252"
"2258","4023.339"
"2259","3986.491"
"2260","3938.199"
"2261","3872.626"
"2262","3802.718"
"2263","3749.906"
"2264","3733.24"
"2265","3768.88"
"2266","3827.297"
"2267","3812.588"
"2268","3682.749"
"2269","3552.391"
"2270","3528.349"
"2271","3549.488"
"2272","3512.51"
"2273","3415.037"
"2274","3311.285"
"2275","3241.422"
"2276","3230.662"
"2277","3271.097"
"2278","3299.144"
"2279","3262.192"
"2280","3158.554"
"2281","3007.246"
"2282","2889.181"
"2283","2895.452"
"2284","2987.157"
"2285","3047.267"
"2286","3018.644"
"2287","2908.535"
"2288","2746.545"
"2289","2596.524"
"2290","2513.042"
"2291","2510.24"
"2292","2579.896"
"2293","2632.723"
"2294","2564.326"
"2295","2409.519"
"2296","2282.258"
"2297","2208.128"
"2298","2125.002"
"2299","2021.874"
"2300","1977.182"
