,"Scan 01131"
"400","8638.51"
"401","8680.891"
"402","8693.152"
"403","8658.617"
"404","8593.725"
"405","8525.451"
"406","8480.57"
"407","8482.208"
"408","8525.314"
"409","8591.302"
"410","8661.631"
"411","8718.537"
"412","8752.679"
"413","8760.591"
"414","8738.959"
"415","8685.034"
"416","8608.391"
"417","8530.601"
"418","8473.587"
"419","8458.68"
"420","8488.522"
"421","8540.658"
"422","8591.018"
"423","8615.822"
"424","8604.215"
"425","8568.928"
"426","8525.153"
"427","8487.967"
"428","8468.882"
"429","8470.688"
"430","8494.82"
"431","8542.704"
"432","8611.177"
"433","8681.592"
"434","8732.144"
"435","8741.188"
"436","8694.429"
"437","8610.322"
"438","8516.445"
"439","8440.183"
"440","8404.228"
"441","8404.255"
"442","8426.039"
"443","8455.44"
"444","8479.56"
"445","8494.57"
"446","8500.887"
"447","8498.942"
"448","8489.374"
"449","8474.914"
"450","8459.493"
"451","8447.03"
"452","8441.156"
"453","8441.997"
"454","8447.228"
"455","8454.489"
"456","8461.416"
"457","8465.287"
"458","8463.094"
"459","8451.832"
"460","8428.795"
"461","8397.207"
"462","8366.076"
"463","8344.592"
"464","8341.509"
"465","8354.846"
"466","8370.634"
"467","8374.364"
"468","8351.994"
"469","8303.794"
"470","8248.104"
"471","8204.322"
"472","8191.391"
"473","8212.802"
"474","8250.273"
"475","8283.999"
"476","8294.512"
"477","8275.547"
"478","8241.231"
"479","8207.359"
"480","8189.512"
"481","8194.412"
"482","8214.01"
"483","8238.898"
"484","8259.756"
"485","8270.237"
"486","8269.248"
"487","8256.236"
"488","8230.68"
"489","8194.55"
"490","8154.46"
"491","8117.498"
"492","8090.669"
"493","8076.013"
"494","8066.063"
"495","8052.307"
"496","8026.318"
"497","7984.047"
"498","7929.931"
"499","7869.364"
"500","7807.711"
"501","7750.243"
"502","7702.073"
"503","7668.281"
"504","7653.858"
"505","7658.201"
"506","7669.996"
"507","7676.782"
"508","7666.236"
"509","7633.013"
"510","7584.609"
"511","7529.876"
"512","7477.588"
"513","7434.229"
"514","7402.279"
"515","7383.802"
"516","7380.786"
"517","7390.457"
"518","7402.198"
"519","7404.711"
"520","7386.915"
"521","7346.857"
"522","7296.488"
"523","7248.862"
"524","7216.794"
"525","7205.178"
"526","7207.939"
"527","7218.223"
"528","7229.302"
"529","7237.402"
"530","7242.437"
"531","7244.554"
"532","7243.894"
"533","7240.557"
"534","7234.593"
"535","7226.053"
"536","7214.967"
"537","7200.966"
"538","7183.302"
"539","7161.215"
"540","7134.043"
"541","7102.747"
"542","7069.631"
"543","7037.027"
"544","7007.352"
"545","6984.19"
"546","6971.961"
"547","6975.069"
"548","6997.136"
"549","7033.874"
"550","7076.403"
"551","7115.838"
"552","7143.933"
"553","7157.322"
"554","7154.954"
"555","7135.804"
"556","7100.376"
"557","7058.597"
"558","7023.95"
"559","7009.854"
"560","7025.301"
"561","7058.462"
"562","7091.38"
"563","7106.18"
"564","7090.83"
"565","7054.223"
"566","7009.948"
"567","6971.523"
"568","6948.73"
"569","6941.244"
"570","6947.044"
"571","6964.107"
"572","6988.694"
"573","7013.556"
"574","7031.039"
"575","7033.615"
"576","7019.285"
"577","6994.498"
"578","6966.397"
"579","6941.965"
"580","6924.283"
"581","6911.986"
"582","6903.471"
"583","6897.213"
"584","6892.902"
"585","6891.251"
"586","6893.002"
"587","6898.868"
"588","6909.262"
"589","6924.416"
"590","6944.558"
"591","6969.263"
"592","6993.483"
"593","7010.205"
"594","7012.437"
"595","6995.464"
"596","6965.135"
"597","6930.369"
"598","6900.047"
"599","6880.82"
"600","6872.48"
"601","6873.506"
"602","6882.371"
"603","6896.592"
"604","6911.711"
"605","6923.035"
"606","6925.947"
"607","6918.329"
"608","6901.51"
"609","6877.066"
"610","6846.771"
"611","6816.468"
"612","6795.773"
"613","6794.409"
"614","6820.553"
"615","6865.959"
"616","6912.349"
"617","6941.366"
"618","6938.332"
"619","6911.504"
"620","6878.06"
"621","6855.132"
"622","6854.725"
"623","6869.45"
"624","6887.341"
"625","6896.486"
"626","6889.187"
"627","6867.378"
"628","6834.333"
"629","6793.367"
"630","6749.943"
"631","6712.592"
"632","6690.052"
"633","6690.599"
"634","6714.539"
"635","6755.162"
"636","6805.551"
"637","6858.618"
"638","6905.584"
"639","6936.786"
"640","6942.575"
"641","6917.174"
"642","6873.922"
"643","6832.059"
"644","6810.746"
"645","6820.104"
"646","6845.284"
"647","6867.194"
"648","6867.032"
"649","6840.667"
"650","6807.158"
"651","6787.567"
"652","6801.748"
"653","6846.816"
"654","6898.947"
"655","6933.606"
"656","6929.518"
"657","6894.019"
"658","6849.472"
"659","6818.308"
"660","6817.971"
"661","6843.395"
"662","6883.133"
"663","6925.781"
"664","6961.313"
"665","6982.948"
"666","6984.399"
"667","6959.637"
"668","6912.138"
"669","6857.671"
"670","6812.785"
"671","6793.02"
"672","6801.133"
"673","6830.802"
"674","6875.529"
"675","6928.17"
"676","6977.625"
"677","7011.326"
"678","7016.74"
"679","6988.201"
"680","6940.297"
"681","6891.308"
"682","6859.291"
"683","6852.175"
"684","6862.679"
"685","6882.276"
"686","6902.705"
"687","6919.472"
"688","6931.069"
"689","6936.062"
"690","6933.668"
"691","6927.259"
"692","6921.856"
"693","6922.47"
"694","6931.851"
"695","6945.975"
"696","6959.574"
"697","6967.46"
"698","6968.38"
"699","6966.79"
"700","6967.586"
"701","6975.211"
"702","6987.99"
"703","6999.804"
"704","7004.439"
"705","6997.267"
"706","6982.434"
"707","6967.124"
"708","6958.5"
"709","6960.149"
"710","6966.79"
"711","6971.795"
"712","6968.71"
"713","6955.897"
"714","6937.365"
"715","6917.44"
"716","6900.285"
"717","6888.58"
"718","6884.172"
"719","6888.899"
"720","6903.649"
"721","6925.599"
"722","6951.008"
"723","6976.15"
"724","6997.267"
"725","7010.553"
"726","7012.206"
"727","6998.884"
"728","6974.521"
"729","6948.833"
"730","6931.675"
"731","6931.144"
"732","6945.392"
"733","6969.078"
"734","6996.867"
"735","7024.904"
"736","7052.763"
"737","7080.493"
"738","7108.043"
"739","7132.714"
"740","7149.096"
"741","7151.667"
"742","7136.491"
"743","7111.272"
"744","7088.929"
"745","7082.373"
"746","7097.993"
"747","7123.537"
"748","7143.464"
"749","7142.724"
"750","7121.798"
"751","7099.778"
"752","7096.838"
"753","7129.803"
"754","7186.689"
"755","7240.734"
"756","7265.097"
"757","7244.199"
"758","7198.324"
"759","7154.871"
"760","7140.69"
"761","7163.201"
"762","7204.878"
"763","7246.588"
"764","7270.947"
"765","7276.431"
"766","7269.98"
"767","7258.602"
"768","7248.151"
"769","7240.773"
"770","7237.862"
"771","7240.812"
"772","7250.791"
"773","7268.698"
"774","7295.42"
"775","7330.989"
"776","7368.224"
"777","7396.279"
"778","7404.303"
"779","7388.025"
"780","7362.55"
"781","7346.524"
"782","7358.013"
"783","7398.904"
"784","7452.811"
"785","7502.384"
"786","7532.503"
"787","7544.017"
"788","7544.783"
"789","7542.67"
"790","7542.477"
"791","7541.468"
"792","7535.767"
"793","7521.841"
"794","7503.03"
"795","7489.079"
"796","7489.969"
"797","7512.78"
"798","7548.532"
"799","7582.703"
"800","7600.86"
"801","7597.458"
"802","7583.745"
"803","7572.819"
"804","7576.553"
"805","7590.606"
"806","7599.163"
"807","7586.176"
"808","7543.035"
"809","7490.247"
"810","7455.442"
"811","7465.687"
"812","7524.6"
"813","7604.15"
"814","7674.082"
"815","7707.739"
"816","7707.952"
"817","7692.042"
"818","7677.402"
"819","7674.893"
"820","7678.715"
"821","7680.441"
"822","7672.12"
"823","7654.729"
"824","7637.285"
"825","7629.077"
"826","7637.372"
"827","7659.464"
"828","7689.604"
"829","7722.049"
"830","7751.111"
"831","7771.202"
"832","7776.738"
"833","7763.486"
"834","7739.938"
"835","7721.591"
"836","7723.999"
"837","7754.108"
"838","7795.191"
"839","7826.489"
"840","7828.279"
"841","7801.387"
"842","7765.611"
"843","7741.444"
"844","7744.828"
"845","7769.769"
"846","7803.686"
"847","7834.137"
"848","7856.036"
"849","7875.236"
"850","7898.488"
"851","7931.297"
"852","7968.899"
"853","8001.412"
"854","8018.936"
"855","8016.303"
"856","7999.548"
"857","7976.332"
"858","7954.122"
"859","7937.584"
"860","7929.215"
"861","7931.457"
"862","7945.269"
"863","7966.056"
"864","7987.908"
"865","8005.045"
"866","8015.216"
"867","8020.237"
"868","8022.143"
"869","8023.348"
"870","8028.43"
"871","8042.755"
"872","8071.606"
"873","8114.408"
"874","8160.79"
"875","8199.452"
"876","8220.252"
"877","8223.463"
"878","8214.869"
"879","8200.303"
"880","8184.274"
"881","8168.142"
"882","8152.803"
"883","8139.262"
"884","8130.028"
"885","8128.718"
"886","8138.973"
"887","8162.004"
"888","8190.841"
"889","8216.794"
"890","8231.581"
"891","8236.152"
"892","8240.606"
"893","8255.442"
"894","8288.084"
"895","8331.726"
"896","8375.435"
"897","8408.445"
"898","8426.358"
"899","8433.026"
"900","8432.852"
"901","8430.119"
"902","8428.369"
"903","8430.854"
"904","8440.79"
"905","8458.848"
"906","8481.482"
"907","8504.756"
"908","8524.742"
"909","8537.651"
"910","8539.759"
"911","8527.368"
"912","8502.244"
"913","8477.415"
"914","8467.302"
"915","8484.5"
"916","8522.145"
"917","8561.583"
"918","8584.016"
"919","8579.099"
"920","8557.812"
"921","8534.464"
"922","8522.625"
"923","8525.784"
"924","8540.147"
"925","8561.76"
"926","8587.419"
"927","8616.193"
"928","8647.581"
"929","8680.883"
"930","8711.998"
"931","8733.978"
"932","8739.774"
"933","8725.232"
"934","8696.375"
"935","8661.472"
"936","8628.764"
"937","8605.817"
"938","8599.556"
"939","8616.877"
"940","8659.942"
"941","8711.866"
"942","8750.977"
"943","8756.337"
"944","8725.807"
"945","8677.015"
"946","8628.547"
"947","8596.238"
"948","8583.688"
"949","8591.095"
"950","8618.405"
"951","8658.271"
"952","8695.026"
"953","8712.556"
"954","8699.569"
"955","8667.998"
"956","8636.747"
"957","8624.283"
"958","8634.432"
"959","8653.398"
"960","8666.338"
"961","8661.935"
"962","8646.72"
"963","8632.863"
"964","8632.283"
"965","8647.71"
"966","8670.441"
"967","8691.06"
"968","8701.732"
"969","8702.88"
"970","8697.604"
"971","8689.009"
"972","8680.25"
"973","8674.549"
"974","8675.136"
"975","8684.128"
"976","8697.846"
"977","8710.729"
"978","8717.308"
"979","8715.57"
"980","8707.837"
"981","8696.691"
"982","8684.94"
"983","8676.45"
"984","8675.441"
"985","8685.981"
"986","8707.221"
"987","8732.324"
"988","8754.096"
"989","8766.563"
"990","8769.745"
"991","8765.484"
"992","8755.728"
"993","8745.364"
"994","8742.706"
"995","8756.252"
"996","8790.991"
"997","8835.813"
"998","8875.006"
"999","8893.334"
"1000","8888.454"
"1001","8872.009"
"1002","8856.35"
"1003","8851.634"
"1004","8858.833"
"1005","8876.506"
"1006","8903.206"
"1007","8935.905"
"1008","8967.594"
"1009","8990.642"
"1010","8998.067"
"1011","8989.578"
"1012","8968.832"
"1013","8939.558"
"1014","8906.609"
"1015","8877.091"
"1016","8858.369"
"1017","8856.58"
"1018","8868.593"
"1019","8887.049"
"1020","8904.656"
"1021","8919.306"
"1022","8936.62"
"1023","8962.862"
"1024","9002.117"
"1025","9046.832"
"1026","9085.558"
"1027","9107.194"
"1028","9110.324"
"1029","9104.185"
"1030","9098.57"
"1031","9100.775"
"1032","9108.844"
"1033","9118.675"
"1034","9126.267"
"1035","9129.012"
"1036","9125.401"
"1037","9113.968"
"1038","9097.38"
"1039","9088.506"
"1040","9101.772"
"1041","9148.822"
"1042","9216.002"
"1043","9276.202"
"1044","9302.422"
"1045","9285.038"
"1046","9242.655"
"1047","9196.475"
"1048","9164.786"
"1049","9149.961"
"1050","9148.965"
"1051","9158.842"
"1052","9178.924"
"1053","9210.92"
"1054","9256.656"
"1055","9314.202"
"1056","9369.474"
"1057","9405.912"
"1058","9408.766"
"1059","9384.73"
"1060","9354.504"
"1061","9338.951"
"1062","9349.507"
"1063","9379.653"
"1064","9420.86"
"1065","9464.904"
"1066","9505.489"
"1067","9537.053"
"1068","9554.214"
"1069","9556.725"
"1070","9550.055"
"1071","9539.972"
"1072","9530.829"
"1073","9522.33"
"1074","9513.226"
"1075","9502.739"
"1076","9495.527"
"1077","9499.68"
"1078","9523.229"
"1079","9565.182"
"1080","9608.736"
"1081","9635.481"
"1082","9630.771"
"1083","9600.039"
"1084","9555.378"
"1085","9508.851"
"1086","9471.711"
"1087","9454.444"
"1088","9467.49"
"1089","9512.476"
"1090","9568.282"
"1091","9610.164"
"1092","9616.778"
"1093","9594.039"
"1094","9560.922"
"1095","9536.221"
"1096","9528.414"
"1097","9532.823"
"1098","9543.913"
"1099","9556.557"
"1100","9567.104"
"1101","9572.215"
"1102","9569.159"
"1103","9561.957"
"1104","9558.839"
"1105","9567.959"
"1106","9588.023"
"1107","9602.569"
"1108","9593.75"
"1109","9551.286"
"1110","9498.515"
"1111","9468.112"
"1112","9489.979"
"1113","9554.268"
"1114","9621.592"
"1115","9652.042"
"1116","9627.541"
"1117","9570.708"
"1118","9508.618"
"1119","9464.79"
"1120","9444.551"
"1121","9447.468"
"1122","9472.708"
"1123","9513.013"
"1124","9555.895"
"1125","9588.745"
"1126","9605.275"
"1127","9611.772"
"1128","9616.011"
"1129","9623.406"
"1130","9626.877"
"1131","9615.213"
"1132","9578.325"
"1133","9524.799"
"1134","9478.522"
"1135","9463.739"
"1136","9490.366"
"1137","9540.39"
"1138","9592.563"
"1139","9629.507"
"1140","9653.349"
"1141","9672.309"
"1142","9693.798"
"1143","9713.113"
"1144","9716.326"
"1145","9689.456"
"1146","9634.5"
"1147","9581.5"
"1148","9563.356"
"1149","9601.935"
"1150","9671.245"
"1151","9732.335"
"1152","9749.846"
"1153","9731.123"
"1154","9711.29"
"1155","9725.396"
"1156","9779.115"
"1157","9835.338"
"1158","9853.559"
"1159","9810.215"
"1160","9739.577"
"1161","9688.243"
"1162","9696.942"
"1163","9755.727"
"1164","9828.803"
"1165","9880.911"
"1166","9898.625"
"1167","9892.933"
"1168","9876.106"
"1169","9857.762"
"1170","9840.931"
"1171","9827.647"
"1172","9819.9"
"1173","9819.35"
"1174","9827.55"
"1175","9845.636"
"1176","9868.275"
"1177","9885.009"
"1178","9885.353"
"1179","9868.744"
"1180","9851.161"
"1181","9850.164"
"1182","9876.171"
"1183","9913.195"
"1184","9939.143"
"1185","9935.088"
"1186","9909.668"
"1187","9885.691"
"1188","9885.432"
"1189","9914.071"
"1190","9958.701"
"1191","10005.54"
"1192","10042.48"
"1193","10061.07"
"1194","10053.33"
"1195","10015.46"
"1196","9963.507"
"1197","9919.375"
"1198","9903.256"
"1199","9916.078"
"1200","9946.814"
"1201","9984.324"
"1202","10019.96"
"1203","10048.12"
"1204","10063.41"
"1205","10064.32"
"1206","10058.86"
"1207","10056.49"
"1208","10064.08"
"1209","10075.13"
"1210","10078.8"
"1211","10065.78"
"1212","10044.43"
"1213","10034.59"
"1214","10055.6"
"1215","10103.74"
"1216","10146.77"
"1217","10150.78"
"1218","10102.9"
"1219","10040.22"
"1220","10007.09"
"1221","10036.1"
"1222","10103.4"
"1223","10168.18"
"1224","10193.3"
"1225","10179.2"
"1226","10148.18"
"1227","10122.42"
"1228","10112.19"
"1229","10115.01"
"1230","10127.76"
"1231","10148.08"
"1232","10175.15"
"1233","10208.34"
"1234","10246.18"
"1235","10284.09"
"1236","10316.78"
"1237","10339.26"
"1238","10348.99"
"1239","10344.55"
"1240","10325.1"
"1241","10299.47"
"1242","10284.39"
"1243","10296.46"
"1244","10335.67"
"1245","10378.18"
"1246","10398.31"
"1247","10384.56"
"1248","10361.82"
"1249","10360.74"
"1250","10403.6"
"1251","10472.82"
"1252","10538.97"
"1253","10575.16"
"1254","10577.6"
"1255","10554.9"
"1256","10515.9"
"1257","10472.23"
"1258","10438.07"
"1259","10427.53"
"1260","10445.15"
"1261","10480.76"
"1262","10522.92"
"1263","10563.01"
"1264","10599.82"
"1265","10633.33"
"1266","10662.56"
"1267","10681.99"
"1268","10684.79"
"1269","10665.72"
"1270","10633.03"
"1271","10601.73"
"1272","10586.05"
"1273","10586.73"
"1274","10593.38"
"1275","10595.45"
"1276","10588.8"
"1277","10577.82"
"1278","10567.47"
"1279","10562.03"
"1280","10564.29"
"1281","10576.87"
"1282","10600.67"
"1283","10630.62"
"1284","10660.25"
"1285","10683.91"
"1286","10700.56"
"1287","10710.93"
"1288","10715.41"
"1289","10711.36"
"1290","10694.3"
"1291","10660.22"
"1292","10614.45"
"1293","10570.92"
"1294","10543.75"
"1295","10540.37"
"1296","10558.76"
"1297","10596.19"
"1298","10647.75"
"1299","10703.84"
"1300","10754.21"
"1301","10789.21"
"1302","10801.09"
"1303","10782.5"
"1304","10730.94"
"1305","10669.93"
"1306","10631.65"
"1307","10643.79"
"1308","10694.98"
"1309","10753.91"
"1310","10790.53"
"1311","10795.94"
"1312","10777.24"
"1313","10742.08"
"1314","10703.4"
"1315","10679.85"
"1316","10690.14"
"1317","10735.1"
"1318","10787.27"
"1319","10816.69"
"1320","10809.34"
"1321","10787.79"
"1322","10779.78"
"1323","10801.75"
"1324","10831.84"
"1325","10840.1"
"1326","10805.32"
"1327","10749.94"
"1328","10710.05"
"1329","10716.12"
"1330","10756.73"
"1331","10801.69"
"1332","10823.03"
"1333","10819.08"
"1334","10804.74"
"1335","10794.65"
"1336","10794.24"
"1337","10801.03"
"1338","10812.36"
"1339","10827.83"
"1340","10849.73"
"1341","10880.38"
"1342","10915.68"
"1343","10941.29"
"1344","10942"
"1345","10912.96"
"1346","10871.33"
"1347","10837.13"
"1348","10822.95"
"1349","10819.81"
"1350","10814.85"
"1351","10799.88"
"1352","10785.34"
"1353","10786.27"
"1354","10813.79"
"1355","10858.1"
"1356","10902.41"
"1357","10931.38"
"1358","10940.45"
"1359","10929.78"
"1360","10900.54"
"1361","10863.57"
"1362","10835.21"
"1363","10830.6"
"1364","10846.59"
"1365","10866.68"
"1366","10874.88"
"1367","10871.05"
"1368","10869.67"
"1369","10885.17"
"1370","10913.54"
"1371","10929.6"
"1372","10907.5"
"1373","10845.3"
"1374","10775.03"
"1375","10731.13"
"1376","10728.4"
"1377","10747.21"
"1378","10764.44"
"1379","10768.01"
"1380","10769.59"
"1381","10783.92"
"1382","10818.4"
"1383","10860.83"
"1384","10895.84"
"1385","10912.13"
"1386","10911.68"
"1387","10899.18"
"1388","10878.71"
"1389","10851.97"
"1390","10820.09"
"1391","10786.1"
"1392","10762.23"
"1393","10763.4"
"1394","10799.54"
"1395","10851.99"
"1396","10891.98"
"1397","10895.72"
"1398","10873.59"
"1399","10850.19"
"1400","10846.68"
"1401","10855.88"
"1402","10856.98"
"1403","10831.91"
"1404","10790.08"
"1405","10756.13"
"1406","10752.34"
"1407","10772.44"
"1408","10792.21"
"1409","10789.33"
"1410","10770"
"1411","10760.61"
"1412","10785.83"
"1413","10837.11"
"1414","10879.77"
"1415","10880.45"
"1416","10842.55"
"1417","10801.49"
"1418","10792.49"
"1419","10825.01"
"1420","10883.95"
"1421","10953.26"
"1422","11015.87"
"1423","11053.78"
"1424","11049.76"
"1425","11010.64"
"1426","10969.9"
"1427","10961.46"
"1428","10988.63"
"1429","11018.52"
"1430","11016.93"
"1431","10979.82"
"1432","10940.96"
"1433","10935.88"
"1434","10975.07"
"1435","11036.01"
"1436","11094.13"
"1437","11135.58"
"1438","11161.15"
"1439","11172.73"
"1440","11172.89"
"1441","11165.19"
"1442","11153.23"
"1443","11140.4"
"1444","11129.73"
"1445","11124.25"
"1446","11127.52"
"1447","11143.94"
"1448","11177.78"
"1449","11222.2"
"1450","11253.82"
"1451","11248.22"
"1452","11199.6"
"1453","11130.06"
"1454","11063.85"
"1455","11017.34"
"1456","10995.29"
"1457","11001.22"
"1458","11025.79"
"1459","11040.83"
"1460","11017.25"
"1461","10955.09"
"1462","10895.95"
"1463","10883.73"
"1464","10920.93"
"1465","10952.86"
"1466","10921.84"
"1467","10822.25"
"1468","10717.57"
"1469","10674.58"
"1470","10703.87"
"1471","10744.94"
"1472","10734.2"
"1473","10659.86"
"1474","10572.09"
"1475","10523.63"
"1476","10534.65"
"1477","10588.66"
"1478","10666.88"
"1479","10741.67"
"1480","10776.13"
"1481","10735.06"
"1482","10629.75"
"1483","10516.44"
"1484","10450.87"
"1485","10444.26"
"1486","10468.33"
"1487","10494.33"
"1488","10508.36"
"1489","10508.49"
"1490","10493.42"
"1491","10465.9"
"1492","10431.62"
"1493","10396.63"
"1494","10370.05"
"1495","10363.01"
"1496","10384.38"
"1497","10420.04"
"1498","10442.67"
"1499","10428.68"
"1500","10387.54"
"1501","10345.36"
"1502","10324.78"
"1503","10322.66"
"1504","10324.61"
"1505","10319"
"1506","10311.39"
"1507","10313.7"
"1508","10333.87"
"1509","10359.69"
"1510","10372.58"
"1511","10360.68"
"1512","10340.64"
"1513","10336.56"
"1514","10362.31"
"1515","10395.96"
"1516","10407.79"
"1517","10381.99"
"1518","10342.53"
"1519","10320.44"
"1520","10331.08"
"1521","10353.12"
"1522","10360.09"
"1523","10340.56"
"1524","10311.96"
"1525","10294.81"
"1526","10296.82"
"1527","10305.76"
"1528","10307.86"
"1529","10296.64"
"1530","10274.94"
"1531","10246.33"
"1532","10218.44"
"1533","10203"
"1534","10210.91"
"1535","10235.8"
"1536","10257.14"
"1537","10255.92"
"1538","10236.54"
"1539","10218.65"
"1540","10219.17"
"1541","10229.02"
"1542","10225.83"
"1543","10191.87"
"1544","10139.81"
"1545","10094.26"
"1546","10075.21"
"1547","10080.51"
"1548","10101.43"
"1549","10128.93"
"1550","10153.06"
"1551","10163.62"
"1552","10156.25"
"1553","10141.81"
"1554","10133.55"
"1555","10137.09"
"1556","10143.2"
"1557","10141.01"
"1558","10125.63"
"1559","10100.77"
"1560","10070.87"
"1561","10040.95"
"1562","10016.67"
"1563","10003.28"
"1564","9998.89"
"1565","9995.827"
"1566","9987.146"
"1567","9975.104"
"1568","9967.379"
"1569","9970.596"
"1570","9983.504"
"1571","10001.49"
"1572","10019.09"
"1573","10026.79"
"1574","10013.86"
"1575","9977.415"
"1576","9940.126"
"1577","9929.817"
"1578","9954.454"
"1579","9977.297"
"1580","9956.038"
"1581","9884.818"
"1582","9815.03"
"1583","9801.488"
"1584","9853.201"
"1585","9928.731"
"1586","9985.743"
"1587","10008.16"
"1588","10000.14"
"1589","9967.838"
"1590","9930.931"
"1591","9916.258"
"1592","9943.211"
"1593","9988.404"
"1594","10013.32"
"1595","9992.616"
"1596","9949.361"
"1597","9917.646"
"1598","9916.024"
"1599","9926.212"
"1600","9924.774"
"1601","9901.359"
"1602","9866.043"
"1603","9830.665"
"1604","9806.56"
"1605","9804.521"
"1606","9833.678"
"1607","9882.158"
"1608","9923.657"
"1609","9935.856"
"1610","9927.849"
"1611","9922.682"
"1612","9936.88"
"1613","9957.76"
"1614","9964.592"
"1615","9948.061"
"1616","9929.71"
"1617","9936.008"
"1618","9974.094"
"1619","10018.5"
"1620","10041.38"
"1621","10034.98"
"1622","10013.04"
"1623","9989.649"
"1624","9969.611"
"1625","9951.46"
"1626","9935.108"
"1627","9930.667"
"1628","9952.484"
"1629","10005.5"
"1630","10057.69"
"1631","10068.07"
"1632","10020.33"
"1633","9954.812"
"1634","9919.089"
"1635","9930.164"
"1636","9962.736"
"1637","9989.445"
"1638","10001.16"
"1639","10004.09"
"1640","10004.62"
"1641","10006.26"
"1642","10011.09"
"1643","10018.43"
"1644","10015.05"
"1645","9984.088"
"1646","9925.298"
"1647","9881.182"
"1648","9900.209"
"1649","9984.383"
"1650","10066.86"
"1651","10079.09"
"1652","10024.12"
"1653","9967.238"
"1654","9967.456"
"1655","10012.07"
"1656","10052.39"
"1657","10052.14"
"1658","10030.96"
"1659","10023.84"
"1660","10045.81"
"1661","10064.68"
"1662","10042.3"
"1663","9976.413"
"1664","9912.123"
"1665","9894.659"
"1666","9923.894"
"1667","9965.813"
"1668","9989.628"
"1669","9991.902"
"1670","9980.415"
"1671","9960.574"
"1672","9929.587"
"1673","9882.976"
"1674","9822.589"
"1675","9761.589"
"1676","9714.215"
"1677","9692.036"
"1678","9704.004"
"1679","9754.747"
"1680","9810.823"
"1681","9818.572"
"1682","9744.107"
"1683","9640.291"
"1684","9583.337"
"1685","9608.737"
"1686","9663.539"
"1687","9684.593"
"1688","9652.759"
"1689","9599.124"
"1690","9555.288"
"1691","9528.646"
"1692","9511.994"
"1693","9499.704"
"1694","9494.814"
"1695","9502.943"
"1696","9520.761"
"1697","9524.076"
"1698","9486.638"
"1699","9412.459"
"1700","9341.428"
"1701","9312.058"
"1702","9324.986"
"1703","9357.771"
"1704","9390.362"
"1705","9415.695"
"1706","9430.547"
"1707","9433.694"
"1708","9428.343"
"1709","9418.332"
"1710","9408.373"
"1711","9404.132"
"1712","9409.706"
"1713","9414.031"
"1714","9397.754"
"1715","9351.749"
"1716","9308.79"
"1717","9312.01"
"1718","9372.465"
"1719","9441.426"
"1720","9466.125"
"1721","9443.78"
"1722","9416.926"
"1723","9421.979"
"1724","9439.889"
"1725","9427.594"
"1726","9363.063"
"1727","9288.878"
"1728","9259.155"
"1729","9289.118"
"1730","9339.435"
"1731","9368.774"
"1732","9361.932"
"1733","9321.11"
"1734","9255.274"
"1735","9204.162"
"1736","9216.504"
"1737","9301.429"
"1738","9386.54"
"1739","9393.248"
"1740","9326.404"
"1741","9270.011"
"1742","9295.876"
"1743","9366.624"
"1744","9397.875"
"1745","9342.85"
"1746","9263.707"
"1747","9240.418"
"1748","9288.132"
"1749","9340.066"
"1750","9331.895"
"1751","9276.707"
"1752","9231.737"
"1753","9237.439"
"1754","9268.298"
"1755","9283.457"
"1756","9264.884"
"1757","9230.765"
"1758","9201.854"
"1759","9190.019"
"1760","9200.89"
"1761","9234.258"
"1762","9263.147"
"1763","9252.99"
"1764","9197.989"
"1765","9146.28"
"1766","9148.317"
"1767","9194.861"
"1768","9228.406"
"1769","9204.074"
"1770","9152.844"
"1771","9130.914"
"1772","9162.001"
"1773","9202.231"
"1774","9202.057"
"1775","9164.077"
"1776","9136.464"
"1777","9156.462"
"1778","9189.297"
"1779","9174.692"
"1780","9097.332"
"1781","9039.115"
"1782","9089.211"
"1783","9232.358"
"1784","9360.55"
"1785","9381.499"
"1786","9312.267"
"1787","9208.66"
"1788","9120.729"
"1789","9086.156"
"1790","9137.153"
"1791","9236.575"
"1792","9288.448"
"1793","9220.886"
"1794","9099.912"
"1795","9036.536"
"1796","9080.662"
"1797","9164.897"
"1798","9212.269"
"1799","9202.178"
"1800","9156.889"
"1801","9098.245"
"1802","9041.047"
"1803","8998.127"
"1804","8982.021"
"1805","9004.741"
"1806","9074.801"
"1807","9160.775"
"1808","9205.606"
"1809","9175.265"
"1810","9121.83"
"1811","9115.739"
"1812","9167.562"
"1813","9208.441"
"1814","9173.931"
"1815","9084.774"
"1816","9004.711"
"1817","8978.368"
"1818","8996.505"
"1819","9040.609"
"1820","9091.605"
"1821","9129.816"
"1822","9138.584"
"1823","9119.601"
"1824","9081.346"
"1825","9035.895"
"1826","9002.359"
"1827","8998.718"
"1828","9015.603"
"1829","9023.803"
"1830","9004.977"
"1831","8985.771"
"1832","9003.056"
"1833","9053.009"
"1834","9077.073"
"1835","9024.165"
"1836","8935.681"
"1837","8897.711"
"1838","8949.117"
"1839","9010.205"
"1840","8988.619"
"1841","8895.784"
"1842","8833.749"
"1843","8882.571"
"1844","9003.388"
"1845","9122.633"
"1846","9187.272"
"1847","9175.511"
"1848","9075.294"
"1849","8939.044"
"1850","8853.302"
"1851","8868.067"
"1852","8935.935"
"1853","8995.487"
"1854","9022.177"
"1855","9024.239"
"1856","9010.9"
"1857","8990.584"
"1858","8971.479"
"1859","8959.828"
"1860","8959.062"
"1861","8971.706"
"1862","8994.654"
"1863","9022.067"
"1864","9046.38"
"1865","9056.147"
"1866","9040.342"
"1867","9002.929"
"1868","8959.369"
"1869","8923.341"
"1870","8900.545"
"1871","8894.795"
"1872","8909.229"
"1873","8946.192"
"1874","9002.604"
"1875","9043.097"
"1876","9020.745"
"1877","8933.839"
"1878","8859.133"
"1879","8870.372"
"1880","8935.262"
"1881","8962.329"
"1882","8905.565"
"1883","8837.204"
"1884","8842.338"
"1885","8911.354"
"1886","8958.851"
"1887","8925.038"
"1888","8854.667"
"1889","8815.342"
"1890","8825.715"
"1891","8850.15"
"1892","8856.044"
"1893","8842.809"
"1894","8820.664"
"1895","8804.264"
"1896","8814.873"
"1897","8868.201"
"1898","8933.171"
"1899","8957.438"
"1900","8925.757"
"1901","8897.241"
"1902","8931.408"
"1903","8996.329"
"1904","9004.864"
"1905","8913.816"
"1906","8796.979"
"1907","8742.017"
"1908","8758.979"
"1909","8798.261"
"1910","8820.651"
"1911","8827.25"
"1912","8827.235"
"1913","8822.34"
"1914","8807.225"
"1915","8781.179"
"1916","8764.135"
"1917","8780.579"
"1918","8827.521"
"1919","8870.587"
"1920","8881.311"
"1921","8870.838"
"1922","8862.621"
"1923","8864.114"
"1924","8861.258"
"1925","8841.106"
"1926","8806.961"
"1927","8768.211"
"1928","8732.294"
"1929","8703.587"
"1930","8686.758"
"1931","8690.195"
"1932","8723.642"
"1933","8775.762"
"1934","8798.964"
"1935","8751.928"
"1936","8672.757"
"1937","8637.157"
"1938","8674.062"
"1939","8723.974"
"1940","8726.227"
"1941","8696.438"
"1942","8689.333"
"1943","8728.094"
"1944","8772.093"
"1945","8779.022"
"1946","8762.273"
"1947","8765.204"
"1948","8800.756"
"1949","8818.21"
"1950","8767.427"
"1951","8680.423"
"1952","8634.458"
"1953","8660.864"
"1954","8693.735"
"1955","8664.395"
"1956","8595.294"
"1957","8558.919"
"1958","8587.918"
"1959","8631.753"
"1960","8635.807"
"1961","8603.141"
"1962","8567.579"
"1963","8548.002"
"1964","8533.182"
"1965","8510.803"
"1966","8489.563"
"1967","8488.702"
"1968","8515.113"
"1969","8552.786"
"1970","8583.878"
"1971","8595.821"
"1972","8578.687"
"1973","8538.536"
"1974","8508.188"
"1975","8516.38"
"1976","8545.979"
"1977","8560.918"
"1978","8540.678"
"1979","8488.055"
"1980","8411.662"
"1981","8342.951"
"1982","8320.871"
"1983","8349.429"
"1984","8387.347"
"1985","8398.364"
"1986","8386.271"
"1987","8366.803"
"1988","8346.026"
"1989","8319.348"
"1990","8289.508"
"1991","8290.774"
"1992","8361.954"
"1993","8473.612"
"1994","8534.08"
"1995","8486.471"
"1996","8393.001"
"1997","8335.632"
"1998","8336.911"
"1999","8375.593"
"2000","8421.693"
"2001","8426.174"
"2002","8345.596"
"2003","8223.973"
"2004","8155.59"
"2005","8180.708"
"2006","8234.841"
"2007","8251.685"
"2008","8238.682"
"2009","8235.148"
"2010","8250.321"
"2011","8249.756"
"2012","8207.337"
"2013","8158.047"
"2014","8154.559"
"2015","8195.547"
"2016","8221.684"
"2017","8191.676"
"2018","8140.327"
"2019","8116.763"
"2020","8124.236"
"2021","8130.284"
"2022","8110.714"
"2023","8064.538"
"2024","8002.991"
"2025","8018.178"
"2026","8244.578"
"2027","8641.467"
"2028","8867.349"
"2029","8635.52"
"2030","8168.903"
"2031","7870.615"
"2032","7869.461"
"2033","7973.912"
"2034","8019.804"
"2035","8017.464"
"2036","8015.586"
"2037","8016.895"
"2038","7988.381"
"2039","7924.278"
"2040","7886.115"
"2041","7931.418"
"2042","7999.214"
"2043","7970.643"
"2044","7830.02"
"2045","7718.013"
"2046","7751.951"
"2047","7868.438"
"2048","7951.999"
"2049","7963.708"
"2050","7937.293"
"2051","7904.094"
"2052","7880.117"
"2053","7877.339"
"2054","7893.899"
"2055","7919.849"
"2056","7942.164"
"2057","7942.878"
"2058","7906.768"
"2059","7836.407"
"2060","7741.291"
"2061","7651.933"
"2062","7619.796"
"2063","7669.845"
"2064","7746.17"
"2065","7784.352"
"2066","7785.07"
"2067","7786.116"
"2068","7797.285"
"2069","7782.056"
"2070","7711.369"
"2071","7615.249"
"2072","7541.269"
"2073","7516.891"
"2074","7551.224"
"2075","7636.56"
"2076","7723.729"
"2077","7763.432"
"2078","7761.019"
"2079","7748.489"
"2080","7746.298"
"2081","7758.99"
"2082","7779.914"
"2083","7762.861"
"2084","7658.099"
"2085","7501.768"
"2086","7391.277"
"2087","7379.97"
"2088","7433.129"
"2089","7506.378"
"2090","7558.454"
"2091","7550.842"
"2092","7484.857"
"2093","7400.852"
"2094","7330.232"
"2095","7276.025"
"2096","7238.435"
"2097","7232.204"
"2098","7278.376"
"2099","7368.919"
"2100","7458.689"
"2101","7505.53"
"2102","7486.685"
"2103","7389.659"
"2104","7268.316"
"2105","7216.468"
"2106","7267.161"
"2107","7356.474"
"2108","7418.567"
"2109","7417.611"
"2110","7330.859"
"2111","7205.855"
"2112","7141.414"
"2113","7175.808"
"2114","7232.121"
"2115","7234.206"
"2116","7176.078"
"2117","7076.993"
"2118","7002.429"
"2119","7055.975"
"2120","7240.309"
"2121","7344.383"
"2122","7191.019"
"2123","6955.92"
"2124","6926.274"
"2125","7099.7"
"2126","7212.431"
"2127","7125.837"
"2128","7002.723"
"2129","7009.476"
"2130","7083.614"
"2131","7083.167"
"2132","6997.813"
"2133","6939.527"
"2134","6960.336"
"2135","6965.877"
"2136","6865.532"
"2137","6714.216"
"2138","6618.073"
"2139","6620.282"
"2140","6706.553"
"2141","6842.093"
"2142","6952.357"
"2143","6973.474"
"2144","6932.92"
"2145","6888.1"
"2146","6857.498"
"2147","6826.586"
"2148","6781.719"
"2149","6713.132"
"2150","6619.62"
"2151","6540.571"
"2152","6524.41"
"2153","6564.786"
"2154","6614.343"
"2155","6642.591"
"2156","6649.903"
"2157","6637.686"
"2158","6598.964"
"2159","6528.357"
"2160","6463.509"
"2161","6468.21"
"2162","6547.518"
"2163","6622.184"
"2164","6634.113"
"2165","6618.267"
"2166","6622.077"
"2167","6632.461"
"2168","6606.72"
"2169","6533.879"
"2170","6439.026"
"2171","6352.799"
"2172","6314.738"
"2173","6354.149"
"2174","6427.732"
"2175","6467.04"
"2176","6451.036"
"2177","6399.173"
"2178","6332.869"
"2179","6274.68"
"2180","6245.756"
"2181","6260.231"
"2182","6325.353"
"2183","6394.002"
"2184","6387.509"
"2185","6298.994"
"2186","6215.734"
"2187","6192.682"
"2188","6173.928"
"2189","6101.021"
"2190","6031.475"
"2191","6063.962"
"2192","6171.59"
"2193","6217.379"
"2194","6144.913"
"2195","6053.564"
"2196","6034.865"
"2197","6077.983"
"2198","6143.017"
"2199","6163.206"
"2200","6059.966"
"2201","5862.611"
"2202","5725.914"
"2203","5735.243"
"2204","5790.099"
"2205","5788.863"
"2206","5774.289"
"2207","5827.012"
"2208","5888.165"
"2209","5804.117"
"2210","5594.714"
"2211","5527.96"
"2212","5750.81"
"2213","5998.542"
"2214","5988.578"
"2215","5814.106"
"2216","5706.793"
"2217","5720.435"
"2218","5765.806"
"2219","5782.408"
"2220","5761.896"
"2221","5707.724"
"2222","5646.74"
"2223","5607.326"
"2224","5594.481"
"2225","5603.204"
"2226","5628.613"
"2227","5665.545"
"2228","5679.596"
"2229","5588.715"
"2230","5368.309"
"2231","5197.466"
"2232","5253.729"
"2233","5409.138"
"2234","5421.612"
"2235","5312.708"
"2236","5318.14"
"2237","5487.598"
"2238","5571.704"
"2239","5413.801"
"2240","5218.903"
"2241","5208.392"
"2242","5275.014"
"2243","5204.42"
"2244","5055.557"
"2245","5082.85"
"2246","5290.863"
"2247","5338.327"
"2248","5054.207"
"2249","4769.887"
"2250","4803.921"
"2251","4997.955"
"2252","5065.877"
"2253","4982.608"
"2254","4878.471"
"2255","4811.776"
"2256","4759.166"
"2257","4705.421"
"2258","4660.116"
"2259","4629.138"
"2260","4592.919"
"2261","4534.653"
"2262","4504.564"
"2263","4574.122"
"2264","4657.527"
"2265","4542.977"
"2266","4217.961"
"2267","3966.171"
"2268","3970.094"
"2269","4081.425"
"2270","4130.952"
"2271","4116.845"
"2272","4083.553"
"2273","4019.487"
"2274","3884.8"
"2275","3718.695"
"2276","3637.765"
"2277","3669.494"
"2278","3682.908"
"2279","3584.007"
"2280","3440.564"
"2281","3336.948"
"2282","3275.569"
"2283","3232.938"
"2284","3216.875"
"2285","3252.057"
"2286","3300.06"
"2287","3256.742"
"2288","3091.863"
"2289","2912.269"
"2290","2814.966"
"2291","2821.624"
"2292","2918.379"
"2293","2974.379"
"2294","2839.901"
"2295","2596.43"
"2296","2455.903"
"2297","2459.377"
"2298","2477.863"
"2299","2431.262"
"2300","2331.337"
