,"Scan 01188"
"400","12548.34"
"401","12545.94"
"402","12525.6"
"403","12482.96"
"404","12426.39"
"405","12368.37"
"406","12321.26"
"407","12295.9"
"408","12291.24"
"409","12300.57"
"410","12317.15"
"411","12334.54"
"412","12349"
"413","12358.72"
"414","12361.94"
"415","12357.13"
"416","12347.8"
"417","12342.39"
"418","12349.42"
"419","12377.21"
"420","12424.62"
"421","12477.92"
"422","12522.58"
"423","12544.23"
"424","12536.37"
"425","12506.83"
"426","12464.95"
"427","12419.98"
"428","12378.77"
"429","12342.27"
"430","12310.51"
"431","12283.55"
"432","12261.57"
"433","12245.32"
"434","12235.63"
"435","12233.36"
"436","12238.38"
"437","12246.25"
"438","12251.34"
"439","12248.08"
"440","12232.82"
"441","12213.44"
"442","12201.96"
"443","12210.38"
"444","12247.91"
"445","12303.07"
"446","12354.78"
"447","12382"
"448","12366.06"
"449","12310.67"
"450","12232.45"
"451","12148.05"
"452","12073.45"
"453","12016.57"
"454","11979.75"
"455","11965.2"
"456","11974.52"
"457","11999.56"
"458","12024.03"
"459","12031.52"
"460","12006.58"
"461","11952.73"
"462","11891.94"
"463","11846.8"
"464","11838.98"
"465","11867.61"
"466","11906.64"
"467","11928.86"
"468","11907.89"
"469","11841.66"
"470","11758.83"
"471","11689.85"
"472","11664.51"
"473","11688.55"
"474","11733.94"
"475","11770.26"
"476","11767.68"
"477","11720.25"
"478","11658.92"
"479","11617.62"
"480","11629.74"
"481","11702.52"
"482","11799.53"
"483","11880.4"
"484","11905.27"
"485","11859.25"
"486","11771.71"
"487","11676.42"
"488","11606.82"
"489","11579.7"
"490","11581.02"
"491","11593.43"
"492","11599.74"
"493","11590.13"
"494","11568.81"
"495","11541.58"
"496","11514.16"
"497","11488.21"
"498","11457.47"
"499","11414.78"
"500","11353.12"
"501","11272.9"
"502","11189.09"
"503","11118.23"
"504","11076.68"
"505","11070.4"
"506","11085.45"
"507","11105.73"
"508","11115.29"
"509","11104.36"
"510","11074.57"
"511","11028.74"
"512","10969.69"
"513","10901.71"
"514","10831.57"
"515","10766.29"
"516","10712.82"
"517","10674.83"
"518","10650.67"
"519","10638.22"
"520","10635.33"
"521","10639.19"
"522","10646.02"
"523","10651.93"
"524","10653.14"
"525","10648.46"
"526","10640.32"
"527","10631.44"
"528","10624.39"
"529","10618.43"
"530","10608.68"
"531","10590.03"
"532","10557.62"
"533","10513.95"
"534","10469.56"
"535","10435.36"
"536","10421.7"
"537","10427.76"
"538","10442.02"
"539","10452.57"
"540","10448.1"
"541","10426.17"
"542","10391.67"
"543","10349.69"
"544","10305.34"
"545","10263.99"
"546","10231.18"
"547","10212.47"
"548","10212.62"
"549","10228.89"
"550","10254.15"
"551","10281.27"
"552","10303.57"
"553","10317.91"
"554","10322.82"
"555","10316.84"
"556","10299.25"
"557","10273.88"
"558","10246.25"
"559","10221.85"
"560","10204.69"
"561","10191.76"
"562","10177.94"
"563","10158.19"
"564","10130.33"
"565","10102.67"
"566","10085.85"
"567","10090.46"
"568","10121.14"
"569","10166.35"
"570","10211.89"
"571","10243.64"
"572","10252.72"
"573","10240.86"
"574","10211.11"
"575","10166.52"
"576","10111.78"
"577","10054.08"
"578","10000.82"
"579","9959.268"
"580","9934.278"
"581","9927.968"
"582","9942.281"
"583","9978.635"
"584","10029.17"
"585","10078.28"
"586","10110.15"
"587","10110.63"
"588","10082.77"
"589","10040.1"
"590","9996.221"
"591","9963.33"
"592","9944.001"
"593","9936.681"
"594","9939.811"
"595","9951.103"
"596","9964.84"
"597","9974.328"
"598","9972.898"
"599","9957.316"
"600","9934.959"
"601","9915.232"
"602","9907.47"
"603","9916.189"
"604","9936.005"
"605","9960.327"
"606","9982.634"
"607","9998.301"
"608","10005.32"
"609","10001.89"
"610","9986.447"
"611","9962.23"
"612","9936.943"
"613","9918.423"
"614","9913.691"
"615","9921.142"
"616","9933.899"
"617","9945.04"
"618","9948.458"
"619","9943.146"
"620","9930.074"
"621","9910.211"
"622","9885.11"
"623","9858.542"
"624","9834.785"
"625","9818.104"
"626","9810.369"
"627","9807.987"
"628","9806.604"
"629","9801.941"
"630","9792.327"
"631","9779.784"
"632","9766.618"
"633","9755.135"
"634","9748.008"
"635","9748.223"
"636","9758.771"
"637","9781.708"
"638","9810.684"
"639","9834.855"
"640","9843.375"
"641","9828.912"
"642","9801.498"
"643","9776.527"
"644","9769.338"
"645","9787.129"
"646","9814.633"
"647","9832.771"
"648","9822.758"
"649","9780.688"
"650","9726.192"
"651","9680.921"
"652","9665.459"
"653","9680.297"
"654","9707.441"
"655","9728.255"
"656","9726.245"
"657","9703.591"
"658","9672.294"
"659","9644.406"
"660","9630.063"
"661","9630.761"
"662","9645.552"
"663","9673.478"
"664","9711.259"
"665","9750.072"
"666","9780.313"
"667","9792.61"
"668","9785.78"
"669","9769.222"
"670","9753.012"
"671","9746.414"
"672","9748.261"
"673","9749.972"
"674","9742.838"
"675","9720.006"
"676","9685.821"
"677","9648.798"
"678","9617.433"
"679","9598.201"
"680","9591.64"
"681","9597.193"
"682","9614.272"
"683","9639.987"
"684","9668.005"
"685","9691.716"
"686","9704.943"
"687","9707.963"
"688","9706.133"
"689","9704.936"
"690","9709.22"
"691","9719.817"
"692","9735.941"
"693","9756.816"
"694","9779.976"
"695","9797.886"
"696","9802.097"
"697","9784.382"
"698","9747.24"
"699","9708.779"
"700","9688.295"
"701","9703.191"
"702","9745.316"
"703","9787.932"
"704","9803.93"
"705","9773.229"
"706","9714.758"
"707","9660.948"
"708","9644.131"
"709","9680.508"
"710","9746.274"
"711","9811.568"
"712","9847.184"
"713","9842.666"
"714","9809.53"
"715","9760.521"
"716","9708.151"
"717","9662.89"
"718","9634.057"
"719","9630.936"
"720","9658.411"
"721","9704.04"
"722","9751.123"
"723","9783.089"
"724","9790.918"
"725","9778.59"
"726","9751.364"
"727","9714.645"
"728","9676.371"
"729","9646.481"
"730","9634.96"
"731","9649.415"
"732","9684.08"
"733","9728.48"
"734","9772.161"
"735","9805.838"
"736","9822.927"
"737","9817.229"
"738","9783.135"
"739","9728.979"
"740","9677.351"
"741","9651.456"
"742","9670.448"
"743","9723.707"
"744","9787.295"
"745","9837.255"
"746","9857.618"
"747","9855.207"
"748","9840.875"
"749","9825.322"
"750","9814.584"
"751","9809.108"
"752","9809.014"
"753","9814.406"
"754","9825.296"
"755","9841.646"
"756","9863.419"
"757","9889.583"
"758","9915.93"
"759","9937.622"
"760","9949.92"
"761","9951.287"
"762","9944.31"
"763","9931.848"
"764","9916.898"
"765","9903.829"
"766","9897.728"
"767","9903.682"
"768","9923.239"
"769","9946.521"
"770","9961.374"
"771","9956.007"
"772","9931.524"
"773","9905.236"
"774","9895.462"
"775","9918.053"
"776","9967.908"
"777","10029.31"
"778","10086.48"
"779","10127.61"
"780","10152.65"
"781","10163.66"
"782","10162.8"
"783","10154.4"
"784","10145.33"
"785","10142.53"
"786","10151.73"
"787","10169.78"
"788","10189.61"
"789","10204.16"
"790","10208.79"
"791","10204.78"
"792","10194.32"
"793","10179.64"
"794","10164.21"
"795","10152.6"
"796","10149.46"
"797","10158.12"
"798","10174.83"
"799","10193.39"
"800","10207.64"
"801","10214.81"
"802","10218.65"
"803","10223.58"
"804","10233.46"
"805","10244.71"
"806","10248.44"
"807","10235.66"
"808","10202"
"809","10161.24"
"810","10131.59"
"811","10130.91"
"812","10162.77"
"813","10211.48"
"814","10259.96"
"815","10292.72"
"816","10307.11"
"817","10306.77"
"818","10295.42"
"819","10278.82"
"820","10268.12"
"821","10275.27"
"822","10311.35"
"823","10370.42"
"824","10431.28"
"825","10472.18"
"826","10476.46"
"827","10452.27"
"828","10415.35"
"829","10381.33"
"830","10359.17"
"831","10347.33"
"832","10343.36"
"833","10345.09"
"834","10353.21"
"835","10369.98"
"836","10397.67"
"837","10435.19"
"838","10472.13"
"839","10496.53"
"840","10497.07"
"841","10475.38"
"842","10445.03"
"843","10420.05"
"844","10410.88"
"845","10410.64"
"846","10407.28"
"847","10388.96"
"848","10356.19"
"849","10327.87"
"850","10324.35"
"851","10362.44"
"852","10429.27"
"853","10497.16"
"854","10538.41"
"855","10536.68"
"856","10502.63"
"857","10450.79"
"858","10395.63"
"859","10350.22"
"860","10326.61"
"861","10336.82"
"862","10387.01"
"863","10461.44"
"864","10539.23"
"865","10599.89"
"866","10634.93"
"867","10649.64"
"868","10650.1"
"869","10642.61"
"870","10634.81"
"871","10634.87"
"872","10650.83"
"873","10683.02"
"874","10718.92"
"875","10744.75"
"876","10748.8"
"877","10737.73"
"878","10727.95"
"879","10735.89"
"880","10767.76"
"881","10805.26"
"882","10826.54"
"883","10811.59"
"884","10766.55"
"885","10716.83"
"886","10688.3"
"887","10697.82"
"888","10732.02"
"889","10771.17"
"890","10796.29"
"891","10804.88"
"892","10810.86"
"893","10828.82"
"894","10868.68"
"895","10918.65"
"896","10960.63"
"897","10976.94"
"898","10965.4"
"899","10943.95"
"900","10931.89"
"901","10944.92"
"902","10976.35"
"903","11010.91"
"904","11033.41"
"905","11037.9"
"906","11033.73"
"907","11031.63"
"908","11040.96"
"909","11059.33"
"910","11078.63"
"911","11090.73"
"912","11092.17"
"913","11089.17"
"914","11089.12"
"915","11098.54"
"916","11114.21"
"917","11127.06"
"918","11127.94"
"919","11111.7"
"920","11083.32"
"921","11049.35"
"922","11016.43"
"923","10992.59"
"924","10986.9"
"925","11008.39"
"926","11059.71"
"927","11124.04"
"928","11180.91"
"929","11210.82"
"930","11211.5"
"931","11195.07"
"932","11174.13"
"933","11157.87"
"934","11143.48"
"935","11125.51"
"936","11098.98"
"937","11069.46"
"938","11052.51"
"939","11064.07"
"940","11112.54"
"941","11175.9"
"942","11224.5"
"943","11229.82"
"944","11192.61"
"945","11144.4"
"946","11118.21"
"947","11137.64"
"948","11184.56"
"949","11229.15"
"950","11242.39"
"951","11217.37"
"952","11172.41"
"953","11127.19"
"954","11098.08"
"955","11085.43"
"956","11084.79"
"957","11091.77"
"958","11103.69"
"959","11119.91"
"960","11139.92"
"961","11162.32"
"962","11181.07"
"963","11188.72"
"964","11178.04"
"965","11150.6"
"966","11118.91"
"967","11096.18"
"968","11092.79"
"969","11104.29"
"970","11121.5"
"971","11135.31"
"972","11140.86"
"973","11138.64"
"974","11129.5"
"975","11114.02"
"976","11091.55"
"977","11061.04"
"978","11021.65"
"979","10980.36"
"980","10953.9"
"981","10959.65"
"982","11009.07"
"983","11083.6"
"984","11155.12"
"985","11196.04"
"986","11196.96"
"987","11170.56"
"988","11130.89"
"989","11090.81"
"990","11057.44"
"991","11036.14"
"992","11032.13"
"993","11045.9"
"994","11072.43"
"995","11106.41"
"996","11142.57"
"997","11175.93"
"998","11201.56"
"999","11214.8"
"1000","11217.19"
"1001","11217.06"
"1002","11223.09"
"1003","11241.32"
"1004","11266.82"
"1005","11291.78"
"1006","11308.39"
"1007","11312.86"
"1008","11311.47"
"1009","11312.08"
"1010","11321.39"
"1011","11334.35"
"1012","11338.92"
"1013","11323.09"
"1014","11286.15"
"1015","11249.74"
"1016","11238.12"
"1017","11270.97"
"1018","11333.44"
"1019","11394.94"
"1020","11425.17"
"1021","11415.59"
"1022","11390.1"
"1023","11375.29"
"1024","11392.22"
"1025","11432.17"
"1026","11476.48"
"1027","11506.93"
"1028","11516.91"
"1029","11512.67"
"1030","11501.09"
"1031","11487.93"
"1032","11474.61"
"1033","11461.59"
"1034","11449.55"
"1035","11442.6"
"1036","11447.57"
"1037","11471.34"
"1038","11515.46"
"1039","11568.3"
"1040","11616.23"
"1041","11646.98"
"1042","11660.86"
"1043","11664.81"
"1044","11665.82"
"1045","11666.54"
"1046","11662.62"
"1047","11649.09"
"1048","11624.08"
"1049","11602.87"
"1050","11606.54"
"1051","11655.04"
"1052","11739.65"
"1053","11821.55"
"1054","11860.48"
"1055","11832.11"
"1056","11763.83"
"1057","11693.46"
"1058","11656.41"
"1059","11658.83"
"1060","11687.79"
"1061","11730.04"
"1062","11774.69"
"1063","11815.26"
"1064","11845.78"
"1065","11861.45"
"1066","11864.71"
"1067","11860.8"
"1068","11854.87"
"1069","11850.22"
"1070","11848.07"
"1071","11849.53"
"1072","11855.45"
"1073","11865.86"
"1074","11880.63"
"1075","11899.02"
"1076","11913.76"
"1077","11913.46"
"1078","11886.79"
"1079","11835.28"
"1080","11782.94"
"1081","11756.07"
"1082","11773.84"
"1083","11817.26"
"1084","11854.74"
"1085","11856.17"
"1086","11823.46"
"1087","11788.43"
"1088","11784.03"
"1089","11827.17"
"1090","11893.33"
"1091","11951.34"
"1092","11973.57"
"1093","11960.33"
"1094","11925.3"
"1095","11882.24"
"1096","11843.24"
"1097","11818.27"
"1098","11817.18"
"1099","11842.89"
"1100","11873.81"
"1101","11882.96"
"1102","11846.6"
"1103","11777.47"
"1104","11711.08"
"1105","11682.93"
"1106","11703.85"
"1107","11745.07"
"1108","11774.25"
"1109","11767.77"
"1110","11740.92"
"1111","11719.78"
"1112","11728.71"
"1113","11767.19"
"1114","11816.18"
"1115","11856.28"
"1116","11875.42"
"1117","11875.25"
"1118","11858.92"
"1119","11830.65"
"1120","11800.23"
"1121","11779.14"
"1122","11778.12"
"1123","11794.83"
"1124","11816.3"
"1125","11829.3"
"1126","11828.94"
"1127","11826.9"
"1128","11836.82"
"1129","11867.55"
"1130","11902.54"
"1131","11916.82"
"1132","11887.27"
"1133","11820.95"
"1134","11749.71"
"1135","11705.99"
"1136","11703.87"
"1137","11721.65"
"1138","11733.46"
"1139","11719.83"
"1140","11693.25"
"1141","11676.26"
"1142","11689.72"
"1143","11729.7"
"1144","11773.37"
"1145","11797.58"
"1146","11792.67"
"1147","11772.67"
"1148","11754.04"
"1149","11749.93"
"1150","11759.21"
"1151","11776.9"
"1152","11798.26"
"1153","11821.7"
"1154","11847.65"
"1155","11876.53"
"1156","11905.41"
"1157","11926.6"
"1158","11931.98"
"1159","11917.64"
"1160","11894.04"
"1161","11874.67"
"1162","11871.64"
"1163","11885.06"
"1164","11908.92"
"1165","11937.21"
"1166","11965.26"
"1167","11989.94"
"1168","12008.18"
"1169","12016.37"
"1170","12009.49"
"1171","11982.32"
"1172","11933.18"
"1173","11880.98"
"1174","11852.1"
"1175","11870.78"
"1176","11926.77"
"1177","11982.54"
"1178","12000.09"
"1179","11969.06"
"1180","11925.1"
"1181","11908.26"
"1182","11943.53"
"1183","12000.08"
"1184","12034.24"
"1185","12008.52"
"1186","11939.47"
"1187","11871.46"
"1188","11847.74"
"1189","11877.08"
"1190","11931.73"
"1191","11982.21"
"1192","12010.98"
"1193","12026.42"
"1194","12040.33"
"1195","12062.11"
"1196","12089.79"
"1197","12118.03"
"1198","12141.29"
"1199","12151.82"
"1200","12140.52"
"1201","12098.78"
"1202","12035.81"
"1203","11982.65"
"1204","11971.63"
"1205","12017"
"1206","12088.56"
"1207","12149.43"
"1208","12170.03"
"1209","12158.68"
"1210","12135.94"
"1211","12121.13"
"1212","12119.11"
"1213","12125.31"
"1214","12135.13"
"1215","12147.73"
"1216","12166.88"
"1217","12196.63"
"1218","12235.16"
"1219","12266.77"
"1220","12273.75"
"1221","12244.34"
"1222","12195.38"
"1223","12152.32"
"1224","12138.25"
"1225","12152.45"
"1226","12180.27"
"1227","12207.04"
"1228","12222.52"
"1229","12221.21"
"1230","12197.92"
"1231","12155.68"
"1232","12113.84"
"1233","12093.68"
"1234","12110.3"
"1235","12155.41"
"1236","12215.21"
"1237","12276.31"
"1238","12328.62"
"1239","12363.56"
"1240","12373.32"
"1241","12362.89"
"1242","12347.69"
"1243","12343.23"
"1244","12354.73"
"1245","12372.62"
"1246","12386.17"
"1247","12388.6"
"1248","12383.28"
"1249","12375.15"
"1250","12368.92"
"1251","12368.29"
"1252","12376.61"
"1253","12395.86"
"1254","12415.58"
"1255","12418.59"
"1256","12388.99"
"1257","12336.04"
"1258","12292.07"
"1259","12289.82"
"1260","12337.36"
"1261","12404.84"
"1262","12459.17"
"1263","12479.22"
"1264","12475.38"
"1265","12463.23"
"1266","12456.25"
"1267","12458.38"
"1268","12470.77"
"1269","12493.64"
"1270","12519.51"
"1271","12537.03"
"1272","12535.42"
"1273","12513.66"
"1274","12478.74"
"1275","12437.99"
"1276","12402.11"
"1277","12386.19"
"1278","12405.6"
"1279","12460.73"
"1280","12520.04"
"1281","12547.79"
"1282","12520.75"
"1283","12460.2"
"1284","12397.34"
"1285","12358.83"
"1286","12344.25"
"1287","12343.11"
"1288","12345.73"
"1289","12350.75"
"1290","12361.81"
"1291","12382.08"
"1292","12404.95"
"1293","12414.78"
"1294","12396"
"1295","12351.05"
"1296","12307.75"
"1297","12295.78"
"1298","12329.81"
"1299","12392.04"
"1300","12460.42"
"1301","12514.89"
"1302","12542.22"
"1303","12530.61"
"1304","12474.44"
"1305","12401.25"
"1306","12349.66"
"1307","12353.16"
"1308","12400.77"
"1309","12458.82"
"1310","12495.02"
"1311","12500.37"
"1312","12483.46"
"1313","12453.41"
"1314","12422.6"
"1315","12406.95"
"1316","12422.33"
"1317","12467.13"
"1318","12512.09"
"1319","12525.58"
"1320","12494.72"
"1321","12449.81"
"1322","12427.27"
"1323","12449.82"
"1324","12493.94"
"1325","12526.33"
"1326","12520.54"
"1327","12484.59"
"1328","12437.21"
"1329","12396.47"
"1330","12375.28"
"1331","12384.22"
"1332","12431.62"
"1333","12500.17"
"1334","12556.5"
"1335","12568.78"
"1336","12538.37"
"1337","12495.27"
"1338","12469.77"
"1339","12470.25"
"1340","12479.5"
"1341","12478.97"
"1342","12459.9"
"1343","12429.08"
"1344","12394.65"
"1345","12365.37"
"1346","12351.28"
"1347","12362.59"
"1348","12401.21"
"1349","12444.84"
"1350","12466.84"
"1351","12449.56"
"1352","12411.04"
"1353","12378.12"
"1354","12372.72"
"1355","12390.36"
"1356","12417.75"
"1357","12441.73"
"1358","12450.23"
"1359","12431.68"
"1360","12377.28"
"1361","12306.08"
"1362","12253.09"
"1363","12250.58"
"1364","12290.34"
"1365","12334.56"
"1366","12346.48"
"1367","12323.44"
"1368","12294.19"
"1369","12287.71"
"1370","12305.38"
"1371","12316.82"
"1372","12290.53"
"1373","12225.97"
"1374","12166.65"
"1375","12159.07"
"1376","12214.53"
"1377","12282.61"
"1378","12306.74"
"1379","12262.85"
"1380","12196.96"
"1381","12164.22"
"1382","12195.25"
"1383","12255.64"
"1384","12300.32"
"1385","12299.58"
"1386","12273.56"
"1387","12252.49"
"1388","12257.81"
"1389","12276.38"
"1390","12286.52"
"1391","12272.16"
"1392","12244.18"
"1393","12221.43"
"1394","12219"
"1395","12230.53"
"1396","12242.06"
"1397","12241.62"
"1398","12230.91"
"1399","12217.33"
"1400","12207.22"
"1401","12198.15"
"1402","12183.44"
"1403","12157.82"
"1404","12129.6"
"1405","12114.62"
"1406","12127.06"
"1407","12161.34"
"1408","12199.42"
"1409","12223.9"
"1410","12228.44"
"1411","12214.45"
"1412","12184.05"
"1413","12147.29"
"1414","12120.46"
"1415","12119.15"
"1416","12142.71"
"1417","12176.45"
"1418","12205.38"
"1419","12218.79"
"1420","12209.95"
"1421","12173.09"
"1422","12120.39"
"1423","12082.6"
"1424","12090.27"
"1425","12144.19"
"1426","12212.16"
"1427","12260.84"
"1428","12276.68"
"1429","12269.49"
"1430","12250.56"
"1431","12234.73"
"1432","12241.31"
"1433","12289.28"
"1434","12372.36"
"1435","12451.01"
"1436","12484.11"
"1437","12462.16"
"1438","12419.05"
"1439","12391.41"
"1440","12393.79"
"1441","12409.42"
"1442","12419.32"
"1443","12414.27"
"1444","12399.18"
"1445","12380.12"
"1446","12362.47"
"1447","12350.65"
"1448","12348.93"
"1449","12358.17"
"1450","12374.09"
"1451","12391.94"
"1452","12405.17"
"1453","12404.46"
"1454","12380.48"
"1455","12336.35"
"1456","12293.57"
"1457","12274.81"
"1458","12283.15"
"1459","12293.16"
"1460","12277.51"
"1461","12229.16"
"1462","12170.02"
"1463","12123.94"
"1464","12100.72"
"1465","12090.83"
"1466","12083.32"
"1467","12068.47"
"1468","12038.15"
"1469","11984.68"
"1470","11911.52"
"1471","11836.35"
"1472","11777.53"
"1473","11747.35"
"1474","11750.68"
"1475","11791.29"
"1476","11853.06"
"1477","11897.47"
"1478","11886.36"
"1479","11821.84"
"1480","11748.08"
"1481","11709.5"
"1482","11711.87"
"1483","11723.56"
"1484","11713.01"
"1485","11678.57"
"1486","11645.13"
"1487","11636.71"
"1488","11648.84"
"1489","11654.02"
"1490","11626.58"
"1491","11575.25"
"1492","11533.71"
"1493","11532.66"
"1494","11560.63"
"1495","11578.85"
"1496","11553.11"
"1497","11499.54"
"1498","11463.22"
"1499","11483.17"
"1500","11544.05"
"1501","11603.12"
"1502","11623.5"
"1503","11611.69"
"1504","11593.1"
"1505","11588.51"
"1506","11590.29"
"1507","11580.17"
"1508","11544.67"
"1509","11494.64"
"1510","11448.58"
"1511","11422.09"
"1512","11418.47"
"1513","11437.76"
"1514","11476.49"
"1515","11518.86"
"1516","11546.42"
"1517","11546.28"
"1518","11521.63"
"1519","11478.51"
"1520","11425.91"
"1521","11379.69"
"1522","11356.64"
"1523","11362.95"
"1524","11384.58"
"1525","11405.22"
"1526","11410.79"
"1527","11390.68"
"1528","11335.17"
"1529","11255.29"
"1530","11188.38"
"1531","11171.95"
"1532","11205.52"
"1533","11249.6"
"1534","11265.14"
"1535","11249.78"
"1536","11231.32"
"1537","11235.76"
"1538","11257.54"
"1539","11270.43"
"1540","11252.21"
"1541","11218.28"
"1542","11203.28"
"1543","11234.83"
"1544","11294.83"
"1545","11347.19"
"1546","11362.7"
"1547","11345.25"
"1548","11308.56"
"1549","11266.66"
"1550","11234.57"
"1551","11227.53"
"1552","11250.8"
"1553","11283.48"
"1554","11300.59"
"1555","11292.8"
"1556","11281.32"
"1557","11290.46"
"1558","11323.32"
"1559","11352.1"
"1560","11347.47"
"1561","11303.13"
"1562","11237.8"
"1563","11171.17"
"1564","11117.66"
"1565","11087.44"
"1566","11088.67"
"1567","11109.89"
"1568","11128.03"
"1569","11123.02"
"1570","11096.82"
"1571","11060.76"
"1572","11025.86"
"1573","11001.61"
"1574","10997.02"
"1575","11015.88"
"1576","11044.9"
"1577","11067.32"
"1578","11071.93"
"1579","11060.08"
"1580","11034.92"
"1581","11004.69"
"1582","10985.67"
"1583","10994.28"
"1584","11030.8"
"1585","11077.75"
"1586","11117.08"
"1587","11136.17"
"1588","11126.62"
"1589","11082.99"
"1590","11025.78"
"1591","10989.24"
"1592","10999.41"
"1593","11034.91"
"1594","11057.59"
"1595","11041.57"
"1596","11006.05"
"1597","10980.48"
"1598","10982.13"
"1599","10999.35"
"1600","11016.38"
"1601","11025.41"
"1602","11030.95"
"1603","11038.37"
"1604","11047.09"
"1605","11050.39"
"1606","11041.79"
"1607","11021.89"
"1608","10996.13"
"1609","10970.93"
"1610","10959.08"
"1611","10976.2"
"1612","11029.81"
"1613","11091.58"
"1614","11123.29"
"1615","11106.09"
"1616","11073.55"
"1617","11067.69"
"1618","11104.05"
"1619","11153.56"
"1620","11183.47"
"1621","11178.64"
"1622","11142.75"
"1623","11081.56"
"1624","11015.15"
"1625","10973.28"
"1626","10980.66"
"1627","11026.36"
"1628","11084.6"
"1629","11132.27"
"1630","11157.07"
"1631","11149.34"
"1632","11108.49"
"1633","11054.71"
"1634","11010.86"
"1635","10987.9"
"1636","10980.38"
"1637","10981.66"
"1638","10985.4"
"1639","10985.52"
"1640","10977.71"
"1641","10972.64"
"1642","10988.56"
"1643","11035.49"
"1644","11085.27"
"1645","11098.72"
"1646","11059.19"
"1647","11007.94"
"1648","10994.79"
"1649","11032.3"
"1650","11077.79"
"1651","11086.43"
"1652","11056.24"
"1653","11022.49"
"1654","11018.29"
"1655","11047.21"
"1656","11098.01"
"1657","11156.81"
"1658","11198.55"
"1659","11195.15"
"1660","11138.34"
"1661","11066.67"
"1662","11024.73"
"1663","11025.31"
"1664","11039.27"
"1665","11036.38"
"1666","11012.11"
"1667","10981.16"
"1668","10956.81"
"1669","10939.69"
"1670","10925.27"
"1671","10913"
"1672","10916.12"
"1673","10950.51"
"1674","11005.54"
"1675","11023.12"
"1676","10943.73"
"1677","10787.48"
"1678","10652.41"
"1679","10627.64"
"1680","10691.07"
"1681","10761.58"
"1682","10775.67"
"1683","10748.79"
"1684","10717.71"
"1685","10702.4"
"1686","10686.24"
"1687","10648.64"
"1688","10593.57"
"1689","10552.95"
"1690","10555.47"
"1691","10578.52"
"1692","10568.5"
"1693","10489.44"
"1694","10392.99"
"1695","10357.2"
"1696","10415.69"
"1697","10498.45"
"1698","10522.75"
"1699","10474.48"
"1700","10420.86"
"1701","10426.88"
"1702","10481.14"
"1703","10525.77"
"1704","10516.12"
"1705","10473.55"
"1706","10438.89"
"1707","10438.12"
"1708","10464.26"
"1709","10505.77"
"1710","10546.46"
"1711","10565.12"
"1712","10543"
"1713","10487.2"
"1714","10418.93"
"1715","10358.46"
"1716","10321.38"
"1717","10321.94"
"1718","10355.09"
"1719","10379.87"
"1720","10354"
"1721","10287.87"
"1722","10239.63"
"1723","10258.58"
"1724","10318.36"
"1725","10359.89"
"1726","10344.15"
"1727","10294.02"
"1728","10243.91"
"1729","10214.07"
"1730","10204.93"
"1731","10215.06"
"1732","10238.48"
"1733","10266.15"
"1734","10289.14"
"1735","10299.36"
"1736","10288.99"
"1737","10259.11"
"1738","10229.01"
"1739","10219.46"
"1740","10234.1"
"1741","10260.34"
"1742","10285.28"
"1743","10298.66"
"1744","10291.37"
"1745","10262.32"
"1746","10233.61"
"1747","10230.83"
"1748","10255.83"
"1749","10280.46"
"1750","10277.47"
"1751","10248.55"
"1752","10211.86"
"1753","10184.64"
"1754","10179.7"
"1755","10208.52"
"1756","10262.6"
"1757","10301.68"
"1758","10286.94"
"1759","10235.77"
"1760","10205.06"
"1761","10235.71"
"1762","10289.58"
"1763","10305.72"
"1764","10257.65"
"1765","10183.66"
"1766","10127.45"
"1767","10104.5"
"1768","10107.46"
"1769","10127.04"
"1770","10147.15"
"1771","10149.46"
"1772","10129.83"
"1773","10113.56"
"1774","10128.27"
"1775","10176.17"
"1776","10237.23"
"1777","10290.92"
"1778","10318.33"
"1779","10301.15"
"1780","10235.52"
"1781","10148.77"
"1782","10071.78"
"1783","10024.82"
"1784","10018.73"
"1785","10058.31"
"1786","10115.66"
"1787","10151.33"
"1788","10146.01"
"1789","10122.72"
"1790","10108.75"
"1791","10111.66"
"1792","10122.33"
"1793","10131.75"
"1794","10134.48"
"1795","10126.29"
"1796","10108.51"
"1797","10093.13"
"1798","10092.36"
"1799","10103.64"
"1800","10113.19"
"1801","10107.91"
"1802","10079.42"
"1803","10020.91"
"1804","9945.835"
"1805","9900.835"
"1806","9930.504"
"1807","10019.17"
"1808","10112.53"
"1809","10166.4"
"1810","10176.45"
"1811","10147.73"
"1812","10096.97"
"1813","10056.34"
"1814","10054.02"
"1815","10074.42"
"1816","10079.85"
"1817","10048.67"
"1818","10004.05"
"1819","9976.119"
"1820","9976.835"
"1821","9999.743"
"1822","10035.55"
"1823","10063.01"
"1824","10056.53"
"1825","10007.25"
"1826","9939.285"
"1827","9879.554"
"1828","9839.655"
"1829","9820.073"
"1830","9821.484"
"1831","9846.266"
"1832","9896.731"
"1833","9954.584"
"1834","9973.826"
"1835","9917.095"
"1836","9833.286"
"1837","9812.978"
"1838","9895.589"
"1839","9992.231"
"1840","9999.863"
"1841","9919.709"
"1842","9844.059"
"1843","9846.284"
"1844","9895.405"
"1845","9930.256"
"1846","9922.66"
"1847","9894.517"
"1848","9870.7"
"1849","9864.653"
"1850","9883.788"
"1851","9927.641"
"1852","9975.128"
"1853","10002.4"
"1854","9997.886"
"1855","9960.92"
"1856","9897.981"
"1857","9846.718"
"1858","9852.959"
"1859","9915.669"
"1860","9966.148"
"1861","9942.167"
"1862","9878.165"
"1863","9855.424"
"1864","9912.335"
"1865","9986.583"
"1866","10005.56"
"1867","9958.627"
"1868","9882.705"
"1869","9812.664"
"1870","9770.765"
"1871","9775.739"
"1872","9826.887"
"1873","9900.855"
"1874","9971.747"
"1875","10006.45"
"1876","9969.598"
"1877","9868.88"
"1878","9786.607"
"1879","9801.527"
"1880","9884.382"
"1881","9945.636"
"1882","9928.1"
"1883","9859.43"
"1884","9780.199"
"1885","9722.53"
"1886","9711.821"
"1887","9759.27"
"1888","9823.484"
"1889","9852.286"
"1890","9839.623"
"1891","9830.616"
"1892","9858.827"
"1893","9880.83"
"1894","9828.601"
"1895","9705.385"
"1896","9621.472"
"1897","9674.771"
"1898","9800.008"
"1899","9857.444"
"1900","9785.465"
"1901","9679.456"
"1902","9644.487"
"1903","9687.241"
"1904","9754.984"
"1905","9803.561"
"1906","9813.654"
"1907","9772.555"
"1908","9707.169"
"1909","9674.895"
"1910","9712.962"
"1911","9788.025"
"1912","9853.119"
"1913","9887.607"
"1914","9895.861"
"1915","9882.825"
"1916","9851.686"
"1917","9805.5"
"1918","9756.79"
"1919","9728.887"
"1920","9738.291"
"1921","9763.169"
"1922","9769.946"
"1923","9749.528"
"1924","9725.71"
"1925","9720.285"
"1926","9728.406"
"1927","9735.345"
"1928","9736.476"
"1929","9742.752"
"1930","9763.244"
"1931","9784.169"
"1932","9782.021"
"1933","9746.444"
"1934","9689.811"
"1935","9627.936"
"1936","9585.693"
"1937","9592.117"
"1938","9649.389"
"1939","9709.193"
"1940","9722.425"
"1941","9682.913"
"1942","9606.729"
"1943","9526.82"
"1944","9509.343"
"1945","9610.749"
"1946","9759.682"
"1947","9815.978"
"1948","9717.554"
"1949","9565.842"
"1950","9473.456"
"1951","9463.303"
"1952","9508.642"
"1953","9574.666"
"1954","9610.96"
"1955","9573.332"
"1956","9496.635"
"1957","9459.046"
"1958","9490.161"
"1959","9518.55"
"1960","9472.573"
"1961","9393.985"
"1962","9384.813"
"1963","9479.361"
"1964","9577.186"
"1965","9576.383"
"1966","9499.694"
"1967","9432.645"
"1968","9422.136"
"1969","9442.884"
"1970","9464.085"
"1971","9472.87"
"1972","9464.841"
"1973","9446.624"
"1974","9443.223"
"1975","9473.023"
"1976","9496.881"
"1977","9452.588"
"1978","9336.444"
"1979","9232.084"
"1980","9213.123"
"1981","9251.142"
"1982","9281.589"
"1983","9280.495"
"1984","9276.571"
"1985","9291.725"
"1986","9296.906"
"1987","9249.319"
"1988","9159.901"
"1989","9098.72"
"1990","9119.245"
"1991","9195.369"
"1992","9281.522"
"1993","9344.271"
"1994","9361.217"
"1995","9320.429"
"1996","9242.302"
"1997","9153.779"
"1998","9082.001"
"1999","9054.23"
"2000","9077.609"
"2001","9109.021"
"2002","9103.63"
"2003","9078.26"
"2004","9085.121"
"2005","9134.062"
"2006","9153.02"
"2007","9078.344"
"2008","8975.469"
"2009","8964.754"
"2010","9062.92"
"2011","9136.49"
"2012","9074.789"
"2013","8947.305"
"2014","8878.339"
"2015","8903.762"
"2016","8964.459"
"2017","9005.019"
"2018","9001.031"
"2019","8937.928"
"2020","8845.569"
"2021","8788.394"
"2022","8798.913"
"2023","8827.354"
"2024","8822.574"
"2025","8840.593"
"2026","8994.613"
"2027","9262.471"
"2028","9389.164"
"2029","9163.202"
"2030","8773.943"
"2031","8551.886"
"2032","8592.532"
"2033","8717.001"
"2034","8773.613"
"2035","8774.628"
"2036","8768.886"
"2037","8769.873"
"2038","8763.574"
"2039","8746.443"
"2040","8741.666"
"2041","8770.428"
"2042","8803.539"
"2043","8787.235"
"2044","8714.331"
"2045","8648.19"
"2046","8641.112"
"2047","8661.161"
"2048","8652.847"
"2049","8611.402"
"2050","8580.184"
"2051","8584.804"
"2052","8594.307"
"2053","8571.54"
"2054","8519.789"
"2055","8465.761"
"2056","8429.803"
"2057","8420.977"
"2058","8441.188"
"2059","8459.458"
"2060","8435.705"
"2061","8376.859"
"2062","8336.819"
"2063","8351.272"
"2064","8396.032"
"2065","8437.211"
"2066","8454.398"
"2067","8435.102"
"2068","8380.511"
"2069","8313.913"
"2070","8259.987"
"2071","8239.756"
"2072","8270.76"
"2073","8323.802"
"2074","8327.243"
"2075","8253.221"
"2076","8190.454"
"2077","8227.97"
"2078","8302.789"
"2079","8279.926"
"2080","8152.105"
"2081","8085.749"
"2082","8195.344"
"2083","8340.522"
"2084","8333.121"
"2085","8193.375"
"2086","8090.205"
"2087","8100.228"
"2088","8114.981"
"2089","8034.05"
"2090","7927.324"
"2091","7920.493"
"2092","8019.012"
"2093","8110.379"
"2094","8116.833"
"2095","8066.651"
"2096","8004.402"
"2097","7964.801"
"2098","7976.825"
"2099","8029.952"
"2100","8063.348"
"2101","8034.855"
"2102","7979.449"
"2103","7944.011"
"2104","7920.567"
"2105","7868.102"
"2106","7788.459"
"2107","7751.885"
"2108","7801.846"
"2109","7837.946"
"2110","7734.012"
"2111","7556.896"
"2112","7514.367"
"2113","7672.33"
"2114","7826.021"
"2115","7795.082"
"2116","7680.366"
"2117","7663.003"
"2118","7747.938"
"2119","7793.077"
"2120","7729.479"
"2121","7651.256"
"2122","7652.188"
"2123","7704.617"
"2124","7740.098"
"2125","7740.679"
"2126","7734.055"
"2127","7736.154"
"2128","7732.868"
"2129","7707.983"
"2130","7657.491"
"2131","7583.133"
"2132","7510.442"
"2133","7486.887"
"2134","7516.797"
"2135","7505.026"
"2136","7372.68"
"2137","7222.802"
"2138","7217.5"
"2139","7341.576"
"2140","7418.803"
"2141","7359.694"
"2142","7276.363"
"2143","7280.01"
"2144","7325.234"
"2145","7317"
"2146","7255.314"
"2147","7220.559"
"2148","7251.316"
"2149","7298.153"
"2150","7308.752"
"2151","7269.107"
"2152","7180.275"
"2153","7088.365"
"2154","7072.621"
"2155","7146.739"
"2156","7210.212"
"2157","7181.336"
"2158","7106.171"
"2159","7058.076"
"2160","7037.08"
"2161","6997.768"
"2162","6944.728"
"2163","6954.794"
"2164","7061.099"
"2165","7131.704"
"2166","7026.491"
"2167","6834.071"
"2168","6753.63"
"2169","6823.051"
"2170","6897.368"
"2171","6882.284"
"2172","6837.667"
"2173","6832.097"
"2174","6837.969"
"2175","6795.604"
"2176","6727.203"
"2177","6724.142"
"2178","6803.439"
"2179","6840.247"
"2180","6742.103"
"2181","6623.02"
"2182","6635.211"
"2183","6740.273"
"2184","6785.874"
"2185","6727.919"
"2186","6665.616"
"2187","6656.868"
"2188","6613.732"
"2189","6451.508"
"2190","6282.53"
"2191","6289.522"
"2192","6449.398"
"2193","6558.346"
"2194","6514.577"
"2195","6416.381"
"2196","6363.309"
"2197","6370.262"
"2198","6427.398"
"2199","6494.492"
"2200","6514.939"
"2201","6460.335"
"2202","6335.433"
"2203","6178.094"
"2204","6101.551"
"2205","6191.499"
"2206","6323.289"
"2207","6315.324"
"2208","6170.486"
"2209","6020.667"
"2210","5947.423"
"2211","5957.064"
"2212","6031.336"
"2213","6096.741"
"2214","6084.876"
"2215","6027.132"
"2216","5991.943"
"2217","6004.351"
"2218","6054.092"
"2219","6111.204"
"2220","6116.193"
"2221","6036.802"
"2222","5938.246"
"2223","5894.131"
"2224","5896.285"
"2225","5901.964"
"2226","5877.929"
"2227","5799.681"
"2228","5684.03"
"2229","5614.855"
"2230","5640.077"
"2231","5668.367"
"2232","5601.489"
"2233","5493.85"
"2234","5459.265"
"2235","5519.62"
"2236","5620.626"
"2237","5686.041"
"2238","5609.298"
"2239","5360.392"
"2240","5150.261"
"2241","5183.769"
"2242","5339.334"
"2243","5384.557"
"2244","5298.1"
"2245","5211.951"
"2246","5168.411"
"2247","5082.994"
"2248","4936.053"
"2249","4897.902"
"2250","5104.195"
"2251","5357.982"
"2252","5383.921"
"2253","5206.667"
"2254","5028.736"
"2255","4946.004"
"2256","4934.055"
"2257","4964.875"
"2258","5015.669"
"2259","5055.663"
"2260","5021.809"
"2261","4859.874"
"2262","4641.917"
"2263","4490.851"
"2264","4412.716"
"2265","4318.363"
"2266","4191.161"
"2267","4124.395"
"2268","4159.361"
"2269","4176.796"
"2270","4072.015"
"2271","3945.32"
"2272","3939.629"
"2273","3987.492"
"2274","3910.572"
"2275","3722.417"
"2276","3626.126"
"2277","3704.7"
"2278","3821.16"
"2279","3841.073"
"2280","3705.277"
"2281","3405.843"
"2282","3144.002"
"2283","3161.378"
"2284","3329.132"
"2285","3301.833"
"2286","3055.88"
"2287","2906.91"
"2288","2978.959"
"2289","3026.309"
"2290","2869.107"
"2291","2651.398"
"2292","2544.157"
"2293","2516.813"
"2294","2478.943"
"2295","2445.331"
"2296","2488.345"
"2297","2564.01"
"2298","2514.221"
"2299","2298.463"
"2300","2076.082"
