,"Scan 01123"
"400","10127.6"
"401","10127.18"
"402","10141.5"
"403","10170.08"
"404","10204.91"
"405","10235.61"
"406","10251.86"
"407","10244.93"
"408","10218.21"
"409","10180.94"
"410","10142.33"
"411","10111.08"
"412","10089.91"
"413","10077.41"
"414","10072.09"
"415","10072.37"
"416","10074.61"
"417","10073.11"
"418","10062.13"
"419","10036.16"
"420","9998.222"
"421","9962.788"
"422","9945.034"
"423","9959.9"
"424","10009.42"
"425","10071.94"
"426","10123.43"
"427","10140.04"
"428","10110.22"
"429","10052.93"
"430","9991.654"
"431","9949.722"
"432","9943.158"
"433","9963.674"
"434","9997.905"
"435","10032.59"
"436","10056.62"
"437","10068.24"
"438","10068.36"
"439","10057.9"
"440","10038.19"
"441","10013.28"
"442","9988.196"
"443","9967.913"
"444","9956.378"
"445","9949.7"
"446","9940.346"
"447","9920.803"
"448","9884.932"
"449","9839.902"
"450","9800.559"
"451","9781.734"
"452","9796.773"
"453","9840.581"
"454","9895.171"
"455","9942.404"
"456","9964.959"
"457","9957.377"
"458","9924.07"
"459","9869.732"
"460","9799.252"
"461","9722.415"
"462","9653.791"
"463","9608.048"
"464","9599.146"
"465","9623.215"
"466","9656.504"
"467","9674.352"
"468","9652.851"
"469","9590.441"
"470","9513.778"
"471","9451.182"
"472","9430.366"
"473","9459.074"
"474","9516.949"
"475","9581.631"
"476","9631.089"
"477","9655.083"
"478","9661.536"
"479","9659.879"
"480","9659.422"
"481","9663.549"
"482","9665.803"
"483","9658.815"
"484","9635.333"
"485","9594.361"
"486","9546.022"
"487","9501.534"
"488","9471.972"
"489","9461.372"
"490","9460.674"
"491","9459.427"
"492","9447.292"
"493","9419.006"
"494","9379.021"
"495","9332.868"
"496","9286.039"
"497","9242.905"
"498","9205.703"
"499","9176.403"
"500","9156.955"
"501","9147.893"
"502","9147"
"503","9151.763"
"504","9159.661"
"505","9166.713"
"506","9166.132"
"507","9150.842"
"508","9113.87"
"509","9054.731"
"510","8984.903"
"511","8917.104"
"512","8863.911"
"513","8831.642"
"514","8815.664"
"515","8810.244"
"516","8809.704"
"517","8809.242"
"518","8805.498"
"519","8795.258"
"520","8775.398"
"521","8746.494"
"522","8714.772"
"523","8686.901"
"524","8669.419"
"525","8664.458"
"526","8668.051"
"527","8675.799"
"528","8683.356"
"529","8687.45"
"530","8686.12"
"531","8677.509"
"532","8659.861"
"533","8634.269"
"534","8604.956"
"535","8576.28"
"536","8552.496"
"537","8535.963"
"538","8527.222"
"539","8526.738"
"540","8534.655"
"541","8545.75"
"542","8550.366"
"543","8538.764"
"544","8502.313"
"545","8446.378"
"546","8386.122"
"547","8336.826"
"548","8312.241"
"549","8311.073"
"550","8323.283"
"551","8338.762"
"552","8348.309"
"553","8349.515"
"554","8343.217"
"555","8330.266"
"556","8312.096"
"557","8293.778"
"558","8281.748"
"559","8282.405"
"560","8299.85"
"561","8327.305"
"562","8354.796"
"563","8372.396"
"564","8373.197"
"565","8361.086"
"566","8342.368"
"567","8323.327"
"568","8308.943"
"569","8300.702"
"570","8299.494"
"571","8306.186"
"572","8318.267"
"573","8326.3"
"574","8320.044"
"575","8289.472"
"576","8234.458"
"577","8170.053"
"578","8112.535"
"579","8077.729"
"580","8070.127"
"581","8081.3"
"582","8102.138"
"583","8123.877"
"584","8142.893"
"585","8159.891"
"586","8175.705"
"587","8190.991"
"588","8204.443"
"589","8213.571"
"590","8215.877"
"591","8209.623"
"592","8198.378"
"593","8187.974"
"594","8184.231"
"595","8191.012"
"596","8203.117"
"597","8212.714"
"598","8212"
"599","8196.716"
"600","8173.498"
"601","8151.077"
"602","8138.107"
"603","8138.228"
"604","8144.745"
"605","8149.71"
"606","8145.32"
"607","8128.688"
"608","8103.725"
"609","8074.827"
"610","8046.389"
"611","8022.985"
"612","8009.368"
"613","8010.277"
"614","8029.399"
"615","8059.117"
"616","8084.918"
"617","8092.248"
"618","8070.147"
"619","8030.201"
"620","7992.75"
"621","7978.083"
"622","7998.812"
"623","8038.485"
"624","8073.801"
"625","8081.59"
"626","8050.955"
"627","7999.156"
"628","7947.336"
"629","7916.305"
"630","7914.199"
"631","7931.207"
"632","7956.185"
"633","7978.405"
"634","7994.15"
"635","8005.873"
"636","8016.224"
"637","8027.442"
"638","8038.008"
"639","8044.409"
"640","8043.118"
"641","8031.771"
"642","8013.729"
"643","7994.123"
"644","7978.063"
"645","7968.31"
"646","7961.138"
"647","7951.714"
"648","7935.312"
"649","7912.488"
"650","7892.175"
"651","7884.02"
"652","7897.04"
"653","7928.298"
"654","7963.846"
"655","7989.369"
"656","7992.31"
"657","7975.506"
"658","7949.89"
"659","7926.432"
"660","7913.885"
"661","7911.017"
"662","7913.753"
"663","7918.047"
"664","7921.629"
"665","7926.461"
"666","7935.119"
"667","7950.056"
"668","7969.384"
"669","7985.601"
"670","7990.859"
"671","7978.16"
"672","7951.755"
"673","7923.868"
"674","7906.864"
"675","7910.401"
"676","7927.983"
"677","7947.081"
"678","7955.188"
"679","7944.802"
"680","7923.133"
"681","7900.082"
"682","7885.423"
"683","7882.969"
"684","7887.582"
"685","7893.385"
"686","7894.828"
"687","7891.073"
"688","7885.002"
"689","7879.591"
"690","7877.463"
"691","7878.999"
"692","7883.675"
"693","7890.978"
"694","7900.102"
"695","7909.379"
"696","7916.982"
"697","7921.104"
"698","7920.631"
"699","7915.453"
"700","7905.537"
"701","7891.086"
"702","7875.459"
"703","7864.318"
"704","7863.365"
"705","7876.924"
"706","7901.694"
"707","7931.725"
"708","7961.086"
"709","7984.78"
"710","8000.097"
"711","8004.691"
"712","7996.311"
"713","7975.544"
"714","7946.302"
"715","7912.683"
"716","7878.966"
"717","7851.275"
"718","7836.758"
"719","7842.562"
"720","7872.292"
"721","7915.631"
"722","7958.842"
"723","7988.303"
"724","7997.454"
"725","7991.894"
"726","7978.414"
"727","7963.513"
"728","7949.349"
"729","7934.605"
"730","7917.881"
"731","7899.136"
"732","7886.07"
"733","7889.103"
"734","7918.604"
"735","7975.182"
"736","8036.813"
"737","8078.284"
"738","8075.463"
"739","8029.082"
"740","7965.308"
"741","7911.432"
"742","7891.362"
"743","7904.29"
"744","7938.343"
"745","7981.618"
"746","8023.043"
"747","8053.897"
"748","8065.891"
"749","8051.085"
"750","8012.686"
"751","7967.26"
"752","7932.145"
"753","7922.516"
"754","7934.952"
"755","7956.497"
"756","7974.135"
"757","7979.361"
"758","7978.035"
"759","7978.861"
"760","7990.358"
"761","8014.104"
"762","8042.785"
"763","8068.51"
"764","8084.153"
"765","8089.548"
"766","8088.229"
"767","8083.761"
"768","8078.774"
"769","8072.872"
"770","8065.048"
"771","8054.398"
"772","8043.463"
"773","8039.119"
"774","8048.51"
"775","8077.383"
"776","8119.583"
"777","8162.923"
"778","8195.186"
"779","8208.115"
"780","8205.099"
"781","8191.647"
"782","8173.276"
"783","8155.437"
"784","8143.529"
"785","8142.941"
"786","8157.739"
"787","8182.467"
"788","8207.496"
"789","8223.209"
"790","8225.174"
"791","8221.737"
"792","8223.159"
"793","8239.128"
"794","8267.742"
"795","8296.295"
"796","8311.681"
"797","8303.53"
"798","8276.622"
"799","8240.953"
"800","8206.494"
"801","8180.91"
"802","8167.494"
"803","8169.052"
"804","8187.793"
"805","8218.106"
"806","8248.825"
"807","8268.682"
"808","8270.212"
"809","8260.87"
"810","8251.755"
"811","8253.776"
"812","8269.957"
"813","8292.67"
"814","8313.537"
"815","8325.305"
"816","8329.919"
"817","8333.848"
"818","8343.575"
"819","8362.397"
"820","8385.469"
"821","8406.663"
"822","8420.016"
"823","8422.625"
"824","8414.342"
"825","8395.107"
"826","8366.41"
"827","8337.244"
"828","8318.908"
"829","8322.529"
"830","8348.669"
"831","8381.237"
"832","8402.69"
"833","8397.896"
"834","8374.487"
"835","8352.641"
"836","8352.641"
"837","8385.031"
"838","8433.563"
"839","8477.42"
"840","8496.53"
"841","8485.457"
"842","8452.275"
"843","8405.563"
"844","8354.578"
"845","8311.863"
"846","8290.953"
"847","8305.132"
"848","8354.499"
"849","8419.52"
"850","8479.084"
"851","8514.249"
"852","8524.2"
"853","8517.139"
"854","8501.322"
"855","8483.783"
"856","8468.639"
"857","8459.584"
"858","8459.994"
"859","8468.401"
"860","8479.601"
"861","8488.291"
"862","8491.089"
"863","8491.831"
"864","8496.041"
"865","8509.068"
"866","8530.859"
"867","8555.158"
"868","8575.36"
"869","8586.017"
"870","8588.383"
"871","8586.158"
"872","8583.031"
"873","8582.177"
"874","8585.907"
"875","8596.452"
"876","8615.507"
"877","8639.935"
"878","8664.04"
"879","8682.11"
"880","8690.462"
"881","8690.25"
"882","8683.334"
"883","8671.654"
"884","8658.259"
"885","8647.02"
"886","8641.824"
"887","8645.734"
"888","8659.031"
"889","8681.408"
"890","8712.443"
"891","8748.987"
"892","8785.19"
"893","8815.09"
"894","8833.906"
"895","8842.383"
"896","8842.857"
"897","8837.675"
"898","8829.367"
"899","8820.712"
"900","8814.504"
"901","8813.473"
"902","8819.964"
"903","8836.178"
"904","8864.261"
"905","8902.401"
"906","8942.265"
"907","8974.898"
"908","8992.254"
"909","8993.754"
"910","8982.486"
"911","8961.569"
"912","8935.71"
"913","8912.88"
"914","8901.454"
"915","8908.676"
"916","8929.67"
"917","8952.225"
"918","8964.04"
"919","8957.3"
"920","8935.516"
"921","8903.97"
"922","8868.275"
"923","8838.674"
"924","8828.751"
"925","8852.156"
"926","8913.261"
"927","8988.369"
"928","9048.5"
"929","9066.213"
"930","9040.532"
"931","8992.706"
"932","8944.678"
"933","8913.844"
"934","8901.54"
"935","8905.564"
"936","8923.622"
"937","8951.584"
"938","8983.571"
"939","9013.631"
"940","9035.873"
"941","9044.64"
"942","9034.339"
"943","8999.876"
"944","8948.951"
"945","8902.728"
"946","8883.012"
"947","8904.826"
"948","8952.965"
"949","9003.809"
"950","9034.213"
"951","9035.08"
"952","9013.31"
"953","8976.661"
"954","8933.56"
"955","8895.573"
"956","8875.211"
"957","8884.538"
"958","8920.849"
"959","8963.648"
"960","8991.386"
"961","8987.31"
"962","8958.963"
"963","8921.568"
"964","8890.189"
"965","8874.116"
"966","8875.458"
"967","8895.869"
"968","8934.889"
"969","8981.044"
"970","9019.301"
"971","9034.918"
"972","9024.428"
"973","8998.559"
"974","8968.949"
"975","8945.646"
"976","8930.352"
"977","8922.073"
"978","8919.802"
"979","8922.345"
"980","8928.268"
"981","8936.124"
"982","8944.395"
"983","8951.224"
"984","8954.644"
"985","8952.785"
"986","8947.223"
"987","8943.711"
"988","8948.254"
"989","8964.693"
"990","8986.29"
"991","9003.076"
"992","9005.419"
"993","8993.914"
"994","8981.011"
"995","8979.834"
"996","8999.592"
"997","9031.598"
"998","9062.047"
"999","9077.476"
"1000","9073.781"
"1001","9057.005"
"1002","9033.701"
"1003","9009.782"
"1004","8988.453"
"1005","8972.214"
"1006","8963.563"
"1007","8964.07"
"1008","8972.973"
"1009","8989.149"
"1010","9011.245"
"1011","9035.544"
"1012","9056.933"
"1013","9070.297"
"1014","9073.348"
"1015","9069.365"
"1016","9062.28"
"1017","9055.53"
"1018","9048.87"
"1019","9040.375"
"1020","9028.179"
"1021","9014.29"
"1022","9006.497"
"1023","9013.074"
"1024","9039.771"
"1025","9078.846"
"1026","9118.049"
"1027","9145.486"
"1028","9159.326"
"1029","9168.803"
"1030","9183.739"
"1031","9210.099"
"1032","9239.594"
"1033","9260.643"
"1034","9262.507"
"1035","9247.429"
"1036","9227.828"
"1037","9216.391"
"1038","9220.682"
"1039","9235.619"
"1040","9254.204"
"1041","9269.848"
"1042","9279.8"
"1043","9283.342"
"1044","9279.822"
"1045","9271.873"
"1046","9267.461"
"1047","9275.055"
"1048","9300.289"
"1049","9333.402"
"1050","9359.396"
"1051","9363.841"
"1052","9346.949"
"1053","9324.282"
"1054","9312.137"
"1055","9320.352"
"1056","9337.825"
"1057","9349.217"
"1058","9340.773"
"1059","9317.715"
"1060","9297.636"
"1061","9298.258"
"1062","9326.127"
"1063","9366.529"
"1064","9402.365"
"1065","9419.313"
"1066","9420.277"
"1067","9414.736"
"1068","9411.942"
"1069","9414.293"
"1070","9416.562"
"1071","9413.116"
"1072","9401.795"
"1073","9391.816"
"1074","9394.751"
"1075","9420.214"
"1076","9455.836"
"1077","9475.364"
"1078","9452.579"
"1079","9383.985"
"1080","9305.848"
"1081","9258.46"
"1082","9272.932"
"1083","9331.303"
"1084","9399.329"
"1085","9443.974"
"1086","9457.595"
"1087","9456.332"
"1088","9457.231"
"1089","9469.531"
"1090","9482.343"
"1091","9481.563"
"1092","9455.787"
"1093","9415.122"
"1094","9379.982"
"1095","9370.396"
"1096","9388.689"
"1097","9414.623"
"1098","9426.476"
"1099","9410.294"
"1100","9379.588"
"1101","9353.938"
"1102","9351.12"
"1103","9368.694"
"1104","9391.609"
"1105","9404.715"
"1106","9400.41"
"1107","9383.196"
"1108","9358.667"
"1109","9332.288"
"1110","9308.912"
"1111","9293.233"
"1112","9289.735"
"1113","9299.954"
"1114","9323.236"
"1115","9358.829"
"1116","9400.776"
"1117","9433.445"
"1118","9440.139"
"1119","9409.435"
"1120","9356.802"
"1121","9306.236"
"1122","9280.37"
"1123","9279.285"
"1124","9284.72"
"1125","9277.957"
"1126","9252.652"
"1127","9227.074"
"1128","9222.419"
"1129","9253.833"
"1130","9304.429"
"1131","9346.744"
"1132","9354.834"
"1133","9328.235"
"1134","9287.368"
"1135","9253.22"
"1136","9238.659"
"1137","9240.737"
"1138","9254.674"
"1139","9275.759"
"1140","9299.676"
"1141","9322.236"
"1142","9339.208"
"1143","9345.95"
"1144","9337.499"
"1145","9308.998"
"1146","9265.117"
"1147","9227.255"
"1148","9218.522"
"1149","9253.69"
"1150","9311.353"
"1151","9360.309"
"1152","9372.125"
"1153","9351.255"
"1154","9323.548"
"1155","9314.871"
"1156","9332.262"
"1157","9355.329"
"1158","9361.511"
"1159","9337.8"
"1160","9303.805"
"1161","9286.089"
"1162","9307.496"
"1163","9358.743"
"1164","9414.171"
"1165","9448.59"
"1166","9454.546"
"1167","9444.416"
"1168","9431.615"
"1169","9424.902"
"1170","9421.516"
"1171","9416.953"
"1172","9408.053"
"1173","9399.55"
"1174","9399.031"
"1175","9413.401"
"1176","9438.538"
"1177","9461.591"
"1178","9469.57"
"1179","9458.637"
"1180","9440.191"
"1181","9427.094"
"1182","9427.606"
"1183","9432.969"
"1184","9430.502"
"1185","9410.421"
"1186","9388.189"
"1187","9392.247"
"1188","9449.646"
"1189","9548.695"
"1190","9636.684"
"1191","9659.076"
"1192","9595.24"
"1193","9498.347"
"1194","9431.292"
"1195","9441.58"
"1196","9503.543"
"1197","9569.846"
"1198","9596.868"
"1199","9582.5"
"1200","9550.394"
"1201","9524.275"
"1202","9516.82"
"1203","9527.136"
"1204","9553.489"
"1205","9588.667"
"1206","9612.041"
"1207","9600.946"
"1208","9540.958"
"1209","9460.368"
"1210","9401.249"
"1211","9401.828"
"1212","9454.988"
"1213","9524.279"
"1214","9573.354"
"1215","9587.476"
"1216","9578.529"
"1217","9560.039"
"1218","9544.208"
"1219","9540.101"
"1220","9556.321"
"1221","9596.431"
"1222","9639.742"
"1223","9658.299"
"1224","9628.16"
"1225","9566.443"
"1226","9514.211"
"1227","9511.428"
"1228","9560.566"
"1229","9623.775"
"1230","9661.358"
"1231","9655.654"
"1232","9632.563"
"1233","9623.11"
"1234","9648.465"
"1235","9692.401"
"1236","9729.846"
"1237","9739.108"
"1238","9723.935"
"1239","9699.585"
"1240","9680.779"
"1241","9672.385"
"1242","9671.22"
"1243","9673.898"
"1244","9678.25"
"1245","9683.858"
"1246","9690.437"
"1247","9696.81"
"1248","9699.526"
"1249","9694.769"
"1250","9681.126"
"1251","9668.649"
"1252","9670.8"
"1253","9698.489"
"1254","9739.388"
"1255","9768.763"
"1256","9763.199"
"1257","9727.656"
"1258","9692.988"
"1259","9690.624"
"1260","9728.401"
"1261","9777.911"
"1262","9807.656"
"1263","9799.838"
"1264","9772.771"
"1265","9750.664"
"1266","9752.681"
"1267","9774.441"
"1268","9804.71"
"1269","9832.459"
"1270","9848.491"
"1271","9844.513"
"1272","9813.152"
"1273","9762.196"
"1274","9711.885"
"1275","9682.505"
"1276","9680.744"
"1277","9695.287"
"1278","9713.603"
"1279","9727.429"
"1280","9737.686"
"1281","9746.467"
"1282","9754.782"
"1283","9759.731"
"1284","9757.555"
"1285","9745.374"
"1286","9725.625"
"1287","9702.722"
"1288","9681.241"
"1289","9667.471"
"1290","9668.707"
"1291","9691.707"
"1292","9732.117"
"1293","9775.366"
"1294","9806.718"
"1295","9821.604"
"1296","9829.777"
"1297","9842.039"
"1298","9862.632"
"1299","9881.594"
"1300","9887.107"
"1301","9872.08"
"1302","9845.47"
"1303","9819.647"
"1304","9805.307"
"1305","9804.155"
"1306","9814.896"
"1307","9835.855"
"1308","9862.158"
"1309","9887.292"
"1310","9904.92"
"1311","9911.52"
"1312","9905.7"
"1313","9886.302"
"1314","9857.12"
"1315","9827.381"
"1316","9806.479"
"1317","9796.091"
"1318","9785.669"
"1319","9763.602"
"1320","9726.645"
"1321","9690.799"
"1322","9674.779"
"1323","9688.977"
"1324","9715.582"
"1325","9730.823"
"1326","9717.785"
"1327","9693.904"
"1328","9687.331"
"1329","9720.856"
"1330","9777.409"
"1331","9822.028"
"1332","9823.126"
"1333","9788.187"
"1334","9749.285"
"1335","9737.243"
"1336","9753.461"
"1337","9773.898"
"1338","9774.316"
"1339","9750.611"
"1340","9722.284"
"1341","9709.969"
"1342","9719.933"
"1343","9735.703"
"1344","9738.846"
"1345","9721.698"
"1346","9699.636"
"1347","9690.995"
"1348","9704.787"
"1349","9722.88"
"1350","9722.244"
"1351","9688.74"
"1352","9643.413"
"1353","9616.024"
"1354","9629.57"
"1355","9670.813"
"1356","9714.419"
"1357","9737.691"
"1358","9737.231"
"1359","9718.158"
"1360","9685.644"
"1361","9645.054"
"1362","9601.854"
"1363","9561.623"
"1364","9531.316"
"1365","9518.894"
"1366","9531.774"
"1367","9566.149"
"1368","9607.865"
"1369","9642.521"
"1370","9660.103"
"1371","9655.631"
"1372","9624.702"
"1373","9577.507"
"1374","9544.995"
"1375","9559.403"
"1376","9625.16"
"1377","9697.88"
"1378","9728.339"
"1379","9693.528"
"1380","9627.056"
"1381","9569.903"
"1382","9548.787"
"1383","9552.568"
"1384","9563.912"
"1385","9569.845"
"1386","9571.541"
"1387","9573.045"
"1388","9575.838"
"1389","9571.324"
"1390","9548.41"
"1391","9501.689"
"1392","9452.831"
"1393","9431.573"
"1394","9459.87"
"1395","9515.304"
"1396","9559.72"
"1397","9561.568"
"1398","9534.376"
"1399","9510.437"
"1400","9517.431"
"1401","9545.171"
"1402","9565.188"
"1403","9552.607"
"1404","9518.213"
"1405","9492.534"
"1406","9503.378"
"1407","9545.319"
"1408","9592.037"
"1409","9618.357"
"1410","9618.749"
"1411","9601.557"
"1412","9575.3"
"1413","9546.464"
"1414","9519.946"
"1415","9500.364"
"1416","9487.982"
"1417","9479.296"
"1418","9470.885"
"1419","9463.813"
"1420","9463.404"
"1421","9474.864"
"1422","9496.154"
"1423","9517.793"
"1424","9530.344"
"1425","9535.484"
"1426","9547.198"
"1427","9579.624"
"1428","9630.915"
"1429","9680.315"
"1430","9706.467"
"1431","9706.16"
"1432","9698.953"
"1433","9705.518"
"1434","9732.743"
"1435","9769.396"
"1436","9803.049"
"1437","9824.266"
"1438","9827.692"
"1439","9808.49"
"1440","9771.814"
"1441","9737.028"
"1442","9724.345"
"1443","9741.337"
"1444","9777.169"
"1445","9819.542"
"1446","9855.894"
"1447","9873.282"
"1448","9858.998"
"1449","9815.651"
"1450","9768.728"
"1451","9745.188"
"1452","9749.144"
"1453","9750.55"
"1454","9717.104"
"1455","9646.682"
"1456","9581.956"
"1457","9568.513"
"1458","9613.447"
"1459","9667.626"
"1460","9678.199"
"1461","9630.456"
"1462","9564.109"
"1463","9522.369"
"1464","9516.787"
"1465","9515.165"
"1466","9482.813"
"1467","9415.42"
"1468","9349.021"
"1469","9321.6"
"1470","9338.899"
"1471","9365.85"
"1472","9365.623"
"1473","9330.552"
"1474","9287.9"
"1475","9266.198"
"1476","9270.759"
"1477","9280.791"
"1478","9274.693"
"1479","9245.999"
"1480","9204.071"
"1481","9158.866"
"1482","9116.751"
"1483","9080.62"
"1484","9053.399"
"1485","9041.079"
"1486","9052.378"
"1487","9094.619"
"1488","9151.119"
"1489","9185.852"
"1490","9165.649"
"1491","9104.609"
"1492","9051.156"
"1493","9049.882"
"1494","9090.953"
"1495","9129.231"
"1496","9123.354"
"1497","9075.939"
"1498","9014.866"
"1499","8966.57"
"1500","8942.546"
"1501","8946.78"
"1502","8980.375"
"1503","9024.186"
"1504","9050.233"
"1505","9036.915"
"1506","9001.395"
"1507","8975.317"
"1508","8982.141"
"1509","9003.805"
"1510","9009.135"
"1511","8977.33"
"1512","8931.376"
"1513","8905.79"
"1514","8922.479"
"1515","8959.375"
"1516","8984.839"
"1517","8980.473"
"1518","8965.806"
"1519","8967.068"
"1520","8994.853"
"1521","9023.089"
"1522","9020.634"
"1523","8978.854"
"1524","8932.234"
"1525","8919.693"
"1526","8950.982"
"1527","8990.321"
"1528","8998.677"
"1529","8963.878"
"1530","8907.84"
"1531","8854.435"
"1532","8821.419"
"1533","8820.286"
"1534","8860.407"
"1535","8920.788"
"1536","8955.451"
"1537","8922.712"
"1538","8840.661"
"1539","8766.399"
"1540","8750.626"
"1541","8782.705"
"1542","8820.68"
"1543","8828.483"
"1544","8809.532"
"1545","8782.755"
"1546","8764.852"
"1547","8761.651"
"1548","8775.763"
"1549","8807.501"
"1550","8849.102"
"1551","8890.999"
"1552","8924.104"
"1553","8940.533"
"1554","8932.679"
"1555","8902.887"
"1556","8872.861"
"1557","8866.146"
"1558","8885.367"
"1559","8902.745"
"1560","8889.086"
"1561","8841.931"
"1562","8787.838"
"1563","8753.466"
"1564","8743.196"
"1565","8743.472"
"1566","8741.067"
"1567","8731.607"
"1568","8715.938"
"1569","8695.16"
"1570","8671.648"
"1571","8648.317"
"1572","8628.333"
"1573","8616"
"1574","8615.956"
"1575","8630.492"
"1576","8654.203"
"1577","8680.104"
"1578","8701.153"
"1579","8710.19"
"1580","8700.173"
"1581","8672.962"
"1582","8644.417"
"1583","8631.248"
"1584","8639.579"
"1585","8663.856"
"1586","8697.608"
"1587","8729.707"
"1588","8745.446"
"1589","8733.091"
"1590","8708.593"
"1591","8702.552"
"1592","8735.975"
"1593","8774.447"
"1594","8763.949"
"1595","8674.249"
"1596","8562.317"
"1597","8504.996"
"1598","8540.895"
"1599","8618.006"
"1600","8671.748"
"1601","8675.243"
"1602","8660.494"
"1603","8663.334"
"1604","8686.88"
"1605","8700.244"
"1606","8673.977"
"1607","8617.324"
"1608","8566.13"
"1609","8552.444"
"1610","8576.462"
"1611","8624.231"
"1612","8680.668"
"1613","8726.055"
"1614","8739.388"
"1615","8711.821"
"1616","8667.341"
"1617","8635.263"
"1618","8631.206"
"1619","8647.687"
"1620","8674.93"
"1621","8701.833"
"1622","8715.869"
"1623","8705.76"
"1624","8676.767"
"1625","8645.349"
"1626","8626.601"
"1627","8624.771"
"1628","8639.609"
"1629","8669.659"
"1630","8708.816"
"1631","8749.832"
"1632","8784.038"
"1633","8799.561"
"1634","8784.386"
"1635","8741.114"
"1636","8692.544"
"1637","8661.814"
"1638","8651.896"
"1639","8648.772"
"1640","8640.204"
"1641","8633.591"
"1642","8646.247"
"1643","8688.288"
"1644","8736.197"
"1645","8756.765"
"1646","8734.532"
"1647","8699.736"
"1648","8689.433"
"1649","8715.673"
"1650","8753.431"
"1651","8775.727"
"1652","8775.078"
"1653","8760.954"
"1654","8744.335"
"1655","8744.042"
"1656","8782.84"
"1657","8869.685"
"1658","8952.587"
"1659","8962.843"
"1660","8867.914"
"1661","8720.755"
"1662","8586.133"
"1663","8504.047"
"1664","8481.813"
"1665","8522.374"
"1666","8597.903"
"1667","8657.576"
"1668","8658.639"
"1669","8616.439"
"1670","8570.181"
"1671","8548.594"
"1672","8544.413"
"1673","8542.762"
"1674","8533.418"
"1675","8514.512"
"1676","8485.3"
"1677","8450.943"
"1678","8422.374"
"1679","8409.382"
"1680","8409.053"
"1681","8411.741"
"1682","8409.616"
"1683","8403.001"
"1684","8394.429"
"1685","8386.482"
"1686","8381.83"
"1687","8382.867"
"1688","8383.554"
"1689","8368.221"
"1690","8323.193"
"1691","8261.876"
"1692","8214.022"
"1693","8203.254"
"1694","8222.248"
"1695","8254.321"
"1696","8282.74"
"1697","8290.728"
"1698","8262.198"
"1699","8204.586"
"1700","8153.195"
"1701","8141.923"
"1702","8171.501"
"1703","8222.454"
"1704","8274.482"
"1705","8304.895"
"1706","8290.371"
"1707","8230.277"
"1708","8174.185"
"1709","8176.582"
"1710","8239.851"
"1711","8309.186"
"1712","8331.795"
"1713","8301.964"
"1714","8239.683"
"1715","8166.931"
"1716","8112.583"
"1717","8107.049"
"1718","8153.48"
"1719","8204.265"
"1720","8208.807"
"1721","8167.982"
"1722","8129.326"
"1723","8134.245"
"1724","8168.12"
"1725","8192.087"
"1726","8180.56"
"1727","8148.917"
"1728","8120.125"
"1729","8106.328"
"1730","8104.483"
"1731","8110.195"
"1732","8116.496"
"1733","8114.699"
"1734","8098.812"
"1735","8075.957"
"1736","8057.147"
"1737","8048.742"
"1738","8047.511"
"1739","8049.43"
"1740","8058.821"
"1741","8087.915"
"1742","8144.299"
"1743","8200.469"
"1744","8213.8"
"1745","8164.806"
"1746","8100.835"
"1747","8080.043"
"1748","8115.593"
"1749","8163.774"
"1750","8180.833"
"1751","8159.498"
"1752","8113.276"
"1753","8056.658"
"1754","8006.804"
"1755","7981.32"
"1756","7982.963"
"1757","7990.948"
"1758","7984.526"
"1759","7971.241"
"1760","7978.496"
"1761","8024.099"
"1762","8078.797"
"1763","8099.802"
"1764","8071.626"
"1765","8029.984"
"1766","8014.31"
"1767","8032.03"
"1768","8064.69"
"1769","8093.827"
"1770","8105.086"
"1771","8085.551"
"1772","8035.421"
"1773","7982.177"
"1774","7955.273"
"1775","7957.259"
"1776","7967.155"
"1777","7966.723"
"1778","7958.24"
"1779","7951.292"
"1780","7953.734"
"1781","7969.647"
"1782","8002.015"
"1783","8042.366"
"1784","8072.061"
"1785","8075.005"
"1786","8051.892"
"1787","8009.373"
"1788","7956.166"
"1789","7905.265"
"1790","7869.924"
"1791","7857.781"
"1792","7871.739"
"1793","7911.839"
"1794","7963.825"
"1795","8008.743"
"1796","8031.704"
"1797","8025.668"
"1798","7986.068"
"1799","7931.752"
"1800","7899.401"
"1801","7915.618"
"1802","7958.815"
"1803","7993.872"
"1804","8001.473"
"1805","7988.293"
"1806","7963.452"
"1807","7936.277"
"1808","7916.231"
"1809","7910.714"
"1810","7919.47"
"1811","7940.383"
"1812","7966.88"
"1813","7986.478"
"1814","7987.319"
"1815","7966.604"
"1816","7926.095"
"1817","7873.014"
"1818","7829.503"
"1819","7819.492"
"1820","7847.666"
"1821","7899.251"
"1822","7957.208"
"1823","7996.412"
"1824","7988.901"
"1825","7932.544"
"1826","7876.182"
"1827","7870.682"
"1828","7911.405"
"1829","7953.439"
"1830","7961.19"
"1831","7939.856"
"1832","7904.669"
"1833","7867.952"
"1834","7838.092"
"1835","7822.217"
"1836","7819.265"
"1837","7824.214"
"1838","7830.328"
"1839","7826.743"
"1840","7802.828"
"1841","7764.422"
"1842","7731.753"
"1843","7722.11"
"1844","7736.44"
"1845","7770.823"
"1846","7817.188"
"1847","7861.194"
"1848","7889.176"
"1849","7898.55"
"1850","7892.597"
"1851","7878.291"
"1852","7872.144"
"1853","7890.78"
"1854","7923.084"
"1855","7933.261"
"1856","7896.28"
"1857","7841.205"
"1858","7812.126"
"1859","7818.811"
"1860","7821.433"
"1861","7783.635"
"1862","7729.278"
"1863","7711.391"
"1864","7750.924"
"1865","7793.641"
"1866","7779.669"
"1867","7726.188"
"1868","7709.503"
"1869","7776.807"
"1870","7859.577"
"1871","7864.789"
"1872","7789.168"
"1873","7734.036"
"1874","7783.223"
"1875","7878.508"
"1876","7909.557"
"1877","7840.703"
"1878","7766.044"
"1879","7779.937"
"1880","7852.298"
"1881","7883.632"
"1882","7821.649"
"1883","7737.12"
"1884","7715.338"
"1885","7761.264"
"1886","7815.582"
"1887","7829.877"
"1888","7803.802"
"1889","7748.816"
"1890","7691.841"
"1891","7676.932"
"1892","7733.253"
"1893","7804.572"
"1894","7807.159"
"1895","7725.923"
"1896","7648.934"
"1897","7659.277"
"1898","7735.835"
"1899","7809.791"
"1900","7836.406"
"1901","7819.678"
"1902","7770.923"
"1903","7717.491"
"1904","7696.435"
"1905","7724.931"
"1906","7767.813"
"1907","7783.584"
"1908","7763.727"
"1909","7725.071"
"1910","7680.846"
"1911","7629.898"
"1912","7569.308"
"1913","7521.909"
"1914","7534.996"
"1915","7633.898"
"1916","7747.194"
"1917","7780.729"
"1918","7726.585"
"1919","7675.392"
"1920","7699.54"
"1921","7749.113"
"1922","7736.677"
"1923","7647.296"
"1924","7563.409"
"1925","7558.685"
"1926","7610.314"
"1927","7659.469"
"1928","7671.489"
"1929","7649.065"
"1930","7600.292"
"1931","7548.868"
"1932","7525.008"
"1933","7537.328"
"1934","7557.214"
"1935","7557.264"
"1936","7549.686"
"1937","7565.402"
"1938","7609.914"
"1939","7640.715"
"1940","7617.082"
"1941","7560.915"
"1942","7526.234"
"1943","7541.19"
"1944","7581.53"
"1945","7618.458"
"1946","7639.476"
"1947","7640.882"
"1948","7621.641"
"1949","7586.074"
"1950","7540.643"
"1951","7505.593"
"1952","7508.686"
"1953","7552.732"
"1954","7588.155"
"1955","7566.967"
"1956","7519.858"
"1957","7520.62"
"1958","7591.482"
"1959","7647.589"
"1960","7603.693"
"1961","7493.602"
"1962","7414.558"
"1963","7415.914"
"1964","7451.208"
"1965","7467.512"
"1966","7453.521"
"1967","7419.031"
"1968","7379.045"
"1969","7357.788"
"1970","7374.996"
"1971","7407.468"
"1972","7412.299"
"1973","7375.158"
"1974","7329.857"
"1975","7308.841"
"1976","7303.172"
"1977","7287.096"
"1978","7260.775"
"1979","7263.108"
"1980","7324.62"
"1981","7407.609"
"1982","7450.552"
"1983","7434.419"
"1984","7395.293"
"1985","7364.517"
"1986","7331.613"
"1987","7274.633"
"1988","7209.39"
"1989","7193.235"
"1990","7262.16"
"1991","7357.327"
"1992","7399.534"
"1993","7380.929"
"1994","7358.7"
"1995","7368.611"
"1996","7369.93"
"1997","7311.656"
"1998","7214.417"
"1999","7151.59"
"2000","7164.326"
"2001","7210.058"
"2002","7237.28"
"2003","7235.203"
"2004","7216.56"
"2005","7190.579"
"2006","7159.202"
"2007","7125.835"
"2008","7110.288"
"2009","7139.032"
"2010","7208.083"
"2011","7269.395"
"2012","7278.516"
"2013","7228.184"
"2014","7124.514"
"2015","7011.305"
"2016","6972.779"
"2017","7055.37"
"2018","7160.882"
"2019","7166.909"
"2020","7085.86"
"2021","7035.082"
"2022","7077.715"
"2023","7134.138"
"2024","7113.21"
"2025","7024.05"
"2026","6930.449"
"2027","6870.289"
"2028","6835.946"
"2029","6817.994"
"2030","6822.921"
"2031","6862.522"
"2032","6930.252"
"2033","6998.186"
"2034","7038.431"
"2035","7028.221"
"2036","6949.71"
"2037","6842.461"
"2038","6790.677"
"2039","6832.854"
"2040","6895.302"
"2041","6897.645"
"2042","6843.739"
"2043","6779.521"
"2044","6735.824"
"2045","6720.127"
"2046","6734.325"
"2047","6762.24"
"2048","6782.945"
"2049","6793.569"
"2050","6808.372"
"2051","6830.756"
"2052","6831.038"
"2053","6779.322"
"2054","6704.201"
"2055","6667.684"
"2056","6684.338"
"2057","6687.972"
"2058","6624.464"
"2059","6547.936"
"2060","6545.672"
"2061","6626.468"
"2062","6720.711"
"2063","6773.052"
"2064","6780.618"
"2065","6751.742"
"2066","6711.063"
"2067","6692.209"
"2068","6696.563"
"2069","6672.883"
"2070","6582.551"
"2071","6475.024"
"2072","6424.101"
"2073","6438.05"
"2074","6465.562"
"2075","6470.845"
"2076","6463.796"
"2077","6459.122"
"2078","6451.349"
"2079","6425.522"
"2080","6386.266"
"2081","6364.813"
"2082","6382.049"
"2083","6410.334"
"2084","6413.273"
"2085","6398.775"
"2086","6406.244"
"2087","6440.42"
"2088","6437.703"
"2089","6347.799"
"2090","6243.278"
"2091","6236.047"
"2092","6328.898"
"2093","6417.594"
"2094","6429.292"
"2095","6387.019"
"2096","6328.08"
"2097","6277.328"
"2098","6253.03"
"2099","6250.131"
"2100","6233.909"
"2101","6184.042"
"2102","6137.471"
"2103","6138.698"
"2104","6177.065"
"2105","6208.335"
"2106","6209.846"
"2107","6193.846"
"2108","6174.45"
"2109","6160.273"
"2110","6156.779"
"2111","6145.761"
"2112","6091.945"
"2113","6000.49"
"2114","5952.564"
"2115","6011.682"
"2116","6106.417"
"2117","6127.983"
"2118","6073.72"
"2119","6029.514"
"2120","6037.852"
"2121","6044.399"
"2122","5997.79"
"2123","5934.575"
"2124","5919.642"
"2125","5956.938"
"2126","5995.35"
"2127","5999.376"
"2128","5973.05"
"2129","5927.151"
"2130","5880.806"
"2131","5855.305"
"2132","5850.952"
"2133","5848.559"
"2134","5836.748"
"2135","5823.519"
"2136","5815.515"
"2137","5794.999"
"2138","5737.827"
"2139","5673.017"
"2140","5677.7"
"2141","5773.74"
"2142","5859.083"
"2143","5838.947"
"2144","5753.446"
"2145","5686.885"
"2146","5665.919"
"2147","5668.356"
"2148","5680.397"
"2149","5707.97"
"2150","5748.183"
"2151","5742.49"
"2152","5623.044"
"2153","5441.646"
"2154","5339.274"
"2155","5385.695"
"2156","5524.124"
"2157","5681.979"
"2158","5773.87"
"2159","5723.291"
"2160","5596.516"
"2161","5547.921"
"2162","5608.262"
"2163","5630.073"
"2164","5513.879"
"2165","5367.54"
"2166","5325.373"
"2167","5374.21"
"2168","5427.533"
"2169","5440.372"
"2170","5415.334"
"2171","5366.566"
"2172","5330.981"
"2173","5340.351"
"2174","5371.91"
"2175","5384.127"
"2176","5372.4"
"2177","5363.433"
"2178","5360.192"
"2179","5319.854"
"2180","5218.784"
"2181","5137.389"
"2182","5170.134"
"2183","5258.567"
"2184","5253.846"
"2185","5135.967"
"2186","5054.588"
"2187","5109.199"
"2188","5222.58"
"2189","5295.643"
"2190","5294.971"
"2191","5216.275"
"2192","5095.895"
"2193","5005.599"
"2194","4981.163"
"2195","4989.506"
"2196","4996.727"
"2197","4996.431"
"2198","4991.138"
"2199","5001.773"
"2200","5058.05"
"2201","5138.539"
"2202","5162.352"
"2203","5091.054"
"2204","4997.436"
"2205","4954.712"
"2206","4948.054"
"2207","4935.726"
"2208","4910.841"
"2209","4890.914"
"2210","4885.826"
"2211","4893.902"
"2212","4902.144"
"2213","4867.049"
"2214","4755.888"
"2215","4642.164"
"2216","4633.63"
"2217","4706.76"
"2218","4733.543"
"2219","4671.861"
"2220","4620.637"
"2221","4648.151"
"2222","4681.765"
"2223","4639.928"
"2224","4581.099"
"2225","4615.427"
"2226","4704.809"
"2227","4687.068"
"2228","4525.659"
"2229","4396.169"
"2230","4426.083"
"2231","4518.792"
"2232","4546.3"
"2233","4484.765"
"2234","4356.858"
"2235","4224.75"
"2236","4181.746"
"2237","4243.217"
"2238","4301.923"
"2239","4282.299"
"2240","4237.978"
"2241","4235.05"
"2242","4263.807"
"2243","4285.889"
"2244","4270.392"
"2245","4192.938"
"2246","4073.652"
"2247","3992.927"
"2248","4001.488"
"2249","4062.247"
"2250","4125.224"
"2251","4146.48"
"2252","4090.323"
"2253","3990.292"
"2254","3919.985"
"2255","3899.24"
"2256","3888.136"
"2257","3859.458"
"2258","3817.79"
"2259","3769.353"
"2260","3712.051"
"2261","3642.299"
"2262","3560.312"
"2263","3469.57"
"2264","3398.558"
"2265","3395.203"
"2266","3446.034"
"2267","3447.266"
"2268","3346.991"
"2269","3249.656"
"2270","3252.836"
"2271","3291.078"
"2272","3259.386"
"2273","3164.383"
"2274","3074.497"
"2275","3024.548"
"2276","3015.221"
"2277","3031.732"
"2278","3035.318"
"2279","2996.827"
"2280","2924.118"
"2281","2833.436"
"2282","2748.33"
"2283","2691.458"
"2284","2646.75"
"2285","2575.526"
"2286","2474.073"
"2287","2375.65"
"2288","2305.517"
"2289","2271.454"
"2290","2274.185"
"2291","2298.029"
"2292","2321.15"
"2293","2305.582"
"2294","2212.906"
"2295","2059.855"
"2296","1895.919"
"2297","1766.492"
"2298","1711.926"
"2299","1733.595"
"2300","1769.623"
