,"Scan 01125"
"400","10018.83"
"401","10017.23"
"402","9979.919"
"403","9895.716"
"404","9785.49"
"405","9680.286"
"406","9610.912"
"407","9603.202"
"408","9644.279"
"409","9702.698"
"410","9747.112"
"411","9748.749"
"412","9709.48"
"413","9652.457"
"414","9601.095"
"415","9577.885"
"416","9588.373"
"417","9621.587"
"418","9665.94"
"419","9710.052"
"420","9747.762"
"421","9779.908"
"422","9807.82"
"423","9832.799"
"424","9854.804"
"425","9871.322"
"426","9879.6"
"427","9876.898"
"428","9863.793"
"429","9849.076"
"430","9842.753"
"431","9854.759"
"432","9890.16"
"433","9937.796"
"434","9983.132"
"435","10011.74"
"436","10013.07"
"437","9993.703"
"438","9965.043"
"439","9938.389"
"440","9923.37"
"441","9920"
"442","9924.759"
"443","9934.143"
"444","9944.685"
"445","9953.016"
"446","9955.825"
"447","9949.831"
"448","9932.524"
"449","9909.148"
"450","9889.391"
"451","9882.936"
"452","9898.433"
"453","9931.744"
"454","9969.799"
"455","9999.414"
"456","10008.05"
"457","9992.42"
"458","9956.948"
"459","9906.269"
"460","9845.181"
"461","9782.746"
"462","9732.18"
"463","9706.777"
"464","9719.158"
"465","9764.745"
"466","9819.775"
"467","9859.613"
"468","9860.302"
"469","9817.162"
"470","9749.862"
"471","9679.523"
"472","9626.899"
"473","9601.997"
"474","9599.702"
"475","9613.791"
"476","9638.085"
"477","9666.574"
"478","9693.501"
"479","9713.157"
"480","9719.939"
"481","9713.1"
"482","9700.009"
"483","9688.764"
"484","9687.356"
"485","9698.13"
"486","9713.389"
"487","9724.452"
"488","9722.72"
"489","9703.235"
"490","9667.796"
"491","9618.919"
"492","9559.132"
"493","9493.395"
"494","9431.352"
"495","9383.138"
"496","9358.753"
"497","9359.617"
"498","9370.453"
"499","9374.13"
"500","9353.704"
"501","9302.636"
"502","9234.586"
"503","9165.469"
"504","9111.032"
"505","9078.368"
"506","9058.091"
"507","9038.996"
"508","9010.019"
"509","8967.049"
"510","8918.813"
"511","8875.377"
"512","8846.678"
"513","8835.618"
"514","8832.777"
"515","8827.521"
"516","8809.389"
"517","8775.426"
"518","8735.077"
"519","8698.896"
"520","8677.261"
"521","8673.813"
"522","8681.955"
"523","8694.262"
"524","8703.4"
"525","8704.516"
"526","8696.174"
"527","8677.202"
"528","8646.517"
"529","8605.901"
"530","8560.72"
"531","8516.539"
"532","8478.828"
"533","8451.32"
"534","8435.834"
"535","8434.078"
"536","8447.463"
"537","8471.021"
"538","8493.657"
"539","8504.077"
"540","8491.793"
"541","8458.853"
"542","8417.677"
"543","8380.936"
"544","8360.307"
"545","8355.168"
"546","8356.295"
"547","8354.328"
"548","8341.003"
"549","8318.789"
"550","8296.41"
"551","8282.622"
"552","8284.845"
"553","8300.158"
"554","8320.737"
"555","8338.762"
"556","8347.288"
"557","8344.583"
"558","8330.892"
"559","8306.47"
"560","8273.084"
"561","8239.749"
"562","8217.586"
"563","8217.668"
"564","8245.307"
"565","8285.073"
"566","8316.917"
"567","8320.891"
"568","8287.318"
"569","8234.402"
"570","8184.983"
"571","8161.71"
"572","8175.007"
"573","8210.313"
"574","8250.084"
"575","8276.996"
"576","8282.691"
"577","8272.524"
"578","8252.988"
"579","8230.502"
"580","8210.199"
"581","8195.734"
"582","8190.67"
"583","8198.247"
"584","8216.429"
"585","8238.734"
"586","8258.574"
"587","8269.904"
"588","8272.294"
"589","8268.734"
"590","8262.25"
"591","8255.538"
"592","8249.05"
"593","8242.281"
"594","8234.722"
"595","8225.777"
"596","8214.444"
"597","8199.605"
"598","8180.15"
"599","8156.798"
"600","8135.962"
"601","8125.132"
"602","8131.721"
"603","8156.454"
"604","8186.257"
"605","8206.403"
"606","8202.469"
"607","8170.969"
"608","8123.558"
"609","8072.951"
"610","8031.562"
"611","8006.546"
"612","8000.187"
"613","8014.573"
"614","8050.788"
"615","8099.04"
"616","8142.907"
"617","8165.929"
"618","8155.407"
"619","8122.139"
"620","8086.057"
"621","8067.04"
"622","8078.113"
"623","8106.369"
"624","8132.782"
"625","8138.434"
"626","8114.472"
"627","8075.125"
"628","8037.805"
"629","8019.619"
"630","8025.626"
"631","8043.812"
"632","8060.913"
"633","8064.353"
"634","8053.621"
"635","8038.805"
"636","8030.329"
"637","8037.027"
"638","8053.51"
"639","8066.792"
"640","8063.858"
"641","8035.93"
"642","7995.158"
"643","7960.154"
"644","7949.46"
"645","7973.164"
"646","8018.021"
"647","8066.814"
"648","8102.526"
"649","8116.695"
"650","8114.389"
"651","8101.862"
"652","8085.19"
"653","8067.385"
"654","8048.634"
"655","8029.015"
"656","8008.859"
"657","7990.727"
"658","7978.35"
"659","7975.459"
"660","7984.494"
"661","8002.033"
"662","8022.996"
"663","8042.326"
"664","8056.185"
"665","8063.628"
"666","8064.134"
"667","8057.246"
"668","8045.177"
"669","8033.586"
"670","8028.349"
"671","8034.919"
"672","8053.41"
"673","8080.132"
"674","8111.332"
"675","8142.947"
"676","8169.057"
"677","8183.046"
"678","8178.319"
"679","8152.328"
"680","8114.459"
"681","8076.277"
"682","8049.208"
"683","8038.413"
"684","8039.658"
"685","8047.93"
"686","8058.315"
"687","8067.138"
"688","8071.699"
"689","8069.335"
"690","8058.823"
"691","8048.241"
"692","8049.354"
"693","8073.909"
"694","8126.195"
"695","8188.201"
"696","8237.799"
"697","8253.243"
"698","8229.82"
"699","8187.58"
"700","8148.472"
"701","8132.824"
"702","8139.088"
"703","8149.809"
"704","8147.202"
"705","8118.177"
"706","8075.69"
"707","8041.712"
"708","8038.145"
"709","8074.497"
"710","8129.551"
"711","8177.439"
"712","8193.025"
"713","8172.573"
"714","8137.425"
"715","8110.315"
"716","8111.673"
"717","8140.055"
"718","8181.796"
"719","8223.121"
"720","8252.549"
"721","8267.55"
"722","8267.813"
"723","8253.077"
"724","8227.693"
"725","8203.942"
"726","8194.875"
"727","8212.492"
"728","8252.758"
"729","8298.853"
"730","8333.639"
"731","8343.164"
"732","8331.453"
"733","8308.855"
"734","8285.695"
"735","8269.023"
"736","8258.329"
"737","8252.015"
"738","8248.534"
"739","8247.188"
"740","8248.155"
"741","8251.653"
"742","8258.063"
"743","8268.938"
"744","8286.365"
"745","8312.42"
"746","8346.84"
"747","8382.643"
"748","8411.67"
"749","8426.008"
"750","8425.351"
"751","8418.523"
"752","8414.88"
"753","8422.132"
"754","8433.852"
"755","8436.36"
"756","8415.941"
"757","8367.678"
"758","8314.688"
"759","8285.65"
"760","8308.479"
"761","8383.771"
"762","8477.04"
"763","8551.545"
"764","8574.769"
"765","8552.357"
"766","8510.335"
"767","8474.877"
"768","8464.205"
"769","8470.962"
"770","8482.662"
"771","8487.103"
"772","8481.83"
"773","8476.644"
"774","8482.114"
"775","8507.056"
"776","8545.373"
"777","8583.419"
"778","8607.504"
"779","8610.003"
"780","8601.137"
"781","8594.387"
"782","8602.88"
"783","8629.962"
"784","8667.93"
"785","8708.496"
"786","8743.843"
"787","8769.499"
"788","8782.471"
"789","8779.778"
"790","8762.593"
"791","8742.302"
"792","8731.818"
"793","8743.337"
"794","8774.516"
"795","8809.459"
"796","8831.778"
"797","8828.389"
"798","8804.554"
"799","8771.855"
"800","8741.838"
"801","8722.149"
"802","8713.063"
"803","8714.043"
"804","8724.424"
"805","8741.928"
"806","8763.131"
"807","8784.59"
"808","8803.351"
"809","8818.384"
"810","8829.129"
"811","8835.071"
"812","8837.508"
"813","8840.188"
"814","8847.032"
"815","8861.182"
"816","8879.415"
"817","8895.386"
"818","8902.739"
"819","8899.046"
"820","8891.925"
"821","8890.563"
"822","8903.646"
"823","8930.188"
"824","8960.529"
"825","8984.694"
"826","8995.174"
"827","8996.486"
"828","8996.836"
"829","9004.318"
"830","9020.657"
"831","9037.521"
"832","9045.699"
"833","9037.235"
"834","9015.979"
"835","8992.287"
"836","8976.577"
"837","8975.686"
"838","8986.612"
"839","9004.676"
"840","9025.19"
"841","9043.262"
"842","9053.807"
"843","9051.738"
"844","9033.91"
"845","9006.531"
"846","8978.616"
"847","8959.146"
"848","8954.99"
"849","8969.896"
"850","9007.357"
"851","9068.732"
"852","9137.584"
"853","9188.62"
"854","9196.551"
"855","9152.554"
"856","9086.801"
"857","9035.107"
"858","9031.082"
"859","9075.334"
"860","9142.954"
"861","9208.382"
"862","9251.877"
"863","9275.57"
"864","9286.717"
"865","9292.471"
"866","9296.693"
"867","9299.456"
"868","9300.634"
"869","9300.572"
"870","9302.424"
"871","9310.366"
"872","9328.486"
"873","9354.819"
"874","9377.285"
"875","9382.841"
"876","9360.865"
"877","9322.541"
"878","9290.589"
"879","9287.794"
"880","9324.13"
"881","9379.014"
"882","9427.407"
"883","9445.904"
"884","9433.95"
"885","9407.869"
"886","9384.377"
"887","9376.317"
"888","9383.52"
"889","9403.081"
"890","9432.113"
"891","9467.909"
"892","9507.963"
"893","9549.774"
"894","9590.384"
"895","9624.722"
"896","9647.102"
"897","9652.021"
"898","9641.079"
"899","9625.081"
"900","9615.445"
"901","9621.267"
"902","9637.154"
"903","9652.142"
"904","9655.355"
"905","9643.701"
"906","9626.942"
"907","9616.047"
"908","9620.56"
"909","9638.306"
"910","9661.347"
"911","9681.732"
"912","9695.018"
"913","9703.993"
"914","9712.347"
"915","9723.61"
"916","9739.589"
"917","9761.046"
"918","9788.723"
"919","9818.878"
"920","9836.461"
"921","9824.657"
"922","9768.887"
"923","9685.056"
"924","9611.108"
"925","9585.471"
"926","9629.686"
"927","9714.263"
"928","9800.096"
"929","9849.824"
"930","9856.113"
"931","9836.833"
"932","9810.642"
"933","9792.729"
"934","9786.045"
"935","9790.83"
"936","9807.228"
"937","9833.236"
"938","9864.813"
"939","9897.833"
"940","9927.791"
"941","9948.684"
"942","9954.124"
"943","9938.165"
"944","9905.983"
"945","9874.466"
"946","9861.062"
"947","9877.542"
"948","9910.418"
"949","9939.172"
"950","9943.822"
"951","9920.53"
"952","9883.823"
"953","9849.223"
"954","9829.805"
"955","9826.858"
"956","9838.128"
"957","9861.307"
"958","9892.241"
"959","9924.565"
"960","9951.781"
"961","9968.151"
"962","9971.817"
"963","9962.139"
"964","9938.641"
"965","9906.72"
"966","9879.063"
"967","9868.822"
"968","9885.242"
"969","9917.232"
"970","9947.121"
"971","9957.616"
"972","9945.725"
"973","9926.472"
"974","9916.036"
"975","9926.064"
"976","9944.563"
"977","9951.86"
"978","9928.804"
"979","9875.319"
"980","9815.174"
"981","9773.644"
"982","9770.693"
"983","9799.121"
"984","9843.092"
"985","9886.987"
"986","9923.05"
"987","9953.068"
"988","9979.404"
"989","10003.78"
"990","10024.74"
"991","10039.89"
"992","10046.84"
"993","10044.08"
"994","10031.07"
"995","10007.37"
"996","9974.974"
"997","9947.237"
"998","9940.749"
"999","9971.395"
"1000","10036.1"
"1001","10111.24"
"1002","10172.13"
"1003","10199.83"
"1004","10199.48"
"1005","10182.55"
"1006","10160.5"
"1007","10141.85"
"1008","10127.71"
"1009","10118.07"
"1010","10112.93"
"1011","10112.73"
"1012","10118.14"
"1013","10129.82"
"1014","10145.56"
"1015","10157.58"
"1016","10157.43"
"1017","10138.72"
"1018","10110.58"
"1019","10089.26"
"1020","10090.83"
"1021","10121.72"
"1022","10173.85"
"1023","10237.98"
"1024","10304.83"
"1025","10365.06"
"1026","10409.29"
"1027","10428.56"
"1028","10425.18"
"1029","10413.89"
"1030","10410.11"
"1031","10425.23"
"1032","10455.8"
"1033","10494.97"
"1034","10535.78"
"1035","10569.7"
"1036","10586.98"
"1037","10577.87"
"1038","10541.51"
"1039","10499.05"
"1040","10474.98"
"1041","10490.31"
"1042","10534.3"
"1043","10579.35"
"1044","10597.93"
"1045","10580.6"
"1046","10547.21"
"1047","10520.36"
"1048","10518.46"
"1049","10537.24"
"1050","10564.69"
"1051","10589.08"
"1052","10605.18"
"1053","10614.62"
"1054","10619.37"
"1055","10620.66"
"1056","10617.45"
"1057","10608.24"
"1058","10592.18"
"1059","10576.33"
"1060","10572.86"
"1061","10593.97"
"1062","10640.44"
"1063","10691.34"
"1064","10723.3"
"1065","10718.04"
"1066","10688.62"
"1067","10660.09"
"1068","10656.79"
"1069","10682.12"
"1070","10716.2"
"1071","10737.91"
"1072","10733.95"
"1073","10716.66"
"1074","10703.68"
"1075","10710.86"
"1076","10733.87"
"1077","10755.67"
"1078","10759.13"
"1079","10739.31"
"1080","10712.49"
"1081","10697.15"
"1082","10708.32"
"1083","10742.86"
"1084","10791.56"
"1085","10845.16"
"1086","10893.39"
"1087","10925"
"1088","10928.73"
"1089","10900.64"
"1090","10855.72"
"1091","10811.94"
"1092","10785.84"
"1093","10781.96"
"1094","10799.15"
"1095","10835.94"
"1096","10880.61"
"1097","10908.33"
"1098","10893.41"
"1099","10823.13"
"1100","10730.53"
"1101","10658.77"
"1102","10647.03"
"1103","10689.83"
"1104","10753.75"
"1105","10805.22"
"1106","10826.05"
"1107","10822.86"
"1108","10804.5"
"1109","10779.71"
"1110","10756.67"
"1111","10743.43"
"1112","10747.23"
"1113","10763.81"
"1114","10780.39"
"1115","10784.03"
"1116","10768.6"
"1117","10740.63"
"1118","10708.04"
"1119","10679.32"
"1120","10665.82"
"1121","10679.76"
"1122","10731.93"
"1123","10808.89"
"1124","10877.52"
"1125","10904.27"
"1126","10876.86"
"1127","10825.25"
"1128","10784.46"
"1129","10781.45"
"1130","10800.49"
"1131","10811.78"
"1132","10787.53"
"1133","10733.82"
"1134","10684.46"
"1135","10673.93"
"1136","10714.48"
"1137","10774.95"
"1138","10819.19"
"1139","10820.15"
"1140","10796.73"
"1141","10782.17"
"1142","10807.06"
"1143","10862.06"
"1144","10907.43"
"1145","10903"
"1146","10840.03"
"1147","10764.84"
"1148","10729.39"
"1149","10769.52"
"1150","10851.19"
"1151","10921.41"
"1152","10932.09"
"1153","10893.1"
"1154","10852.04"
"1155","10856.45"
"1156","10916.46"
"1157","10987.73"
"1158","11021.61"
"1159","10988.13"
"1160","10921.17"
"1161","10868.19"
"1162","10871.01"
"1163","10922.65"
"1164","10991.22"
"1165","11045.32"
"1166","11072.92"
"1167","11083.68"
"1168","11088.37"
"1169","11094.19"
"1170","11099.35"
"1171","11100.7"
"1172","11096.3"
"1173","11091.15"
"1174","11092.75"
"1175","11107.67"
"1176","11127.39"
"1177","11131.48"
"1178","11099.43"
"1179","11032.88"
"1180","10970.43"
"1181","10954.2"
"1182","11010.61"
"1183","11108.1"
"1184","11201.67"
"1185","11251.12"
"1186","11257.85"
"1187","11244.7"
"1188","11234.21"
"1189","11237.17"
"1190","11251.88"
"1191","11276.08"
"1192","11306.63"
"1193","11338.61"
"1194","11366.85"
"1195","11387.47"
"1196","11402.72"
"1197","11416.68"
"1198","11432.65"
"1199","11445.55"
"1200","11445.07"
"1201","11421.21"
"1202","11377.87"
"1203","11335.94"
"1204","11317.35"
"1205","11332.17"
"1206","11361.44"
"1207","11381.8"
"1208","11374.9"
"1209","11348.4"
"1210","11318.33"
"1211","11299.47"
"1212","11291.77"
"1213","11285.56"
"1214","11271.33"
"1215","11251.17"
"1216","11241.35"
"1217","11259.03"
"1218","11309.4"
"1219","11369.28"
"1220","11411.4"
"1221","11415.7"
"1222","11397"
"1223","11380.56"
"1224","11388.99"
"1225","11417.99"
"1226","11447.49"
"1227","11457.86"
"1228","11445.47"
"1229","11423.96"
"1230","11407.77"
"1231","11406.27"
"1232","11418.74"
"1233","11443.32"
"1234","11477.85"
"1235","11519.15"
"1236","11563.81"
"1237","11607.76"
"1238","11642.32"
"1239","11656.66"
"1240","11641.11"
"1241","11605"
"1242","11573.18"
"1243","11570.58"
"1244","11602.99"
"1245","11648.79"
"1246","11684.24"
"1247","11692.54"
"1248","11674.7"
"1249","11634.53"
"1250","11579.17"
"1251","11531.57"
"1252","11519.39"
"1253","11565.44"
"1254","11648.42"
"1255","11723.45"
"1256","11747.51"
"1257","11718.64"
"1258","11672.36"
"1259","11645.24"
"1260","11654.54"
"1261","11687.83"
"1262","11730.13"
"1263","11768.51"
"1264","11795.46"
"1265","11804.39"
"1266","11791.38"
"1267","11765.24"
"1268","11738.47"
"1269","11722.53"
"1270","11720.01"
"1271","11729.11"
"1272","11747.58"
"1273","11766.78"
"1274","11772.8"
"1275","11752.05"
"1276","11711.58"
"1277","11685.63"
"1278","11710.23"
"1279","11794.99"
"1280","11892.97"
"1281","11949.92"
"1282","11929.66"
"1283","11860.51"
"1284","11785.15"
"1285","11740.21"
"1286","11725.91"
"1287","11728.98"
"1288","11736.64"
"1289","11741.64"
"1290","11740.02"
"1291","11728.2"
"1292","11710.34"
"1293","11697.61"
"1294","11701.4"
"1295","11729.08"
"1296","11782.42"
"1297","11862.7"
"1298","11961.98"
"1299","12052.29"
"1300","12103.06"
"1301","12095.56"
"1302","12051.27"
"1303","12000.22"
"1304","11967.29"
"1305","11949.68"
"1306","11935.35"
"1307","11914.14"
"1308","11892.04"
"1309","11883.35"
"1310","11900.96"
"1311","11936.57"
"1312","11965.91"
"1313","11965.2"
"1314","11935.49"
"1315","11905.08"
"1316","11903.36"
"1317","11937.64"
"1318","11980.25"
"1319","12000.48"
"1320","11983.87"
"1321","11953.37"
"1322","11937.2"
"1323","11953.23"
"1324","11984.27"
"1325","12005.73"
"1326","11998.33"
"1327","11969.4"
"1328","11934.61"
"1329","11908.59"
"1330","11898.32"
"1331","11907.31"
"1332","11938.07"
"1333","11981.41"
"1334","12020.8"
"1335","12040.15"
"1336","12033.12"
"1337","12001.84"
"1338","11948.96"
"1339","11884.24"
"1340","11825.86"
"1341","11792.25"
"1342","11788.9"
"1343","11800.7"
"1344","11810.78"
"1345","11811.53"
"1346","11815.1"
"1347","11836.17"
"1348","11881.89"
"1349","11937.48"
"1350","11984.21"
"1351","12008.47"
"1352","12017.1"
"1353","12021.96"
"1354","12032.48"
"1355","12044.91"
"1356","12051.14"
"1357","12044.79"
"1358","12032.13"
"1359","12025.03"
"1360","12033.51"
"1361","12048.92"
"1362","12051.92"
"1363","12025.24"
"1364","11982.42"
"1365","11959.43"
"1366","11990.69"
"1367","12068.83"
"1368","12148.01"
"1369","12181.95"
"1370","12155.17"
"1371","12087.5"
"1372","12000.81"
"1373","11919.76"
"1374","11873.07"
"1375","11889.39"
"1376","11967.03"
"1377","12050.98"
"1378","12080.97"
"1379","12032.63"
"1380","11959.04"
"1381","11923.42"
"1382","11958.52"
"1383","12016.43"
"1384","12036.07"
"1385","11982.05"
"1386","11902.53"
"1387","11862.54"
"1388","11906.29"
"1389","11995.56"
"1390","12071.82"
"1391","12089.34"
"1392","12063.52"
"1393","12027.92"
"1394","12010.42"
"1395","12006.35"
"1396","11999.49"
"1397","11977.19"
"1398","11950.94"
"1399","11942.31"
"1400","11968.13"
"1401","12006.88"
"1402","12018.48"
"1403","11968.68"
"1404","11879.93"
"1405","11806.08"
"1406","11796.36"
"1407","11843.32"
"1408","11903.9"
"1409","11937.16"
"1410","11937.74"
"1411","11925.43"
"1412","11919.89"
"1413","11930.44"
"1414","11958.3"
"1415","12003.75"
"1416","12054.62"
"1417","12087.92"
"1418","12081.46"
"1419","12038.33"
"1420","11985.53"
"1421","11950.11"
"1422","11936.28"
"1423","11924.75"
"1424","11896.03"
"1425","11856.97"
"1426","11843.56"
"1427","11891.98"
"1428","11995.96"
"1429","12098.99"
"1430","12142.92"
"1431","12116.46"
"1432","12067.14"
"1433","12045.4"
"1434","12068.26"
"1435","12108.76"
"1436","12137.37"
"1437","12145.78"
"1438","12154.79"
"1439","12186.83"
"1440","12241.54"
"1441","12286.2"
"1442","12286.13"
"1443","12235.25"
"1444","12169.06"
"1445","12125.97"
"1446","12124.18"
"1447","12151.93"
"1448","12195.09"
"1449","12243.89"
"1450","12295.07"
"1451","12345.75"
"1452","12385.34"
"1453","12391.64"
"1454","12341.99"
"1455","12239.31"
"1456","12124.51"
"1457","12041.11"
"1458","12008.4"
"1459","12010.21"
"1460","12027.67"
"1461","12048.5"
"1462","12069.79"
"1463","12089.2"
"1464","12097.94"
"1465","12078.25"
"1466","12012.43"
"1467","11912.22"
"1468","11828.47"
"1469","11813.4"
"1470","11868.8"
"1471","11932.71"
"1472","11940.44"
"1473","11875.53"
"1474","11779.27"
"1475","11695.7"
"1476","11648.97"
"1477","11640.89"
"1478","11671.39"
"1479","11722.71"
"1480","11758.59"
"1481","11743.59"
"1482","11679.4"
"1483","11603.68"
"1484","11554.06"
"1485","11540.19"
"1486","11546.83"
"1487","11558.18"
"1488","11562.8"
"1489","11552.77"
"1490","11521.09"
"1491","11472.26"
"1492","11419.11"
"1493","11374.36"
"1494","11347.21"
"1495","11344.53"
"1496","11371.37"
"1497","11414.36"
"1498","11449.61"
"1499","11456.58"
"1500","11444.62"
"1501","11438.05"
"1502","11456.48"
"1503","11484.66"
"1504","11492.16"
"1505","11456.64"
"1506","11405.17"
"1507","11383.28"
"1508","11423.4"
"1509","11491.6"
"1510","11532.97"
"1511","11509.11"
"1512","11451.21"
"1513","11408.81"
"1514","11414.9"
"1515","11444.85"
"1516","11461.49"
"1517","11441.75"
"1518","11403.09"
"1519","11370.11"
"1520","11357.4"
"1521","11355.97"
"1522","11353.52"
"1523","11342.66"
"1524","11325.44"
"1525","11304.97"
"1526","11283.46"
"1527","11261.71"
"1528","11240.39"
"1529","11219.77"
"1530","11199.63"
"1531","11179.56"
"1532","11155.29"
"1533","11118.55"
"1534","11061.83"
"1535","10992.55"
"1536","10930.41"
"1537","10894.49"
"1538","10891.68"
"1539","10920.93"
"1540","10979.32"
"1541","11048.83"
"1542","11103.76"
"1543","11123.39"
"1544","11119.49"
"1545","11116.61"
"1546","11133.53"
"1547","11161.35"
"1548","11182.93"
"1549","11186.8"
"1550","11181.37"
"1551","11179.43"
"1552","11187.41"
"1553","11195.07"
"1554","11189.55"
"1555","11168.82"
"1556","11151.83"
"1557","11159.62"
"1558","11193.75"
"1559","11227.46"
"1560","11232.67"
"1561","11206.34"
"1562","11172.53"
"1563","11155.28"
"1564","11155.36"
"1565","11154.82"
"1566","11136.97"
"1567","11103.88"
"1568","11068.69"
"1569","11043.25"
"1570","11029.47"
"1571","11025.05"
"1572","11027.9"
"1573","11037.17"
"1574","11052.33"
"1575","11073.49"
"1576","11102.75"
"1577","11142.55"
"1578","11185.6"
"1579","11202.64"
"1580","11161.96"
"1581","11066.66"
"1582","10974.59"
"1583","10946.7"
"1584","10995.52"
"1585","11080.29"
"1586","11158.46"
"1587","11202.87"
"1588","11198.23"
"1589","11134.52"
"1590","11046.89"
"1591","10994.36"
"1592","11022.28"
"1593","11096.83"
"1594","11156.22"
"1595","11156.72"
"1596","11121.15"
"1597","11087.51"
"1598","11079.61"
"1599","11087.65"
"1600","11096.99"
"1601","11097.17"
"1602","11084.21"
"1603","11055.16"
"1604","11018.34"
"1605","10993.83"
"1606","11000.14"
"1607","11029.45"
"1608","11055.72"
"1609","11057.96"
"1610","11054.67"
"1611","11081.87"
"1612","11159.99"
"1613","11240.2"
"1614","11254.52"
"1615","11173.51"
"1616","11071.72"
"1617","11040.36"
"1618","11106.04"
"1619","11186.55"
"1620","11192.13"
"1621","11112.43"
"1622","11021.98"
"1623","10994.04"
"1624","11033.21"
"1625","11097.6"
"1626","11148.75"
"1627","11177.7"
"1628","11187.72"
"1629","11183.93"
"1630","11178.33"
"1631","11184.62"
"1632","11205.15"
"1633","11216.26"
"1634","11191.32"
"1635","11133.28"
"1636","11086.01"
"1637","11093.49"
"1638","11149.24"
"1639","11204.32"
"1640","11214.71"
"1641","11190"
"1642","11166.86"
"1643","11173.47"
"1644","11197.82"
"1645","11216.29"
"1646","11213.47"
"1647","11195.17"
"1648","11170.54"
"1649","11147.45"
"1650","11131.89"
"1651","11129.49"
"1652","11142.34"
"1653","11169.37"
"1654","11208.61"
"1655","11251.15"
"1656","11284.55"
"1657","11299.33"
"1658","11298.86"
"1659","11290.08"
"1660","11273.79"
"1661","11236.28"
"1662","11162.42"
"1663","11065.09"
"1664","10994.06"
"1665","10997.08"
"1666","11055.26"
"1667","11099.95"
"1668","11072.88"
"1669","10993.81"
"1670","10914.52"
"1671","10874.53"
"1672","10871.03"
"1673","10892.16"
"1674","10918.82"
"1675","10919.09"
"1676","10861.65"
"1677","10759.9"
"1678","10671.02"
"1679","10647.55"
"1680","10682.93"
"1681","10739.21"
"1682","10783.7"
"1683","10807.78"
"1684","10809.33"
"1685","10788.87"
"1686","10752.61"
"1687","10707.52"
"1688","10661.12"
"1689","10621.48"
"1690","10595.73"
"1691","10580.35"
"1692","10565.43"
"1693","10545.21"
"1694","10534.75"
"1695","10555.33"
"1696","10607.24"
"1697","10641.77"
"1698","10605.11"
"1699","10504.88"
"1700","10421.5"
"1701","10431.04"
"1702","10515.55"
"1703","10599.8"
"1704","10623.28"
"1705","10599.46"
"1706","10563.62"
"1707","10541.01"
"1708","10534.5"
"1709","10543.79"
"1710","10562.69"
"1711","10578.62"
"1712","10579.81"
"1713","10565.7"
"1714","10541.8"
"1715","10513.16"
"1716","10482.49"
"1717","10451.95"
"1718","10423.78"
"1719","10400.46"
"1720","10384.49"
"1721","10378.41"
"1722","10384.76"
"1723","10404.47"
"1724","10426.67"
"1725","10435.43"
"1726","10421.04"
"1727","10393"
"1728","10364.44"
"1729","10347.4"
"1730","10352.36"
"1731","10386.93"
"1732","10425.18"
"1733","10418.78"
"1734","10337.7"
"1735","10241.76"
"1736","10217.35"
"1737","10296.14"
"1738","10397.16"
"1739","10429.37"
"1740","10385.26"
"1741","10336.55"
"1742","10346.8"
"1743","10399.11"
"1744","10441.89"
"1745","10442.26"
"1746","10421.54"
"1747","10410.16"
"1748","10415.56"
"1749","10416.2"
"1750","10391.44"
"1751","10348.79"
"1752","10311.8"
"1753","10298.93"
"1754","10308.51"
"1755","10333.96"
"1756","10358.82"
"1757","10351.13"
"1758","10281.98"
"1759","10181.68"
"1760","10122.14"
"1761","10154.74"
"1762","10230.3"
"1763","10270.63"
"1764","10246.03"
"1765","10217.75"
"1766","10251.95"
"1767","10330.8"
"1768","10368.6"
"1769","10300.77"
"1770","10187.63"
"1771","10130.95"
"1772","10175.68"
"1773","10248.38"
"1774","10265.21"
"1775","10224.61"
"1776","10196.94"
"1777","10238.25"
"1778","10307.88"
"1779","10330.81"
"1780","10272.59"
"1781","10186.49"
"1782","10135.24"
"1783","10141.72"
"1784","10193.43"
"1785","10273.07"
"1786","10343.14"
"1787","10359.13"
"1788","10309.01"
"1789","10249.14"
"1790","10240.86"
"1791","10279.98"
"1792","10306.78"
"1793","10273.04"
"1794","10201.44"
"1795","10137.86"
"1796","10111.56"
"1797","10119.84"
"1798","10155.72"
"1799","10202.32"
"1800","10235.25"
"1801","10234.61"
"1802","10202.03"
"1803","10145.43"
"1804","10082.12"
"1805","10044.83"
"1806","10064.5"
"1807","10133.58"
"1808","10219.89"
"1809","10292.79"
"1810","10329.1"
"1811","10307.93"
"1812","10235.91"
"1813","10156.12"
"1814","10109.14"
"1815","10091.7"
"1816","10078.45"
"1817","10055.32"
"1818","10039.92"
"1819","10054.16"
"1820","10092.92"
"1821","10123.74"
"1822","10119.38"
"1823","10091.47"
"1824","10065.83"
"1825","10055.86"
"1826","10050.38"
"1827","10036.58"
"1828","10019.34"
"1829","10016.36"
"1830","10038.37"
"1831","10067.31"
"1832","10078.42"
"1833","10067.83"
"1834","10059.8"
"1835","10076.45"
"1836","10106.53"
"1837","10122.62"
"1838","10108.47"
"1839","10075.99"
"1840","10041.24"
"1841","10016.75"
"1842","10012.01"
"1843","10031.14"
"1844","10053.48"
"1845","10051.42"
"1846","10020.39"
"1847","9990.78"
"1848","9991.63"
"1849","10013.1"
"1850","10024.81"
"1851","10008.65"
"1852","9979.596"
"1853","9957.244"
"1854","9946.969"
"1855","9941.498"
"1856","9933.472"
"1857","9917.303"
"1858","9888.097"
"1859","9850.863"
"1860","9824.919"
"1861","9828.431"
"1862","9860.821"
"1863","9912.39"
"1864","9965.909"
"1865","9986.929"
"1866","9942.431"
"1867","9858.638"
"1868","9807.244"
"1869","9836.455"
"1870","9901.226"
"1871","9935.909"
"1872","9920.193"
"1873","9886.619"
"1874","9866.157"
"1875","9861.931"
"1876","9866.72"
"1877","9874.243"
"1878","9879.889"
"1879","9880.478"
"1880","9885.113"
"1881","9909.746"
"1882","9955.204"
"1883","9983.477"
"1884","9953.963"
"1885","9883.975"
"1886","9837.157"
"1887","9858.452"
"1888","9917.366"
"1889","9966.485"
"1890","9981.697"
"1891","9964.735"
"1892","9920.284"
"1893","9861.662"
"1894","9805.203"
"1895","9772.036"
"1896","9790.444"
"1897","9879.725"
"1898","9986.026"
"1899","10022.17"
"1900","9950.337"
"1901","9831.816"
"1902","9736.15"
"1903","9693.522"
"1904","9710.359"
"1905","9775.229"
"1906","9831.021"
"1907","9818.443"
"1908","9758.031"
"1909","9731.709"
"1910","9789.916"
"1911","9871.845"
"1912","9896.556"
"1913","9853.091"
"1914","9796.971"
"1915","9775.067"
"1916","9786.271"
"1917","9816.74"
"1918","9849.115"
"1919","9862.022"
"1920","9840.123"
"1921","9800.463"
"1922","9769.994"
"1923","9755.034"
"1924","9734.183"
"1925","9689.751"
"1926","9638.829"
"1927","9611.244"
"1928","9612.295"
"1929","9609.497"
"1930","9575.747"
"1931","9545.161"
"1932","9577.603"
"1933","9675.592"
"1934","9742.781"
"1935","9691.799"
"1936","9586.636"
"1937","9562.946"
"1938","9669.857"
"1939","9792.919"
"1940","9812.89"
"1941","9729.166"
"1942","9602.239"
"1943","9488.813"
"1944","9436.761"
"1945","9484.871"
"1946","9596.446"
"1947","9694.037"
"1948","9729.834"
"1949","9718.513"
"1950","9681.91"
"1951","9635.78"
"1952","9592.552"
"1953","9564.081"
"1954","9561.021"
"1955","9591.104"
"1956","9635.546"
"1957","9660.998"
"1958","9651.684"
"1959","9628.357"
"1960","9614.793"
"1961","9620.631"
"1962","9647.884"
"1963","9686.077"
"1964","9700.348"
"1965","9660.04"
"1966","9595.626"
"1967","9568.24"
"1968","9602.864"
"1969","9657.38"
"1970","9685.363"
"1971","9663.984"
"1972","9581.84"
"1973","9463.627"
"1974","9394.363"
"1975","9445.75"
"1976","9557.682"
"1977","9616.148"
"1978","9578.619"
"1979","9509.512"
"1980","9471.476"
"1981","9464.446"
"1982","9465.805"
"1983","9461.908"
"1984","9450.821"
"1985","9434.211"
"1986","9427.596"
"1987","9449.861"
"1988","9494.045"
"1989","9524.744"
"1990","9516.387"
"1991","9489.069"
"1992","9472.742"
"1993","9464.664"
"1994","9432.292"
"1995","9358.17"
"1996","9276.707"
"1997","9230.575"
"1998","9231.302"
"1999","9267.46"
"2000","9320.69"
"2001","9356.811"
"2002","9343.732"
"2003","9296.188"
"2004","9255.877"
"2005","9244.03"
"2006","9242.001"
"2007","9231.881"
"2008","9233.958"
"2009","9284.32"
"2010","9366.08"
"2011","9385.712"
"2012","9273.584"
"2013","9115.563"
"2014","9043.775"
"2015","9084.327"
"2016","9149.453"
"2017","9167.178"
"2018","9143.849"
"2019","9103.659"
"2020","9072.488"
"2021","9077.521"
"2022","9127.297"
"2023","9183.654"
"2024","9205.165"
"2025","9188.367"
"2026","9150.536"
"2027","9103.368"
"2028","9048.6"
"2029","8989.851"
"2030","8947.689"
"2031","8948.108"
"2032","8989.037"
"2033","9035.68"
"2034","9061.329"
"2035","9077.352"
"2036","9102.447"
"2037","9128.833"
"2038","9128.136"
"2039","9086.111"
"2040","9023.652"
"2041","8964.861"
"2042","8916.867"
"2043","8878.384"
"2044","8852.251"
"2045","8847.645"
"2046","8868.09"
"2047","8886.646"
"2048","8869.001"
"2049","8824.247"
"2050","8802.647"
"2051","8830.481"
"2052","8860.32"
"2053","8838.099"
"2054","8777.31"
"2055","8730.237"
"2056","8712.687"
"2057","8678.09"
"2058","8590.878"
"2059","8507.998"
"2060","8513.825"
"2061","8603.898"
"2062","8685.045"
"2063","8696.173"
"2064","8682.438"
"2065","8701.378"
"2066","8738.4"
"2067","8737.842"
"2068","8682.48"
"2069","8618.463"
"2070","8585.47"
"2071","8560.985"
"2072","8506.034"
"2073","8440.996"
"2074","8440.14"
"2075","8530.904"
"2076","8615.179"
"2077","8591.676"
"2078","8499.521"
"2079","8445.471"
"2080","8467.364"
"2081","8508.983"
"2082","8520.175"
"2083","8501.707"
"2084","8466.475"
"2085","8421.861"
"2086","8371.36"
"2087","8323.471"
"2088","8296.473"
"2089","8303.105"
"2090","8317.336"
"2091","8300.681"
"2092","8248.622"
"2093","8189.954"
"2094","8146.836"
"2095","8119.896"
"2096","8107.54"
"2097","8118.519"
"2098","8166.049"
"2099","8242.634"
"2100","8314.32"
"2101","8355.124"
"2102","8373.191"
"2103","8381.833"
"2104","8369.302"
"2105","8308.855"
"2106","8200.519"
"2107","8086.929"
"2108","8011.309"
"2109","8002.254"
"2110","8078.567"
"2111","8176.549"
"2112","8172.557"
"2113","8037.031"
"2114","7918.419"
"2115","7947.787"
"2116","8064.095"
"2117","8148.857"
"2118","8159.937"
"2119","8119.065"
"2120","8048.378"
"2121","7966.633"
"2122","7893.565"
"2123","7856.322"
"2124","7881.789"
"2125","7938.939"
"2126","7944.589"
"2127","7864.376"
"2128","7777.424"
"2129","7763.412"
"2130","7810.517"
"2131","7872.708"
"2132","7906.704"
"2133","7871.97"
"2134","7764.487"
"2135","7662.603"
"2136","7640.938"
"2137","7681.726"
"2138","7733.733"
"2139","7766.026"
"2140","7766.258"
"2141","7736.19"
"2142","7706.75"
"2143","7706.229"
"2144","7725.747"
"2145","7743.56"
"2146","7741.703"
"2147","7705.608"
"2148","7644.281"
"2149","7613.154"
"2150","7649.304"
"2151","7669.78"
"2152","7565.598"
"2153","7397.48"
"2154","7352.192"
"2155","7480.641"
"2156","7594.541"
"2157","7538.912"
"2158","7400.474"
"2159","7319.663"
"2160","7321.802"
"2161","7359.404"
"2162","7391.667"
"2163","7389.041"
"2164","7337.876"
"2165","7275.103"
"2166","7243.001"
"2167","7238.095"
"2168","7234.455"
"2169","7227.459"
"2170","7236.706"
"2171","7271.436"
"2172","7311.238"
"2173","7331.334"
"2174","7309.207"
"2175","7226.346"
"2176","7120.383"
"2177","7076.236"
"2178","7112.758"
"2179","7123.595"
"2180","7027.08"
"2181","6907.052"
"2182","6879.886"
"2183","6930.115"
"2184","6963.259"
"2185","6950.822"
"2186","6951.808"
"2187","6992.436"
"2188","6988.39"
"2189","6858.785"
"2190","6679.279"
"2191","6584.629"
"2192","6605.14"
"2193","6678.95"
"2194","6753.659"
"2195","6800.373"
"2196","6799.45"
"2197","6759.278"
"2198","6695.175"
"2199","6619.622"
"2200","6544.063"
"2201","6495.774"
"2202","6520.284"
"2203","6616.846"
"2204","6670.16"
"2205","6581.735"
"2206","6437.244"
"2207","6373.784"
"2208","6388.946"
"2209","6383.418"
"2210","6326.24"
"2211","6286.115"
"2212","6311.156"
"2213","6366.511"
"2214","6406.753"
"2215","6416.856"
"2216","6394.137"
"2217","6341.393"
"2218","6266.013"
"2219","6187.66"
"2220","6145.18"
"2221","6160.231"
"2222","6192.792"
"2223","6201.059"
"2224","6219.673"
"2225","6309.971"
"2226","6425.914"
"2227","6431.532"
"2228","6276.354"
"2229","6054.679"
"2230","5866.897"
"2231","5788.188"
"2232","5868.172"
"2233","6012.989"
"2234","6075.479"
"2235","6039.597"
"2236","5996.342"
"2237","5978.124"
"2238","5921.292"
"2239","5793.84"
"2240","5685.334"
"2241","5685.382"
"2242","5738.715"
"2243","5742.019"
"2244","5701.453"
"2245","5702.066"
"2246","5754.912"
"2247","5767.917"
"2248","5682.212"
"2249","5543.711"
"2250","5410.77"
"2251","5319.606"
"2252","5294.212"
"2253","5302.001"
"2254","5278.39"
"2255","5223.164"
"2256","5207.258"
"2257","5265.619"
"2258","5353.358"
"2259","5410.107"
"2260","5353.737"
"2261","5120.949"
"2262","4831.724"
"2263","4679.594"
"2264","4683.36"
"2265","4718.416"
"2266","4713.121"
"2267","4679.575"
"2268","4631.456"
"2269","4569.133"
"2270","4495.54"
"2271","4437.014"
"2272","4417.949"
"2273","4371.807"
"2274","4188.356"
"2275","3937.228"
"2276","3864.112"
"2277","4027.467"
"2278","4151.822"
"2279","4041.723"
"2280","3848.94"
"2281","3754.599"
"2282","3728.446"
"2283","3674.91"
"2284","3597.314"
"2285","3556.998"
"2286","3535.902"
"2287","3432.677"
"2288","3235.33"
"2289","3097.772"
"2290","3114.93"
"2291","3144.936"
"2292","3039.039"
"2293","2867.894"
"2294","2763.995"
"2295","2709.011"
"2296","2599.34"
"2297","2437.327"
"2298","2330.112"
"2299","2307.603"
"2300","2266.419"
