,"Scan 01182"
"400","7978.975"
"401","7992.181"
"402","8007.281"
"403","8014.414"
"404","8015.647"
"405","8016.864"
"406","8023.908"
"407","8041.053"
"408","8060.213"
"409","8067.388"
"410","8048.638"
"411","7991.955"
"412","7909.239"
"413","7828.968"
"414","7779.754"
"415","7788.699"
"416","7853.764"
"417","7944.525"
"418","8029.576"
"419","8078.24"
"420","8081.199"
"421","8057.8"
"422","8029.286"
"423","8016.631"
"424","8028.878"
"425","8053.253"
"426","8074.725"
"427","8078.389"
"428","8057.703"
"429","8026.868"
"430","8003.18"
"431","8003.811"
"432","8038.743"
"433","8093.938"
"434","8150.378"
"435","8189.187"
"436","8196.238"
"437","8178.466"
"438","8148.686"
"439","8119.629"
"440","8101.894"
"441","8093.81"
"442","8089.211"
"443","8081.97"
"444","8066.943"
"445","8046.444"
"446","8026.243"
"447","8012.093"
"448","8009.093"
"449","8016.054"
"450","8028.166"
"451","8040.605"
"452","8048.797"
"453","8051.103"
"454","8047.933"
"455","8039.738"
"456","8027.035"
"457","8011.474"
"458","7995.648"
"459","7982.169"
"460","7973.518"
"461","7969.803"
"462","7968.828"
"463","7968.308"
"464","7965.956"
"465","7958.851"
"466","7943.364"
"467","7915.851"
"468","7872.898"
"469","7818.749"
"470","7767.326"
"471","7733.098"
"472","7730.153"
"473","7758.931"
"474","7800.666"
"475","7835.249"
"476","7842.931"
"477","7818.219"
"478","7777.623"
"479","7739.453"
"480","7721.741"
"481","7730.454"
"482","7751.425"
"483","7768.645"
"484","7766.319"
"485","7739.126"
"486","7700.342"
"487","7665.083"
"488","7648.294"
"489","7655.968"
"490","7677.471"
"491","7700.399"
"492","7712.482"
"493","7707.061"
"494","7688.228"
"495","7661.271"
"496","7631.438"
"497","7601.919"
"498","7571.937"
"499","7540.26"
"500","7505.675"
"501","7468.343"
"502","7431.1"
"503","7397.078"
"504","7369.366"
"505","7348.513"
"506","7330.217"
"507","7309.65"
"508","7282.053"
"509","7246.502"
"510","7209.163"
"511","7176.933"
"512","7156.61"
"513","7149.075"
"514","7144.831"
"515","7133.371"
"516","7104.373"
"517","7056.487"
"518","7003.151"
"519","6959.118"
"520","6938.877"
"521","6946.294"
"522","6969.067"
"523","6993.599"
"524","7006.519"
"525","7001.526"
"526","6982.104"
"527","6952.443"
"528","6916.666"
"529","6877.208"
"530","6834.413"
"531","6788.49"
"532","6739.832"
"533","6693.829"
"534","6661.396"
"535","6653.679"
"536","6681.023"
"537","6737.669"
"538","6802.377"
"539","6853.38"
"540","6870.07"
"541","6849.539"
"542","6803.522"
"543","6744.143"
"544","6683.295"
"545","6630.695"
"546","6594.516"
"547","6582.855"
"548","6602.223"
"549","6643.169"
"550","6686.981"
"551","6714.917"
"552","6710.995"
"553","6680.502"
"554","6638.838"
"555","6601.382"
"556","6581.21"
"557","6577.537"
"558","6584.324"
"559","6595.548"
"560","6605.882"
"561","6613.204"
"562","6616.342"
"563","6614.136"
"564","6606.103"
"565","6594.221"
"566","6581.018"
"567","6569.006"
"568","6560.136"
"569","6554.833"
"570","6553.27"
"571","6555.604"
"572","6560.784"
"573","6565.257"
"574","6565.189"
"575","6556.793"
"576","6538.485"
"577","6512.042"
"578","6479.526"
"579","6443.142"
"580","6409.787"
"581","6391.727"
"582","6401.462"
"583","6450.207"
"584","6527.732"
"585","6605.796"
"586","6655.713"
"587","6652.076"
"588","6603.747"
"589","6540.414"
"590","6491.939"
"591","6483.27"
"592","6505.436"
"593","6534.953"
"594","6548.378"
"595","6528.066"
"596","6483.209"
"597","6430.809"
"598","6387.789"
"599","6366.231"
"600","6363.298"
"601","6373.289"
"602","6390.52"
"603","6408.912"
"604","6421.549"
"605","6421.431"
"606","6401.754"
"607","6363.39"
"608","6317.805"
"609","6277.207"
"610","6253.313"
"611","6248.763"
"612","6257.791"
"613","6274.332"
"614","6292.669"
"615","6310.612"
"616","6328.128"
"617","6345.217"
"618","6361.484"
"619","6374.03"
"620","6378.984"
"621","6372.491"
"622","6352.734"
"623","6325.629"
"624","6298.918"
"625","6280.302"
"626","6274.094"
"627","6276.846"
"628","6284.035"
"629","6291.152"
"630","6293.391"
"631","6285.521"
"632","6262.303"
"633","6219.114"
"634","6162.577"
"635","6109.198"
"636","6075.769"
"637","6076.8"
"638","6106.448"
"639","6147.987"
"640","6184.645"
"641","6203.077"
"642","6206.793"
"643","6204.521"
"644","6204.956"
"645","6213.43"
"646","6226.012"
"647","6237.189"
"648","6241.524"
"649","6237.286"
"650","6228.605"
"651","6220.115"
"652","6216.268"
"653","6218.201"
"654","6223.987"
"655","6231.591"
"656","6239.072"
"657","6245.23"
"658","6249.262"
"659","6250.368"
"660","6248.197"
"661","6244.415"
"662","6241.258"
"663","6240.95"
"664","6244.215"
"665","6248.21"
"666","6249.587"
"667","6245.102"
"668","6235.483"
"669","6226.598"
"670","6224.631"
"671","6235.193"
"672","6256.354"
"673","6280.835"
"674","6301.266"
"675","6311.223"
"676","6309.942"
"677","6298.771"
"678","6279.059"
"679","6253.5"
"680","6228.769"
"681","6212.26"
"682","6211.222"
"683","6225.648"
"684","6244.625"
"685","6256.36"
"686","6249.899"
"687","6226.881"
"688","6198.875"
"689","6177.692"
"690","6173.439"
"691","6185.378"
"692","6208.449"
"693","6237.596"
"694","6267.507"
"695","6292.081"
"696","6305.081"
"697","6300.411"
"698","6278.342"
"699","6248.411"
"700","6220.859"
"701","6205.24"
"702","6201.836"
"703","6204.195"
"704","6205.721"
"705","6201.371"
"706","6194.714"
"707","6192.301"
"708","6200.663"
"709","6222.828"
"710","6253.143"
"711","6284.634"
"712","6310.463"
"713","6327.345"
"714","6336.169"
"715","6338.058"
"716","6334.18"
"717","6326.138"
"718","6315.773"
"719","6304.929"
"720","6295.581"
"721","6290.236"
"722","6291.529"
"723","6302.043"
"724","6320.293"
"725","6337.786"
"726","6345.351"
"727","6334.496"
"728","6307.221"
"729","6273.875"
"730","6245.021"
"731","6229.996"
"732","6231.297"
"733","6248.999"
"734","6283.167"
"735","6330.593"
"736","6380.472"
"737","6420.931"
"738","6440.495"
"739","6436.654"
"740","6416.076"
"741","6385.837"
"742","6352.916"
"743","6323.651"
"744","6304.098"
"745","6300.288"
"746","6314.428"
"747","6337.77"
"748","6359.637"
"749","6369.63"
"750","6366.019"
"751","6357.471"
"752","6353.251"
"753","6361.271"
"754","6377.751"
"755","6392.916"
"756","6396.957"
"757","6384.475"
"758","6364.111"
"759","6347.296"
"760","6345.237"
"761","6361.321"
"762","6388.902"
"763","6420.686"
"764","6449.797"
"765","6473.149"
"766","6489.678"
"767","6498.336"
"768","6498.396"
"769","6490.141"
"770","6474.053"
"771","6450.733"
"772","6424.876"
"773","6406.34"
"774","6405.295"
"775","6430.254"
"776","6475.608"
"777","6528.596"
"778","6576.417"
"779","6609.339"
"780","6626.651"
"781","6629.291"
"782","6618.337"
"783","6598.854"
"784","6580.415"
"785","6572.822"
"786","6583.807"
"787","6606.221"
"788","6626.396"
"789","6630.671"
"790","6613.302"
"791","6588.018"
"792","6571.473"
"793","6579.429"
"794","6609.732"
"795","6643.518"
"796","6661.306"
"797","6648.354"
"798","6616.151"
"799","6585.238"
"800","6576.036"
"801","6597.792"
"802","6638.627"
"803","6684.324"
"804","6721.266"
"805","6743.695"
"806","6751.41"
"807","6744.333"
"808","6723.578"
"809","6694.959"
"810","6665.435"
"811","6641.883"
"812","6627.948"
"813","6622.903"
"814","6625.714"
"815","6635.161"
"816","6648.501"
"817","6662.248"
"818","6672.907"
"819","6678.214"
"820","6679.021"
"821","6676.671"
"822","6672.649"
"823","6671.192"
"824","6679.01"
"825","6702.895"
"826","6745.969"
"827","6793.338"
"828","6824.6"
"829","6819.635"
"830","6775.322"
"831","6715.333"
"832","6665.683"
"833","6649.681"
"834","6665.16"
"835","6695.9"
"836","6725.555"
"837","6742.992"
"838","6751.41"
"839","6756.457"
"840","6763.529"
"841","6773.141"
"842","6781.297"
"843","6783.836"
"844","6777.9"
"845","6766.907"
"846","6756.156"
"847","6750.909"
"848","6754.179"
"849","6765.628"
"850","6784.654"
"851","6810.47"
"852","6840.783"
"853","6872.554"
"854","6902.732"
"855","6928.232"
"856","6945.865"
"857","6952.434"
"858","6945.096"
"859","6926.391"
"860","6903.018"
"861","6881.785"
"862","6867.915"
"863","6860.673"
"864","6857.934"
"865","6857.583"
"866","6857.957"
"867","6857.914"
"868","6856.344"
"869","6852.981"
"870","6852.532"
"871","6861.502"
"872","6886.317"
"873","6927.742"
"874","6977.066"
"875","7024.687"
"876","7061.698"
"877","7085.464"
"878","7096.668"
"879","7096.036"
"880","7086.074"
"881","7073.55"
"882","7065.852"
"883","7069.788"
"884","7084.012"
"885","7101.159"
"886","7113.723"
"887","7116.685"
"888","7113.377"
"889","7108.893"
"890","7108.137"
"891","7111.902"
"892","7116.9"
"893","7119.667"
"894","7118.48"
"895","7119.685"
"896","7131.971"
"897","7163.728"
"898","7211.667"
"899","7257.372"
"900","7281.417"
"901","7268.647"
"902","7230.534"
"903","7188.797"
"904","7165.014"
"905","7168.6"
"906","7188.857"
"907","7213.205"
"908","7230.094"
"909","7236.521"
"910","7233.67"
"911","7222.776"
"912","7208.137"
"913","7200.374"
"914","7210.884"
"915","7249.091"
"916","7303.231"
"917","7348.723"
"918","7360.838"
"919","7327.858"
"920","7270.955"
"921","7216.41"
"922","7188.958"
"923","7192.143"
"924","7214.198"
"925","7243.017"
"926","7269.819"
"927","7295.909"
"928","7324.478"
"929","7358.343"
"930","7393.838"
"931","7421.843"
"932","7433.069"
"933","7422.257"
"934","7398.385"
"935","7373.566"
"936","7359.513"
"937","7359.418"
"938","7368.358"
"939","7381.089"
"940","7392.879"
"941","7401.065"
"942","7403.501"
"943","7398.186"
"944","7386.719"
"945","7374.502"
"946","7367.117"
"947","7368.648"
"948","7376.528"
"949","7386.331"
"950","7393.68"
"951","7395.597"
"952","7390.692"
"953","7377.66"
"954","7356.43"
"955","7332.837"
"956","7314.502"
"957","7308.869"
"958","7317.827"
"959","7336.573"
"960","7359.902"
"961","7382.603"
"962","7399.413"
"963","7405.058"
"964","7394.438"
"965","7368.922"
"966","7337.915"
"967","7311.328"
"968","7297.628"
"969","7297.739"
"970","7310.142"
"971","7333.225"
"972","7361.973"
"973","7387.086"
"974","7398.99"
"975","7390.601"
"976","7367.862"
"977","7340.944"
"978","7319.842"
"979","7308.024"
"980","7300.799"
"981","7292.958"
"982","7280.819"
"983","7268.453"
"984","7262.408"
"985","7269.019"
"986","7287.47"
"987","7308.262"
"988","7321.368"
"989","7319.656"
"990","7310.168"
"991","7304.258"
"992","7312.984"
"993","7337.86"
"994","7369.353"
"995","7397.305"
"996","7413.643"
"997","7419.819"
"998","7420.016"
"999","7418.454"
"1000","7420.513"
"1001","7432.823"
"1002","7462.08"
"1003","7510.804"
"1004","7563.98"
"1005","7602.002"
"1006","7605.272"
"1007","7566.127"
"1008","7506.889"
"1009","7454.528"
"1010","7433.465"
"1011","7441.613"
"1012","7461.226"
"1013","7474.423"
"1014","7471.791"
"1015","7460.61"
"1016","7450.111"
"1017","7448.447"
"1018","7455.657"
"1019","7468.068"
"1020","7482.026"
"1021","7495.431"
"1022","7508.527"
"1023","7521.745"
"1024","7535.457"
"1025","7549.729"
"1026","7564.521"
"1027","7579.778"
"1028","7595.144"
"1029","7609.92"
"1030","7623.393"
"1031","7635.125"
"1032","7645.7"
"1033","7655.927"
"1034","7666.511"
"1035","7676.28"
"1036","7682.603"
"1037","7682.816"
"1038","7677.236"
"1039","7673.509"
"1040","7680.407"
"1041","7705.3"
"1042","7742.798"
"1043","7780.738"
"1044","7806.956"
"1045","7814.9"
"1046","7807.13"
"1047","7787.034"
"1048","7758.45"
"1049","7727.657"
"1050","7701.756"
"1051","7687.598"
"1052","7685.689"
"1053","7689.869"
"1054","7693.658"
"1055","7692.924"
"1056","7691.144"
"1057","7693.334"
"1058","7704.011"
"1059","7721.69"
"1060","7740.975"
"1061","7756.42"
"1062","7765.17"
"1063","7769.292"
"1064","7771.401"
"1065","7774.17"
"1066","7780.596"
"1067","7793.798"
"1068","7816.726"
"1069","7847.333"
"1070","7878.034"
"1071","7900.941"
"1072","7909.852"
"1073","7904.111"
"1074","7884.198"
"1075","7851.109"
"1076","7811.623"
"1077","7776.17"
"1078","7755.2"
"1079","7755.215"
"1080","7775.798"
"1081","7815.84"
"1082","7871.917"
"1083","7928.295"
"1084","7965.147"
"1085","7963.659"
"1086","7926.034"
"1087","7874.162"
"1088","7830.681"
"1089","7811.028"
"1090","7812.032"
"1091","7827.56"
"1092","7851.341"
"1093","7875.998"
"1094","7893.618"
"1095","7896.496"
"1096","7884.702"
"1097","7868.233"
"1098","7857.738"
"1099","7859.361"
"1100","7863.313"
"1101","7856.279"
"1102","7826.787"
"1103","7783.938"
"1104","7749.685"
"1105","7745.936"
"1106","7778.301"
"1107","7826.22"
"1108","7866.757"
"1109","7882.529"
"1110","7880.84"
"1111","7875.843"
"1112","7880.714"
"1113","7894.521"
"1114","7905.848"
"1115","7903.104"
"1116","7882.566"
"1117","7855.184"
"1118","7833.519"
"1119","7827.581"
"1120","7834.381"
"1121","7846.806"
"1122","7858.017"
"1123","7865.645"
"1124","7870.975"
"1125","7875.396"
"1126","7880.342"
"1127","7887.33"
"1128","7897.898"
"1129","7912.297"
"1130","7924.007"
"1131","7924.271"
"1132","7904.991"
"1133","7869.065"
"1134","7828.405"
"1135","7795.165"
"1136","7777.316"
"1137","7774.683"
"1138","7786.151"
"1139","7809.734"
"1140","7839.126"
"1141","7866.663"
"1142","7885.053"
"1143","7892.614"
"1144","7891.929"
"1145","7885.684"
"1146","7875.843"
"1147","7863.115"
"1148","7848.075"
"1149","7832.419"
"1150","7822.663"
"1151","7826.63"
"1152","7850.896"
"1153","7887.314"
"1154","7918.147"
"1155","7925.739"
"1156","7905.517"
"1157","7871.961"
"1158","7841.068"
"1159","7826.222"
"1160","7831.876"
"1161","7860.589"
"1162","7913.021"
"1163","7973.491"
"1164","8017.984"
"1165","8023.247"
"1166","7989.921"
"1167","7945.383"
"1168","7918.396"
"1169","7925.221"
"1170","7951.21"
"1171","7977.025"
"1172","7986.608"
"1173","7983.15"
"1174","7976.818"
"1175","7977.317"
"1176","7986.916"
"1177","8001.981"
"1178","8018.723"
"1179","8033.978"
"1180","8045.627"
"1181","8051.646"
"1182","8051.103"
"1183","8047.073"
"1184","8043.567"
"1185","8044.076"
"1186","8047.537"
"1187","8050.551"
"1188","8049.826"
"1189","8045.35"
"1190","8040.58"
"1191","8039.133"
"1192","8042.697"
"1193","8048.765"
"1194","8054.277"
"1195","8056.921"
"1196","8057.939"
"1197","8059.632"
"1198","8064.032"
"1199","8070.261"
"1200","8075.628"
"1201","8077.428"
"1202","8073.541"
"1203","8062.557"
"1204","8043.121"
"1205","8016.808"
"1206","7992.392"
"1207","7979.734"
"1208","7986.987"
"1209","8013.458"
"1210","8055.593"
"1211","8109.168"
"1212","8162.172"
"1213","8197.553"
"1214","8198.659"
"1215","8166.214"
"1216","8122.343"
"1217","8090.464"
"1218","8083.395"
"1219","8088.799"
"1220","8090.679"
"1221","8077.667"
"1222","8060.642"
"1223","8057.15"
"1224","8082.422"
"1225","8128.026"
"1226","8171.722"
"1227","8191.771"
"1228","8184.552"
"1229","8165.931"
"1230","8152.679"
"1231","8153.769"
"1232","8162.741"
"1233","8171.329"
"1234","8173.448"
"1235","8171.313"
"1236","8169.106"
"1237","8170.323"
"1238","8173.308"
"1239","8174.074"
"1240","8168.794"
"1241","8156.37"
"1242","8137.942"
"1243","8114.813"
"1244","8093.328"
"1245","8087.057"
"1246","8110.103"
"1247","8165.991"
"1248","8231.09"
"1249","8277.465"
"1250","8284.684"
"1251","8268.118"
"1252","8253.778"
"1253","8264.725"
"1254","8297.005"
"1255","8332.26"
"1256","8352.572"
"1257","8351.539"
"1258","8333.271"
"1259","8302.342"
"1260","8267.417"
"1261","8243.467"
"1262","8245.984"
"1263","8279.685"
"1264","8320.863"
"1265","8341.175"
"1266","8321.098"
"1267","8282.298"
"1268","8258.425"
"1269","8278.296"
"1270","8329.84"
"1271","8380.542"
"1272","8399.387"
"1273","8382.981"
"1274","8350.623"
"1275","8322.051"
"1276","8307.091"
"1277","8302.463"
"1278","8303.965"
"1279","8305.723"
"1280","8298.264"
"1281","8271.644"
"1282","8221.241"
"1283","8161.37"
"1284","8110.569"
"1285","8084.54"
"1286","8081.965"
"1287","8095.221"
"1288","8117.132"
"1289","8145.463"
"1290","8180.89"
"1291","8223.782"
"1292","8267.604"
"1293","8299.465"
"1294","8306.527"
"1295","8289.674"
"1296","8269.09"
"1297","8266.365"
"1298","8291.375"
"1299","8328.649"
"1300","8359.394"
"1301","8368.99"
"1302","8357.022"
"1303","8326.082"
"1304","8280.677"
"1305","8235.556"
"1306","8208.909"
"1307","8216.45"
"1308","8252.509"
"1309","8300.494"
"1310","8344.297"
"1311","8376.054"
"1312","8394.136"
"1313","8397.171"
"1314","8386.528"
"1315","8366.598"
"1316","8341.93"
"1317","8317.642"
"1318","8299.738"
"1319","8294.289"
"1320","8303.866"
"1321","8322.966"
"1322","8344.953"
"1323","8363.721"
"1324","8374.97"
"1325","8374.792"
"1326","8360.045"
"1327","8331.456"
"1328","8290.964"
"1329","8242.026"
"1330","8199.325"
"1331","8182.586"
"1332","8209.134"
"1333","8268.834"
"1334","8334.29"
"1335","8378.729"
"1336","8391.762"
"1337","8377.149"
"1338","8339.341"
"1339","8289.301"
"1340","8245.65"
"1341","8227.212"
"1342","8236.999"
"1343","8253.018"
"1344","8251.117"
"1345","8220.925"
"1346","8181.507"
"1347","8155.73"
"1348","8158.617"
"1349","8182.374"
"1350","8215.088"
"1351","8247.181"
"1352","8278.325"
"1353","8310.481"
"1354","8343.789"
"1355","8368.682"
"1356","8372.348"
"1357","8345.06"
"1358","8299.562"
"1359","8258.522"
"1360","8242.433"
"1361","8249.594"
"1362","8265.61"
"1363","8276.797"
"1364","8281.5"
"1365","8286.843"
"1366","8299.676"
"1367","8317.381"
"1368","8328.617"
"1369","8322.084"
"1370","8297.584"
"1371","8267.668"
"1372","8245.438"
"1373","8236.337"
"1374","8234.912"
"1375","8234.915"
"1376","8233.582"
"1377","8234.275"
"1378","8240.954"
"1379","8253.767"
"1380","8264.611"
"1381","8264.317"
"1382","8248.464"
"1383","8225.203"
"1384","8204.759"
"1385","8194.889"
"1386","8195.354"
"1387","8204.306"
"1388","8218.747"
"1389","8231.188"
"1390","8233.025"
"1391","8219.572"
"1392","8204.799"
"1393","8208.235"
"1394","8243.096"
"1395","8286.546"
"1396","8302.976"
"1397","8263.91"
"1398","8189.539"
"1399","8120.316"
"1400","8091.774"
"1401","8099.049"
"1402","8117.76"
"1403","8125.867"
"1404","8124.899"
"1405","8129.457"
"1406","8152.224"
"1407","8182.73"
"1408","8195.956"
"1409","8169.325"
"1410","8115.863"
"1411","8073.743"
"1412","8079.083"
"1413","8127.478"
"1414","8182.655"
"1415","8209.105"
"1416","8201.13"
"1417","8178.902"
"1418","8162.664"
"1419","8155.932"
"1420","8146.327"
"1421","8121.646"
"1422","8089.312"
"1423","8076.951"
"1424","8111.924"
"1425","8187.412"
"1426","8258.741"
"1427","8280.424"
"1428","8245.12"
"1429","8190.62"
"1430","8156.655"
"1431","8157.534"
"1432","8175.708"
"1433","8191.919"
"1434","8199.608"
"1435","8208.97"
"1436","8231.124"
"1437","8267.577"
"1438","8306.637"
"1439","8335.734"
"1440","8346.938"
"1441","8338.894"
"1442","8310.915"
"1443","8270.603"
"1444","8237.615"
"1445","8232.326"
"1446","8261.368"
"1447","8311.038"
"1448","8365.961"
"1449","8410.498"
"1450","8428.608"
"1451","8404.583"
"1452","8342.94"
"1453","8278.463"
"1454","8247.943"
"1455","8261.355"
"1456","8288.893"
"1457","8297.885"
"1458","8275.351"
"1459","8237.098"
"1460","8201.018"
"1461","8175.104"
"1462","8153.221"
"1463","8128.333"
"1464","8101.998"
"1465","8087.629"
"1466","8099.102"
"1467","8132.911"
"1468","8162.471"
"1469","8160.08"
"1470","8116.303"
"1471","8044.846"
"1472","7960.975"
"1473","7881.936"
"1474","7827.341"
"1475","7816.352"
"1476","7850.72"
"1477","7912.614"
"1478","7983.053"
"1479","8040.729"
"1480","8061.902"
"1481","8024.23"
"1482","7938.688"
"1483","7848.453"
"1484","7796.338"
"1485","7792.831"
"1486","7819.775"
"1487","7858.467"
"1488","7897.664"
"1489","7932.119"
"1490","7956.911"
"1491","7969.257"
"1492","7967.928"
"1493","7951.979"
"1494","7923.37"
"1495","7885.96"
"1496","7844.023"
"1497","7805.603"
"1498","7780.922"
"1499","7778.389"
"1500","7790.785"
"1501","7803.023"
"1502","7801.524"
"1503","7783.993"
"1504","7753.043"
"1505","7712.292"
"1506","7671.204"
"1507","7641.436"
"1508","7633.308"
"1509","7650.305"
"1510","7693.762"
"1511","7759.498"
"1512","7820.118"
"1513","7842.092"
"1514","7806.74"
"1515","7747.106"
"1516","7707.492"
"1517","7714.455"
"1518","7743.729"
"1519","7762.06"
"1520","7753.704"
"1521","7743.973"
"1522","7763.865"
"1523","7818.802"
"1524","7865.256"
"1525","7854.789"
"1526","7779.666"
"1527","7695.694"
"1528","7662.933"
"1529","7692.115"
"1530","7731.452"
"1531","7726.868"
"1532","7667.648"
"1533","7587.485"
"1534","7521.088"
"1535","7486.002"
"1536","7485.666"
"1537","7521.445"
"1538","7575.134"
"1539","7615.748"
"1540","7616.041"
"1541","7583.09"
"1542","7541.505"
"1543","7513.994"
"1544","7510.066"
"1545","7534.05"
"1546","7586.537"
"1547","7650.374"
"1548","7703.136"
"1549","7727.686"
"1550","7725.603"
"1551","7702.597"
"1552","7667.645"
"1553","7638.224"
"1554","7633.104"
"1555","7658.873"
"1556","7698.418"
"1557","7732.035"
"1558","7747.889"
"1559","7745.589"
"1560","7725.83"
"1561","7694.229"
"1562","7661.753"
"1563","7639.178"
"1564","7629.702"
"1565","7630.424"
"1566","7638.23"
"1567","7649.608"
"1568","7660.813"
"1569","7668.54"
"1570","7672.586"
"1571","7674.061"
"1572","7673.294"
"1573","7666.865"
"1574","7650.234"
"1575","7623.049"
"1576","7598.601"
"1577","7592.928"
"1578","7612.036"
"1579","7639.337"
"1580","7655.334"
"1581","7652.954"
"1582","7644.642"
"1583","7644.071"
"1584","7651.172"
"1585","7650.737"
"1586","7628.299"
"1587","7592.417"
"1588","7569.373"
"1589","7582.046"
"1590","7618.404"
"1591","7647.958"
"1592","7645.219"
"1593","7614.282"
"1594","7569.682"
"1595","7526.314"
"1596","7500.275"
"1597","7507.901"
"1598","7551.014"
"1599","7597.047"
"1600","7608.939"
"1601","7581.997"
"1602","7562.058"
"1603","7597.066"
"1604","7677.265"
"1605","7732.928"
"1606","7698.517"
"1607","7598.101"
"1608","7517.326"
"1609","7530.046"
"1610","7614.325"
"1611","7705.679"
"1612","7751.04"
"1613","7748.904"
"1614","7712.01"
"1615","7657.318"
"1616","7613.132"
"1617","7609.345"
"1618","7650.406"
"1619","7697.858"
"1620","7710.415"
"1621","7681.823"
"1622","7643.308"
"1623","7625.488"
"1624","7628.115"
"1625","7630.067"
"1626","7614.468"
"1627","7596.049"
"1628","7602.704"
"1629","7652.645"
"1630","7725.917"
"1631","7793.226"
"1632","7831.622"
"1633","7832.754"
"1634","7790.714"
"1635","7718.256"
"1636","7653.918"
"1637","7635.874"
"1638","7662.55"
"1639","7698.898"
"1640","7712.244"
"1641","7699.295"
"1642","7671.57"
"1643","7640.388"
"1644","7615.527"
"1645","7606.327"
"1646","7617.729"
"1647","7643.344"
"1648","7674.9"
"1649","7700.014"
"1650","7700.22"
"1651","7658.478"
"1652","7592.94"
"1653","7552.385"
"1654","7579.107"
"1655","7651.585"
"1656","7716.249"
"1657","7732.011"
"1658","7714.009"
"1659","7692.825"
"1660","7688.176"
"1661","7694.055"
"1662","7700.783"
"1663","7700.306"
"1664","7686.734"
"1665","7654.97"
"1666","7609.308"
"1667","7561.062"
"1668","7520.623"
"1669","7490.97"
"1670","7472.047"
"1671","7464.469"
"1672","7471.176"
"1673","7495.518"
"1674","7533.402"
"1675","7567.409"
"1676","7579.26"
"1677","7562.912"
"1678","7524.301"
"1679","7471.309"
"1680","7424.692"
"1681","7412.052"
"1682","7448.505"
"1683","7494.682"
"1684","7496.556"
"1685","7431.091"
"1686","7342.535"
"1687","7282.847"
"1688","7269.189"
"1689","7278.992"
"1690","7288.345"
"1691","7282.472"
"1692","7252.102"
"1693","7195.126"
"1694","7143.766"
"1695","7140.548"
"1696","7199.299"
"1697","7266.89"
"1698","7282.139"
"1699","7233.753"
"1700","7169.585"
"1701","7137.172"
"1702","7142.888"
"1703","7168.044"
"1704","7195.479"
"1705","7217.085"
"1706","7227.432"
"1707","7225.29"
"1708","7218.72"
"1709","7216.828"
"1710","7222.832"
"1711","7233.494"
"1712","7245.028"
"1713","7251.71"
"1714","7246.752"
"1715","7225.889"
"1716","7195.161"
"1717","7163.245"
"1718","7140.261"
"1719","7139"
"1720","7171.355"
"1721","7225.725"
"1722","7269.206"
"1723","7272.923"
"1724","7242.489"
"1725","7198.438"
"1726","7158.461"
"1727","7131.32"
"1728","7123.93"
"1729","7135.625"
"1730","7155.118"
"1731","7170.265"
"1732","7168.489"
"1733","7136.915"
"1734","7070.827"
"1735","7004.641"
"1736","6984.347"
"1737","7029.998"
"1738","7108.218"
"1739","7179.733"
"1740","7221.169"
"1741","7224.213"
"1742","7184.716"
"1743","7123.778"
"1744","7073.387"
"1745","7054.542"
"1746","7056.401"
"1747","7062.652"
"1748","7065.853"
"1749","7069.776"
"1750","7078.638"
"1751","7093.898"
"1752","7115.445"
"1753","7139.787"
"1754","7150.717"
"1755","7129.301"
"1756","7077.345"
"1757","7029.541"
"1758","7020.435"
"1759","7043.635"
"1760","7064.008"
"1761","7053.399"
"1762","7019.36"
"1763","6979.885"
"1764","6952.357"
"1765","6952.975"
"1766","6995.627"
"1767","7058.525"
"1768","7091.026"
"1769","7053.515"
"1770","6970.562"
"1771","6888.166"
"1772","6840.484"
"1773","6836.913"
"1774","6882.678"
"1775","6962.806"
"1776","7044.665"
"1777","7099.23"
"1778","7122.033"
"1779","7117.375"
"1780","7094.964"
"1781","7076.135"
"1782","7082.509"
"1783","7111.86"
"1784","7140.78"
"1785","7148.28"
"1786","7131.652"
"1787","7094.696"
"1788","7047.598"
"1789","7013.918"
"1790","7016.897"
"1791","7043.917"
"1792","7051.966"
"1793","7009.616"
"1794","6952.105"
"1795","6936.377"
"1796","6984.473"
"1797","7051.453"
"1798","7087.405"
"1799","7082.112"
"1800","7055.543"
"1801","7025.143"
"1802","6993.241"
"1803","6957.968"
"1804","6923.803"
"1805","6905.651"
"1806","6917.625"
"1807","6953.234"
"1808","6992.781"
"1809","7022.281"
"1810","7049.573"
"1811","7087.052"
"1812","7128.535"
"1813","7143.205"
"1814","7103.737"
"1815","7027.427"
"1816","6954.097"
"1817","6912.027"
"1818","6897.014"
"1819","6899.215"
"1820","6907.086"
"1821","6907.366"
"1822","6890.761"
"1823","6872.227"
"1824","6875.548"
"1825","6907.069"
"1826","6938.713"
"1827","6940.92"
"1828","6919.972"
"1829","6908.144"
"1830","6928.5"
"1831","6965.09"
"1832","6992.657"
"1833","7002.069"
"1834","7005.902"
"1835","7015.684"
"1836","7021.951"
"1837","7005.095"
"1838","6956.627"
"1839","6895.955"
"1840","6846.538"
"1841","6826.751"
"1842","6850.542"
"1843","6920.393"
"1844","6985.466"
"1845","6980.123"
"1846","6895.652"
"1847","6809.672"
"1848","6796.785"
"1849","6837.922"
"1850","6864.506"
"1851","6834.965"
"1852","6780.287"
"1853","6742.048"
"1854","6737.271"
"1855","6761.155"
"1856","6806.111"
"1857","6855.216"
"1858","6888.998"
"1859","6897.644"
"1860","6885.283"
"1861","6858.53"
"1862","6835.09"
"1863","6838.024"
"1864","6871.276"
"1865","6894.215"
"1866","6863.886"
"1867","6798.516"
"1868","6763.273"
"1869","6800.818"
"1870","6864.137"
"1871","6886.568"
"1872","6850.268"
"1873","6794.299"
"1874","6756.368"
"1875","6746.128"
"1876","6762.7"
"1877","6795.623"
"1878","6817.891"
"1879","6804.925"
"1880","6772.131"
"1881","6757.232"
"1882","6783.388"
"1883","6835.744"
"1884","6893.521"
"1885","6937.85"
"1886","6951.366"
"1887","6923.268"
"1888","6867.324"
"1889","6803.121"
"1890","6751.059"
"1891","6732.43"
"1892","6759.832"
"1893","6798.623"
"1894","6799.022"
"1895","6753.647"
"1896","6718.832"
"1897","6746.432"
"1898","6813.352"
"1899","6862.227"
"1900","6861.967"
"1901","6834.417"
"1902","6805.999"
"1903","6784.274"
"1904","6765.43"
"1905","6748.692"
"1906","6741.647"
"1907","6752.492"
"1908","6778.154"
"1909","6806.902"
"1910","6829.25"
"1911","6844.097"
"1912","6851.976"
"1913","6850.995"
"1914","6836.964"
"1915","6809.907"
"1916","6787.944"
"1917","6792.897"
"1918","6814.082"
"1919","6803.671"
"1920","6729.348"
"1921","6649.312"
"1922","6648.908"
"1923","6730.989"
"1924","6787.673"
"1925","6727.769"
"1926","6610.94"
"1927","6552.675"
"1928","6598.148"
"1929","6684.094"
"1930","6745.202"
"1931","6768.191"
"1932","6762.16"
"1933","6736.907"
"1934","6703.261"
"1935","6671.859"
"1936","6650.703"
"1937","6646.466"
"1938","6655.96"
"1939","6657.496"
"1940","6631.564"
"1941","6595.856"
"1942","6587.075"
"1943","6615.1"
"1944","6635.835"
"1945","6607.371"
"1946","6568.459"
"1947","6601.148"
"1948","6723.148"
"1949","6817.916"
"1950","6769.256"
"1951","6626.189"
"1952","6528.873"
"1953","6553.265"
"1954","6638.631"
"1955","6711.857"
"1956","6746.926"
"1957","6743.797"
"1958","6711.502"
"1959","6677.141"
"1960","6666.642"
"1961","6674.13"
"1962","6676.766"
"1963","6661.599"
"1964","6635.546"
"1965","6608.338"
"1966","6593.683"
"1967","6607.172"
"1968","6648.047"
"1969","6685.431"
"1970","6689.542"
"1971","6664.902"
"1972","6631.959"
"1973","6605.458"
"1974","6590.385"
"1975","6589.5"
"1976","6596.647"
"1977","6602.018"
"1978","6600.287"
"1979","6592.867"
"1980","6581.989"
"1981","6571.46"
"1982","6565.594"
"1983","6565.549"
"1984","6568.399"
"1985","6572.205"
"1986","6581.213"
"1987","6600.985"
"1988","6620.486"
"1989","6610.442"
"1990","6555"
"1991","6496.16"
"1992","6487.583"
"1993","6524.244"
"1994","6547.604"
"1995","6521.471"
"1996","6487.729"
"1997","6499.411"
"1998","6545.545"
"1999","6568.04"
"2000","6533.869"
"2001","6475.496"
"2002","6432.667"
"2003","6416.226"
"2004","6420.3"
"2005","6438.619"
"2006","6464.554"
"2007","6491.422"
"2008","6512.614"
"2009","6521.565"
"2010","6513.026"
"2011","6483.677"
"2012","6434.759"
"2013","6390.255"
"2014","6380.373"
"2015","6404.423"
"2016","6428.555"
"2017","6427.9"
"2018","6416.339"
"2019","6415.064"
"2020","6422.429"
"2021","6419.019"
"2022","6395.297"
"2023","6367.666"
"2024","6354.9"
"2025","6360.17"
"2026","6377.97"
"2027","6393.641"
"2028","6377.041"
"2029","6308.547"
"2030","6240.815"
"2031","6250.666"
"2032","6331.309"
"2033","6378.411"
"2034","6319.818"
"2035","6227.354"
"2036","6201.056"
"2037","6246.394"
"2038","6295.251"
"2039","6303.657"
"2040","6290.243"
"2041","6279.298"
"2042","6265.239"
"2043","6227.813"
"2044","6167.291"
"2045","6115.057"
"2046","6096.921"
"2047","6098.088"
"2048","6092.607"
"2049","6083.155"
"2050","6099.564"
"2051","6150.683"
"2052","6182.035"
"2053","6136.159"
"2054","6041.497"
"2055","5975.949"
"2056","5979.119"
"2057","6024.83"
"2058","6082.12"
"2059","6128.925"
"2060","6146.644"
"2061","6129.37"
"2062","6083.891"
"2063","6024.549"
"2064","5986.126"
"2065","6001.435"
"2066","6044.917"
"2067","6057.927"
"2068","6025.179"
"2069","6002.621"
"2070","6034.154"
"2071","6069.907"
"2072","6034.875"
"2073","5938.736"
"2074","5868.129"
"2075","5877.628"
"2076","5931.786"
"2077","5983.271"
"2078","6005.379"
"2079","5982.178"
"2080","5927.208"
"2081","5893.821"
"2082","5916.777"
"2083","5945.911"
"2084","5916.115"
"2085","5845.109"
"2086","5809.649"
"2087","5841.786"
"2088","5884.497"
"2089","5881.799"
"2090","5843.573"
"2091","5802.634"
"2092","5776.729"
"2093","5768.795"
"2094","5778.711"
"2095","5799.884"
"2096","5824.005"
"2097","5837.8"
"2098","5826.02"
"2099","5791.327"
"2100","5759.207"
"2101","5750.491"
"2102","5764.288"
"2103","5792.75"
"2104","5804.142"
"2105","5752.895"
"2106","5651.596"
"2107","5604.906"
"2108","5686.487"
"2109","5798.065"
"2110","5803.813"
"2111","5703.665"
"2112","5597.142"
"2113","5541.395"
"2114","5510.062"
"2115","5477.556"
"2116","5469.471"
"2117","5523.902"
"2118","5610.976"
"2119","5644.193"
"2120","5587.834"
"2121","5516.36"
"2122","5501.637"
"2123","5519.58"
"2124","5514.776"
"2125","5489.143"
"2126","5496.303"
"2127","5552.456"
"2128","5585.983"
"2129","5532.07"
"2130","5440.646"
"2131","5400.907"
"2132","5422.811"
"2133","5442.664"
"2134","5422.646"
"2135","5390.002"
"2136","5374.564"
"2137","5367.385"
"2138","5345.961"
"2139","5305.791"
"2140","5258.874"
"2141","5234.183"
"2142","5296.001"
"2143","5482.663"
"2144","5658.86"
"2145","5640.002"
"2146","5452.493"
"2147","5301.083"
"2148","5291.599"
"2149","5322.186"
"2150","5290.676"
"2151","5217.251"
"2152","5157.667"
"2153","5128.105"
"2154","5115.138"
"2155","5116.375"
"2156","5149.644"
"2157","5217.385"
"2158","5248.993"
"2159","5166.082"
"2160","5022.677"
"2161","4955.162"
"2162","5016.609"
"2163","5139.364"
"2164","5250.603"
"2165","5291.928"
"2166","5220.243"
"2167","5099.142"
"2168","5043.23"
"2169","5073.337"
"2170","5104.1"
"2171","5080.939"
"2172","5042.234"
"2173","5031.149"
"2174","5029.94"
"2175","5000.101"
"2176","4947.18"
"2177","4914.075"
"2178","4916.658"
"2179","4918.46"
"2180","4891.75"
"2181","4871.035"
"2182","4901.936"
"2183","4968.227"
"2184","5016.305"
"2185","5012.461"
"2186","4949.704"
"2187","4839.679"
"2188","4742.051"
"2189","4715.624"
"2190","4754.593"
"2191","4826.046"
"2192","4888.414"
"2193","4892.941"
"2194","4831.354"
"2195","4770.559"
"2196","4766.347"
"2197","4794.81"
"2198","4813.648"
"2199","4801.454"
"2200","4749.244"
"2201","4668.791"
"2202","4595.816"
"2203","4555.612"
"2204","4544.747"
"2205","4552.846"
"2206","4555.283"
"2207","4526.518"
"2208","4492.781"
"2209","4515.616"
"2210","4598.576"
"2211","4662.112"
"2212","4649.14"
"2213","4587.559"
"2214","4518.101"
"2215","4463.55"
"2216","4438.229"
"2217","4433.793"
"2218","4423.851"
"2219","4394.898"
"2220","4354.744"
"2221","4320.396"
"2222","4332.437"
"2223","4420.887"
"2224","4507.2"
"2225","4474.12"
"2226","4345.42"
"2227","4263.381"
"2228","4285.831"
"2229","4326.059"
"2230","4319.696"
"2231","4320.398"
"2232","4389.092"
"2233","4467.89"
"2234","4454.534"
"2235","4350.121"
"2236","4240.339"
"2237","4175.604"
"2238","4147.47"
"2239","4143.528"
"2240","4154.812"
"2241","4169.606"
"2242","4155.459"
"2243","4076.935"
"2244","3969.654"
"2245","3920.146"
"2246","3953.29"
"2247","4008.407"
"2248","4033.207"
"2249","4013.11"
"2250","3945.223"
"2251","3856.033"
"2252","3779.109"
"2253","3722.71"
"2254","3680.102"
"2255","3653.07"
"2256","3652.944"
"2257","3682.256"
"2258","3724.843"
"2259","3762.456"
"2260","3777.688"
"2261","3755.604"
"2262","3699.045"
"2263","3618.918"
"2264","3525.283"
"2265","3427.478"
"2266","3335.033"
"2267","3257.752"
"2268","3205.358"
"2269","3187.177"
"2270","3201.086"
"2271","3188.257"
"2272","3084.172"
"2273","2943.237"
"2274","2882.239"
"2275","2901.745"
"2276","2887.469"
"2277","2789.945"
"2278","2679.362"
"2279","2618.524"
"2280","2611.094"
"2281","2645.973"
"2282","2692.328"
"2283","2713.028"
"2284","2679.472"
"2285","2570.794"
"2286","2429.008"
"2287","2361.228"
"2288","2403.116"
"2289","2457.596"
"2290","2439.665"
"2291","2345.018"
"2292","2189.672"
"2293","2016.042"
"2294","1875.901"
"2295","1821.049"
"2296","1897.674"
"2297","2023.304"
"2298","1990.669"
"2299","1758.077"
"2300","1562.727"
