,"Scan 01127"
"400","8949.484"
"401","8955.756"
"402","8954.028"
"403","8940.663"
"404","8922.077"
"405","8907.889"
"406","8907.637"
"407","8929.272"
"408","8968.326"
"409","9014.378"
"410","9057.038"
"411","9086.519"
"412","9099.844"
"413","9098.794"
"414","9085.224"
"415","9061.048"
"416","9029.745"
"417","8996.322"
"418","8965.813"
"419","8943.175"
"420","8931.696"
"421","8932.435"
"422","8946.283"
"423","8974.079"
"424","9011.725"
"425","9046.052"
"426","9063.001"
"427","9048.643"
"428","8998.327"
"429","8930.492"
"430","8866.995"
"431","8829.542"
"432","8832.557"
"433","8866.218"
"434","8915.654"
"435","8966.108"
"436","9005.167"
"437","9030.688"
"438","9043.437"
"439","9044.166"
"440","9034.008"
"441","9016.349"
"442","8995.391"
"443","8975.313"
"444","8959.49"
"445","8945.341"
"446","8927.5"
"447","8900.625"
"448","8860.229"
"449","8810.17"
"450","8759.114"
"451","8715.733"
"452","8688.19"
"453","8678.736"
"454","8685.485"
"455","8706.476"
"456","8739.44"
"457","8776.728"
"458","8806.209"
"459","8815.698"
"460","8793.802"
"461","8744.878"
"462","8688.6"
"463","8645.149"
"464","8633.904"
"465","8654.625"
"466","8685.198"
"467","8702.491"
"468","8684.034"
"469","8626.917"
"470","8552.923"
"471","8485.29"
"472","8446.795"
"473","8445.024"
"474","8466.203"
"475","8495.024"
"476","8516.399"
"477","8522.748"
"478","8518.063"
"479","8507.308"
"480","8495.4"
"481","8485.953"
"482","8480.426"
"483","8480.061"
"484","8486.068"
"485","8497.391"
"486","8508.921"
"487","8515.169"
"488","8510.701"
"489","8493.003"
"490","8464.991"
"491","8430.154"
"492","8391.959"
"493","8353.415"
"494","8316.686"
"495","8283.816"
"496","8256.831"
"497","8235.942"
"498","8217.835"
"499","8198.804"
"500","8175.18"
"501","8145.117"
"502","8110.297"
"503","8072.809"
"504","8034.717"
"505","7997.87"
"506","7963.7"
"507","7933.578"
"508","7908.862"
"509","7889.069"
"510","7870.34"
"511","7848.466"
"512","7819.311"
"513","7782.365"
"514","7743.521"
"515","7709.288"
"516","7686.069"
"517","7675.383"
"518","7670.705"
"519","7664.786"
"520","7650.507"
"521","7625.914"
"522","7596.899"
"523","7569.988"
"524","7551.587"
"525","7544.095"
"526","7544.372"
"527","7548.885"
"528","7554.1"
"529","7555.747"
"530","7548.635"
"531","7527.545"
"532","7487.641"
"533","7434.088"
"534","7383.086"
"535","7351.315"
"536","7354.511"
"537","7389.654"
"538","7435.691"
"539","7470.935"
"540","7474.93"
"541","7446.077"
"542","7398.373"
"543","7346.223"
"544","7303.246"
"545","7273.713"
"546","7255.353"
"547","7245.759"
"548","7242.645"
"549","7244.736"
"550","7251.362"
"551","7261.856"
"552","7275.162"
"553","7287.064"
"554","7291.861"
"555","7283.866"
"556","7259.247"
"557","7225.469"
"558","7194.265"
"559","7177.313"
"560","7183.042"
"561","7204.595"
"562","7230.616"
"563","7249.802"
"564","7254.338"
"565","7248.915"
"566","7241.025"
"567","7238.124"
"568","7243.782"
"569","7251.04"
"570","7251.18"
"571","7235.563"
"572","7201.013"
"573","7155.495"
"574","7108.313"
"575","7068.674"
"576","7042.655"
"577","7031.549"
"578","7036.246"
"579","7057.427"
"580","7089.818"
"581","7121.353"
"582","7139.638"
"583","7133.209"
"584","7105.747"
"585","7073.648"
"586","7053.647"
"587","7060.633"
"588","7090.297"
"589","7126.667"
"590","7153.665"
"591","7157.656"
"592","7141.792"
"593","7116.42"
"594","7091.872"
"595","7076.115"
"596","7066.234"
"597","7056.139"
"598","7039.765"
"599","7014.504"
"600","6988.423"
"601","6971.624"
"602","6974.125"
"603","6999.302"
"604","7036.846"
"605","7074.794"
"606","7101.374"
"607","7110.937"
"608","7106.31"
"609","7090.928"
"610","7068.31"
"611","7043.895"
"612","7024.902"
"613","7018.592"
"614","7031.062"
"615","7056.007"
"616","7079.563"
"617","7087.8"
"618","7069.938"
"619","7034.881"
"620","6999.176"
"621","6979.331"
"622","6985.403"
"623","7003.054"
"624","7012.183"
"625","6992.821"
"626","6938.917"
"627","6876.368"
"628","6835.468"
"629","6845.839"
"630","6909.915"
"631","6991.612"
"632","7052.03"
"633","7054.51"
"634","7001.521"
"635","6929.924"
"636","6877.646"
"637","6878.005"
"638","6923.293"
"639","6983.87"
"640","7029.988"
"641","7038.535"
"642","7019.066"
"643","6991.247"
"644","6974.668"
"645","6980.124"
"646","6994.157"
"647","6999.175"
"648","6977.881"
"649","6928.05"
"650","6871.278"
"651","6831.214"
"652","6830.246"
"653","6867.131"
"654","6918.862"
"655","6961.694"
"656","6974.556"
"657","6959.814"
"658","6932.149"
"659","6906.311"
"660","6893.859"
"661","6891.99"
"662","6893.829"
"663","6892.529"
"664","6884.256"
"665","6872.318"
"666","6861.06"
"667","6854.752"
"668","6855.51"
"669","6862.655"
"670","6875.332"
"671","6892.533"
"672","6911.307"
"673","6927.317"
"674","6936.211"
"675","6934.748"
"676","6926.379"
"677","6917.045"
"678","6912.681"
"679","6916.79"
"680","6925.747"
"681","6934.62"
"682","6938.565"
"683","6936.769"
"684","6934.494"
"685","6937.492"
"686","6950.992"
"687","6972.315"
"688","6992.545"
"689","7002.621"
"690","6995.582"
"691","6977.979"
"692","6961.73"
"693","6958.737"
"694","6974.631"
"695","6996.327"
"696","7007.274"
"697","6991.259"
"698","6947.452"
"699","6897.386"
"700","6864.313"
"701","6869.604"
"702","6909.369"
"703","6961.345"
"704","7002.896"
"705","7015.639"
"706","7004.688"
"707","6983.312"
"708","6964.742"
"709","6957.57"
"710","6958.886"
"711","6964.033"
"712","6968.438"
"713","6969.965"
"714","6969.328"
"715","6967.397"
"716","6964.919"
"717","6961.388"
"718","6955.604"
"719","6946.36"
"720","6934.174"
"721","6926.363"
"722","6931.905"
"723","6959.638"
"724","7008.136"
"725","7058.283"
"726","7089.251"
"727","7081.805"
"728","7041.396"
"729","6993.113"
"730","6962.551"
"731","6969.846"
"732","7004.401"
"733","7044.796"
"734","7069.682"
"735","7068.198"
"736","7053.835"
"737","7043.503"
"738","7053.358"
"739","7081.967"
"740","7109.883"
"741","7116.876"
"742","7086.831"
"743","7033.787"
"744","6985.294"
"745","6968.906"
"746","7000.209"
"747","7060.618"
"748","7125.505"
"749","7170.731"
"750","7186.939"
"751","7182.489"
"752","7166.779"
"753","7148.609"
"754","7131.643"
"755","7116.92"
"756","7105.45"
"757","7098.569"
"758","7098.62"
"759","7108.155"
"760","7129.601"
"761","7160.845"
"762","7193.945"
"763","7220.588"
"764","7233.412"
"765","7233.637"
"766","7227.078"
"767","7219.574"
"768","7215.438"
"769","7214.05"
"770","7213.801"
"771","7213.14"
"772","7212.465"
"773","7214.629"
"774","7222.644"
"775","7238.996"
"776","7261.8"
"777","7286.948"
"778","7310.318"
"779","7328.635"
"780","7341.098"
"781","7347.362"
"782","7347.241"
"783","7345.174"
"784","7350.83"
"785","7374.138"
"786","7422.113"
"787","7480.744"
"788","7526.806"
"789","7537.095"
"790","7501.237"
"791","7440.419"
"792","7380.563"
"793","7346.72"
"794","7346.448"
"795","7371.009"
"796","7411.048"
"797","7457.08"
"798","7498.843"
"799","7525.811"
"800","7527.554"
"801","7502.611"
"802","7466.482"
"803","7436.543"
"804","7428.952"
"805","7443.942"
"806","7470.473"
"807","7497.271"
"808","7515.241"
"809","7523.817"
"810","7524.512"
"811","7518.886"
"812","7510.198"
"813","7504.003"
"814","7506.018"
"815","7521.111"
"816","7547.165"
"817","7578.629"
"818","7609.938"
"819","7636.009"
"820","7652.996"
"821","7657.245"
"822","7645.53"
"823","7622.763"
"824","7601.178"
"825","7593.261"
"826","7607.838"
"827","7635.818"
"828","7662.621"
"829","7673.857"
"830","7666.434"
"831","7655.061"
"832","7656.01"
"833","7683.226"
"834","7728.739"
"835","7772.498"
"836","7794.354"
"837","7783.866"
"838","7757.316"
"839","7735.539"
"840","7738.376"
"841","7766.151"
"842","7801.167"
"843","7825.058"
"844","7823.37"
"845","7800.464"
"846","7766.352"
"847","7731.003"
"848","7701.973"
"849","7683.23"
"850","7678.452"
"851","7690.422"
"852","7714.493"
"853","7742.314"
"854","7765.528"
"855","7780.369"
"856","7793.94"
"857","7814.918"
"858","7850.991"
"859","7895.017"
"860","7928.383"
"861","7932.19"
"862","7895.97"
"863","7840.949"
"864","7795.788"
"865","7788.352"
"866","7822.725"
"867","7875.622"
"868","7922.253"
"869","7942.465"
"870","7943.185"
"871","7941.155"
"872","7952.984"
"873","7984.447"
"874","8023.237"
"875","8055.33"
"876","8068.398"
"877","8065.353"
"878","8057.185"
"879","8054.937"
"880","8065.157"
"881","8083.662"
"882","8104.704"
"883","8122.75"
"884","8135.258"
"885","8141.902"
"886","8142.403"
"887","8136.858"
"888","8126.62"
"889","8113.304"
"890","8098.694"
"891","8088.351"
"892","8091.579"
"893","8117.848"
"894","8172.109"
"895","8238.362"
"896","8294.534"
"897","8319.034"
"898","8308.854"
"899","8285.076"
"900","8270.393"
"901","8282.827"
"902","8311.313"
"903","8333.591"
"904","8327.608"
"905","8288.412"
"906","8239.325"
"907","8206.321"
"908","8211.775"
"909","8248.424"
"910","8294.45"
"911","8327.995"
"912","8337.057"
"913","8329.983"
"914","8317.637"
"915","8310.468"
"916","8314.424"
"917","8332.723"
"918","8368.541"
"919","8418.85"
"920","8464.974"
"921","8485.8"
"922","8462.368"
"923","8405.167"
"924","8345.971"
"925","8317.016"
"926","8337.921"
"927","8390.122"
"928","8447.872"
"929","8486.455"
"930","8498.936"
"931","8493.301"
"932","8478.006"
"933","8459.782"
"934","8439.271"
"935","8415.771"
"936","8388.771"
"937","8361.883"
"938","8342.628"
"939","8338.687"
"940","8354.392"
"941","8380.629"
"942","8404.901"
"943","8415.12"
"944","8409.526"
"945","8397.234"
"946","8387.884"
"947","8389.292"
"948","8401.196"
"949","8421.083"
"950","8446.315"
"951","8470.867"
"952","8484.83"
"953","8478.091"
"954","8444.898"
"955","8400.496"
"956","8366.43"
"957","8363.66"
"958","8393.414"
"959","8433.188"
"960","8459.061"
"961","8452.775"
"962","8424.755"
"963","8394.476"
"964","8381.044"
"965","8389.971"
"966","8409.857"
"967","8428.242"
"968","8434.807"
"969","8430.373"
"970","8419.381"
"971","8406.266"
"972","8395.334"
"973","8390.716"
"974","8396.539"
"975","8414.978"
"976","8438.059"
"977","8454.508"
"978","8453.335"
"979","8433.995"
"980","8408.989"
"981","8391.645"
"982","8392.501"
"983","8407.849"
"984","8429.446"
"985","8449.123"
"986","8461.391"
"987","8464.006"
"988","8454.926"
"989","8433.858"
"990","8409.036"
"991","8391.307"
"992","8391.238"
"993","8410.928"
"994","8442.648"
"995","8478.123"
"996","8510.504"
"997","8539.504"
"998","8566.713"
"999","8593.599"
"1000","8618.335"
"1001","8635.519"
"1002","8639.567"
"1003","8627.217"
"1004","8604.911"
"1005","8581.646"
"1006","8566.417"
"1007","8564.556"
"1008","8572.198"
"1009","8584.047"
"1010","8594.993"
"1011","8601.775"
"1012","8602.233"
"1013","8594.248"
"1014","8579.432"
"1015","8566.74"
"1016","8565.996"
"1017","8585.245"
"1018","8619.188"
"1019","8656.431"
"1020","8685.678"
"1021","8702.688"
"1022","8713.765"
"1023","8726.087"
"1024","8744.974"
"1025","8765.793"
"1026","8780.597"
"1027","8781.746"
"1028","8770.385"
"1029","8757.317"
"1030","8753.858"
"1031","8767.271"
"1032","8789.85"
"1033","8810.423"
"1034","8818.535"
"1035","8814.726"
"1036","8808.141"
"1037","8808.155"
"1038","8820.161"
"1039","8839.684"
"1040","8860.754"
"1041","8877.958"
"1042","8890.96"
"1043","8902.124"
"1044","8913.809"
"1045","8926.371"
"1046","8936.932"
"1047","8942.307"
"1048","8940.582"
"1049","8936.813"
"1050","8938.408"
"1051","8952.488"
"1052","8978.653"
"1053","9008.615"
"1054","9033.712"
"1055","9046.84"
"1056","9045.999"
"1057","9030.206"
"1058","8999.426"
"1059","8964.752"
"1060","8944.538"
"1061","8957.158"
"1062","9006.793"
"1063","9070.646"
"1064","9122.886"
"1065","9142.161"
"1066","9134.893"
"1067","9118.089"
"1068","9108.445"
"1069","9112.879"
"1070","9127.435"
"1071","9147.583"
"1072","9168.234"
"1073","9182.474"
"1074","9183.004"
"1075","9163.604"
"1076","9130.258"
"1077","9096.648"
"1078","9076.52"
"1079","9077.351"
"1080","9095.663"
"1081","9126.876"
"1082","9165.767"
"1083","9203.725"
"1084","9231.011"
"1085","9238.308"
"1086","9225.134"
"1087","9199.279"
"1088","9168.854"
"1089","9140.485"
"1090","9116.99"
"1091","9100.568"
"1092","9093.024"
"1093","9092.917"
"1094","9097.256"
"1095","9103.056"
"1096","9108.127"
"1097","9111.283"
"1098","9111.404"
"1099","9107.722"
"1100","9100.717"
"1101","9091.146"
"1102","9079.918"
"1103","9069.627"
"1104","9063.914"
"1105","9066.391"
"1106","9077.16"
"1107","9090.693"
"1108","9100.953"
"1109","9103.161"
"1110","9098.165"
"1111","9088.371"
"1112","9076.431"
"1113","9068.375"
"1114","9072.764"
"1115","9098.117"
"1116","9142.845"
"1117","9186.495"
"1118","9206.547"
"1119","9187.183"
"1120","9146.716"
"1121","9114.288"
"1122","9117.283"
"1123","9154.015"
"1124","9199.162"
"1125","9226.787"
"1126","9223.088"
"1127","9198.426"
"1128","9166.026"
"1129","9137.229"
"1130","9113.351"
"1131","9092.405"
"1132","9072.572"
"1133","9054.812"
"1134","9042.366"
"1135","9038.517"
"1136","9042.688"
"1137","9046.802"
"1138","9041.905"
"1139","9022.941"
"1140","9004.419"
"1141","9006.979"
"1142","9049.09"
"1143","9117.036"
"1144","9172.591"
"1145","9177.255"
"1146","9123.977"
"1147","9060.902"
"1148","9041.808"
"1149","9103.353"
"1150","9207.968"
"1151","9297.979"
"1152","9320.607"
"1153","9281.05"
"1154","9222.245"
"1155","9187.281"
"1156","9192.639"
"1157","9216.025"
"1158","9232.08"
"1159","9223.62"
"1160","9201.393"
"1161","9182.097"
"1162","9180.342"
"1163","9192.737"
"1164","9206.713"
"1165","9210.064"
"1166","9203.437"
"1167","9201.833"
"1168","9220.995"
"1169","9264.852"
"1170","9308.167"
"1171","9321.271"
"1172","9282.334"
"1173","9215.434"
"1174","9161.298"
"1175","9158.05"
"1176","9202.27"
"1177","9257.587"
"1178","9287.007"
"1179","9277.08"
"1180","9253.645"
"1181","9246.282"
"1182","9274.448"
"1183","9320.138"
"1184","9356.685"
"1185","9360.641"
"1186","9336.604"
"1187","9303.58"
"1188","9280.305"
"1189","9275.11"
"1190","9285.307"
"1191","9307.67"
"1192","9337.373"
"1193","9366.126"
"1194","9385.172"
"1195","9388.435"
"1196","9382.541"
"1197","9377.889"
"1198","9383.774"
"1199","9397.299"
"1200","9407.989"
"1201","9405.612"
"1202","9392.242"
"1203","9385.035"
"1204","9402.051"
"1205","9449.069"
"1206","9501.758"
"1207","9531.247"
"1208","9516.009"
"1209","9472.664"
"1210","9430.133"
"1211","9415.179"
"1212","9429.004"
"1213","9456.285"
"1214","9481.603"
"1215","9496.483"
"1216","9500.998"
"1217","9495.747"
"1218","9482.519"
"1219","9465.915"
"1220","9450.942"
"1221","9442.139"
"1222","9441.749"
"1223","9451.332"
"1224","9471.592"
"1225","9494.476"
"1226","9506.824"
"1227","9496.036"
"1228","9465.954"
"1229","9438.091"
"1230","9434.746"
"1231","9463.893"
"1232","9505.19"
"1233","9534.964"
"1234","9538.534"
"1235","9535.328"
"1236","9552.851"
"1237","9612.874"
"1238","9694.251"
"1239","9756.392"
"1240","9761.23"
"1241","9713.908"
"1242","9654.817"
"1243","9624.862"
"1244","9638.126"
"1245","9670.245"
"1246","9693.896"
"1247","9693.862"
"1248","9685.991"
"1249","9691.054"
"1250","9723.798"
"1251","9770.303"
"1252","9808.12"
"1253","9817.552"
"1254","9804.087"
"1255","9786.637"
"1256","9783.493"
"1257","9797.813"
"1258","9818.951"
"1259","9835.865"
"1260","9844.431"
"1261","9851.155"
"1262","9863.444"
"1263","9883.059"
"1264","9896.881"
"1265","9889.361"
"1266","9851.842"
"1267","9807.802"
"1268","9790.078"
"1269","9825.89"
"1270","9895.04"
"1271","9953.619"
"1272","9960.123"
"1273","9916.214"
"1274","9859.014"
"1275","9826.083"
"1276","9829.043"
"1277","9845.205"
"1278","9849.581"
"1279","9829.897"
"1280","9801.152"
"1281","9781.869"
"1282","9785.036"
"1283","9803.887"
"1284","9827.263"
"1285","9845.505"
"1286","9857.965"
"1287","9867.34"
"1288","9875.727"
"1289","9878.994"
"1290","9869.305"
"1291","9839.572"
"1292","9798.529"
"1293","9769.458"
"1294","9775.761"
"1295","9820.222"
"1296","9876.646"
"1297","9916.72"
"1298","9927.669"
"1299","9930.354"
"1300","9950.043"
"1301","10000.96"
"1302","10059.88"
"1303","10095.59"
"1304","10084.08"
"1305","10039.87"
"1306","9990.37"
"1307","9960.629"
"1308","9955.131"
"1309","9967.866"
"1310","9992.374"
"1311","10016.85"
"1312","10025.46"
"1313","10003"
"1314","9954.662"
"1315","9908.007"
"1316","9891.429"
"1317","9912.319"
"1318","9944.796"
"1319","9960.069"
"1320","9944.063"
"1321","9916.594"
"1322","9902.245"
"1323","9915.929"
"1324","9939.789"
"1325","9949.035"
"1326","9925.229"
"1327","9881.717"
"1328","9841.771"
"1329","9826.105"
"1330","9836.388"
"1331","9865.745"
"1332","9907.083"
"1333","9951.383"
"1334","9988.415"
"1335","10008.37"
"1336","10009.63"
"1337","9997.617"
"1338","9978.032"
"1339","9957.217"
"1340","9942.278"
"1341","9940.252"
"1342","9950.404"
"1343","9959.706"
"1344","9954.089"
"1345","9929.402"
"1346","9902.704"
"1347","9893.783"
"1348","9911.18"
"1349","9930.735"
"1350","9922.381"
"1351","9868.958"
"1352","9804.371"
"1353","9775.164"
"1354","9815.811"
"1355","9896.056"
"1356","9964.04"
"1357","9974.944"
"1358","9935.376"
"1359","9874.641"
"1360","9820.492"
"1361","9784.214"
"1362","9767.658"
"1363","9772.034"
"1364","9791.213"
"1365","9813.707"
"1366","9828.54"
"1367","9837.569"
"1368","9854.459"
"1369","9892.564"
"1370","9942.895"
"1371","9970.797"
"1372","9940.941"
"1373","9854.771"
"1374","9766.039"
"1375","9732.093"
"1376","9771.514"
"1377","9834.837"
"1378","9865.813"
"1379","9836.506"
"1380","9780.108"
"1381","9737.784"
"1382","9734.626"
"1383","9753.114"
"1384","9768.75"
"1385","9765.815"
"1386","9757.042"
"1387","9760.933"
"1388","9788.622"
"1389","9822.211"
"1390","9836.615"
"1391","9814.016"
"1392","9771.177"
"1393","9735.158"
"1394","9727.68"
"1395","9739.963"
"1396","9752.422"
"1397","9748.641"
"1398","9733.894"
"1399","9722.479"
"1400","9726.306"
"1401","9737.671"
"1402","9739.402"
"1403","9716.995"
"1404","9681.992"
"1405","9660.371"
"1406","9675.483"
"1407","9719.219"
"1408","9763.691"
"1409","9782.738"
"1410","9777.355"
"1411","9767.722"
"1412","9773.323"
"1413","9796.451"
"1414","9825.874"
"1415","9850.224"
"1416","9862.43"
"1417","9859.156"
"1418","9837.52"
"1419","9801.727"
"1420","9762.7"
"1421","9731.532"
"1422","9716.366"
"1423","9722.338"
"1424","9754.127"
"1425","9807.66"
"1426","9869.154"
"1427","9924.483"
"1428","9964.798"
"1429","9987.508"
"1430","9990.701"
"1431","9983.771"
"1432","9990.299"
"1433","10034.2"
"1434","10116.1"
"1435","10205.96"
"1436","10272.05"
"1437","10300.49"
"1438","10302"
"1439","10289.01"
"1440","10270.85"
"1441","10252.43"
"1442","10238.23"
"1443","10228.48"
"1444","10217.12"
"1445","10197.8"
"1446","10172.15"
"1447","10153.73"
"1448","10156.79"
"1449","10182.36"
"1450","10211.64"
"1451","10224.38"
"1452","10209.98"
"1453","10172.29"
"1454","10116.46"
"1455","10053"
"1456","10000.43"
"1457","9977.554"
"1458","9984.398"
"1459","9993.567"
"1460","9975.933"
"1461","9925.335"
"1462","9868.373"
"1463","9833.69"
"1464","9827.761"
"1465","9826.418"
"1466","9803.752"
"1467","9754.829"
"1468","9702.576"
"1469","9671.378"
"1470","9667.18"
"1471","9672.59"
"1472","9668.989"
"1473","9647.02"
"1474","9608.416"
"1475","9555.855"
"1476","9500.073"
"1477","9460.87"
"1478","9457.583"
"1479","9485.606"
"1480","9515.258"
"1481","9516.882"
"1482","9487.422"
"1483","9449.551"
"1484","9425.998"
"1485","9420.565"
"1486","9420.281"
"1487","9412.271"
"1488","9394.797"
"1489","9375.082"
"1490","9359.984"
"1491","9347.652"
"1492","9329.914"
"1493","9299.884"
"1494","9267.395"
"1495","9253.147"
"1496","9274.511"
"1497","9313.66"
"1498","9332.575"
"1499","9299.262"
"1500","9235.075"
"1501","9188.207"
"1502","9198.69"
"1503","9246.426"
"1504","9285.114"
"1505","9277.788"
"1506","9244.599"
"1507","9227.014"
"1508","9255.475"
"1509","9304.379"
"1510","9330.435"
"1511","9303.338"
"1512","9247.604"
"1513","9202.196"
"1514","9194.781"
"1515","9213.635"
"1516","9238.455"
"1517","9252.145"
"1518","9246.803"
"1519","9216.192"
"1520","9164.063"
"1521","9117.537"
"1522","9106.915"
"1523","9139.211"
"1524","9176.856"
"1525","9177.663"
"1526","9127.021"
"1527","9053.383"
"1528","8988.677"
"1529","8953.523"
"1530","8954.22"
"1531","8995.42"
"1532","9064.383"
"1533","9130.547"
"1534","9164.046"
"1535","9160.591"
"1536","9136.883"
"1537","9109.633"
"1538","9088.051"
"1539","9076.462"
"1540","9078.265"
"1541","9089.608"
"1542","9102.942"
"1543","9110.35"
"1544","9101.913"
"1545","9066.906"
"1546","9001.803"
"1547","8937.27"
"1548","8914.157"
"1549","8953.991"
"1550","9010.104"
"1551","9020.817"
"1552","8958.078"
"1553","8881.696"
"1554","8865.337"
"1555","8935.178"
"1556","9025.016"
"1557","9058.987"
"1558","9014.538"
"1559","8946.565"
"1560","8914.336"
"1561","8929.074"
"1562","8949.867"
"1563","8935.985"
"1564","8892.279"
"1565","8860.301"
"1566","8877.763"
"1567","8931.418"
"1568","8977.938"
"1569","8979.511"
"1570","8939.64"
"1571","8879.345"
"1572","8818.863"
"1573","8774.243"
"1574","8760.313"
"1575","8784.057"
"1576","8826.849"
"1577","8864.848"
"1578","8879.725"
"1579","8865.59"
"1580","8818.492"
"1581","8749.444"
"1582","8692.965"
"1583","8684.429"
"1584","8725.032"
"1585","8778.317"
"1586","8807.742"
"1587","8805.243"
"1588","8784.669"
"1589","8760.439"
"1590","8746.954"
"1591","8758.61"
"1592","8803.332"
"1593","8852.184"
"1594","8863.19"
"1595","8811.798"
"1596","8737.353"
"1597","8693.758"
"1598","8710.605"
"1599","8759.829"
"1600","8805.18"
"1601","8822.859"
"1602","8808.552"
"1603","8760.444"
"1604","8697.111"
"1605","8658.308"
"1606","8680.377"
"1607","8743.269"
"1608","8788.163"
"1609","8766.508"
"1610","8710.779"
"1611","8689.457"
"1612","8749.646"
"1613","8843.002"
"1614","8894.84"
"1615","8864.401"
"1616","8802.627"
"1617","8775.345"
"1618","8811.347"
"1619","8876.946"
"1620","8933.112"
"1621","8959.102"
"1622","8953.737"
"1623","8917.437"
"1624","8858.479"
"1625","8790.473"
"1626","8727.372"
"1627","8684.636"
"1628","8678.355"
"1629","8716.505"
"1630","8775.167"
"1631","8822.66"
"1632","8842.042"
"1633","8850.185"
"1634","8868.283"
"1635","8898.813"
"1636","8918.395"
"1637","8903.524"
"1638","8861.624"
"1639","8826.178"
"1640","8826.864"
"1641","8853.787"
"1642","8877.089"
"1643","8874.274"
"1644","8857.667"
"1645","8849.634"
"1646","8864.354"
"1647","8894.928"
"1648","8931.142"
"1649","8965.09"
"1650","8992.284"
"1651","9008.714"
"1652","9014.076"
"1653","9011.296"
"1654","9003.921"
"1655","8999.856"
"1656","9009.189"
"1657","9038.022"
"1658","9074.786"
"1659","9103.035"
"1660","9107.372"
"1661","9074.894"
"1662","8993.745"
"1663","8880.184"
"1664","8787.549"
"1665","8767.031"
"1666","8801.617"
"1667","8823.34"
"1668","8776.514"
"1669","8696.336"
"1670","8655.338"
"1671","8698.397"
"1672","8775.806"
"1673","8818.067"
"1674","8792.22"
"1675","8730.735"
"1676","8672.014"
"1677","8633.844"
"1678","8613.839"
"1679","8607.902"
"1680","8604.178"
"1681","8586.683"
"1682","8545.196"
"1683","8494.691"
"1684","8456.934"
"1685","8443.135"
"1686","8441.584"
"1687","8438.004"
"1688","8431.786"
"1689","8437.911"
"1690","8469.151"
"1691","8505.581"
"1692","8507.522"
"1693","8448.041"
"1694","8363.402"
"1695","8308.924"
"1696","8313.266"
"1697","8342.855"
"1698","8356.119"
"1699","8340.505"
"1700","8317.862"
"1701","8310.133"
"1702","8318.362"
"1703","8330.891"
"1704","8337.359"
"1705","8334.589"
"1706","8321.531"
"1707","8301.735"
"1708","8288.911"
"1709","8297.46"
"1710","8322.689"
"1711","8338.953"
"1712","8323.022"
"1713","8284.716"
"1714","8251.912"
"1715","8244.429"
"1716","8248.563"
"1717","8242.214"
"1718","8216.492"
"1719","8187.134"
"1720","8172.027"
"1721","8178.084"
"1722","8202.278"
"1723","8240.068"
"1724","8278.831"
"1725","8302.438"
"1726","8299.859"
"1727","8275.745"
"1728","8237.846"
"1729","8198.919"
"1730","8178.721"
"1731","8194.997"
"1732","8234.316"
"1733","8262.45"
"1734","8253.229"
"1735","8221.142"
"1736","8192.771"
"1737","8184.151"
"1738","8189.57"
"1739","8200.618"
"1740","8208.887"
"1741","8205.95"
"1742","8185.154"
"1743","8152.408"
"1744","8119.044"
"1745","8097.3"
"1746","8101.901"
"1747","8147.35"
"1748","8222.717"
"1749","8284.941"
"1750","8293.325"
"1751","8251.736"
"1752","8189.454"
"1753","8133.381"
"1754","8100.059"
"1755","8103.3"
"1756","8137.221"
"1757","8164.718"
"1758","8149.286"
"1759","8099.49"
"1760","8055.522"
"1761","8048.153"
"1762","8060.626"
"1763","8062.436"
"1764","8040.121"
"1765","8012.182"
"1766","7999.534"
"1767","8004.743"
"1768","8015.537"
"1769","8020.415"
"1770","8014.438"
"1771","7994.902"
"1772","7966.665"
"1773","7950.297"
"1774","7966.789"
"1775","8008.352"
"1776","8042.032"
"1777","8040.413"
"1778","8013.087"
"1779","7982.842"
"1780","7968.663"
"1781","7981.227"
"1782","8028.642"
"1783","8090.702"
"1784","8122.052"
"1785","8087.04"
"1786","8010.857"
"1787","7940.201"
"1788","7905.33"
"1789","7901.78"
"1790","7920.667"
"1791","7952.415"
"1792","7986.883"
"1793","8014.873"
"1794","8032.431"
"1795","8037.322"
"1796","8027.272"
"1797","7999.94"
"1798","7954.584"
"1799","7914.164"
"1800","7919.689"
"1801","7994.833"
"1802","8082.062"
"1803","8101.438"
"1804","8030.504"
"1805","7941.253"
"1806","7907.809"
"1807","7925.97"
"1808","7941.352"
"1809","7916.36"
"1810","7878.174"
"1811","7868.051"
"1812","7894.386"
"1813","7921.97"
"1814","7917.401"
"1815","7888.822"
"1816","7865.32"
"1817","7863.741"
"1818","7866.61"
"1819","7851.763"
"1820","7825.711"
"1821","7823.948"
"1822","7872.047"
"1823","7928.57"
"1824","7927.631"
"1825","7846.923"
"1826","7750.229"
"1827","7707.215"
"1828","7727.995"
"1829","7779.492"
"1830","7832.249"
"1831","7875.219"
"1832","7901.88"
"1833","7905.802"
"1834","7880.669"
"1835","7824.372"
"1836","7768.634"
"1837","7761.532"
"1838","7823.772"
"1839","7907.501"
"1840","7956.544"
"1841","7956.667"
"1842","7930.255"
"1843","7898.225"
"1844","7868.498"
"1845","7845.177"
"1846","7830.48"
"1847","7823.767"
"1848","7824.424"
"1849","7834.194"
"1850","7856.053"
"1851","7888.359"
"1852","7917.254"
"1853","7927.471"
"1854","7915.262"
"1855","7887.136"
"1856","7851.769"
"1857","7826.129"
"1858","7829.16"
"1859","7856.516"
"1860","7870.221"
"1861","7837.077"
"1862","7784.576"
"1863","7769.617"
"1864","7816.88"
"1865","7875.529"
"1866","7887.521"
"1867","7849.273"
"1868","7798.972"
"1869","7767.853"
"1870","7756.679"
"1871","7758.942"
"1872","7765.06"
"1873","7761.866"
"1874","7739.695"
"1875","7711.354"
"1876","7697.856"
"1877","7705.055"
"1878","7712.469"
"1879","7700.81"
"1880","7687.979"
"1881","7712.625"
"1882","7787.067"
"1883","7855.658"
"1884","7856.345"
"1885","7797.994"
"1886","7746.223"
"1887","7747.289"
"1888","7768.499"
"1889","7760.202"
"1890","7717.747"
"1891","7686.399"
"1892","7703.332"
"1893","7747.62"
"1894","7779.219"
"1895","7779.427"
"1896","7761.661"
"1897","7741.486"
"1898","7730.322"
"1899","7737.644"
"1900","7763.792"
"1901","7790.883"
"1902","7800.59"
"1903","7793.481"
"1904","7781.527"
"1905","7770.74"
"1906","7751.135"
"1907","7711.892"
"1908","7668.655"
"1909","7657.42"
"1910","7696.342"
"1911","7741.874"
"1912","7739.898"
"1913","7688.22"
"1914","7633.956"
"1915","7615.221"
"1916","7623.587"
"1917","7638.58"
"1918","7645.857"
"1919","7638.083"
"1920","7612.206"
"1921","7585.182"
"1922","7580.054"
"1923","7604.167"
"1924","7643.793"
"1925","7683.219"
"1926","7703.977"
"1927","7686.852"
"1928","7632.944"
"1929","7574.589"
"1930","7542.667"
"1931","7538.282"
"1932","7549.778"
"1933","7569.739"
"1934","7598.183"
"1935","7634.024"
"1936","7661.74"
"1937","7659.024"
"1938","7619.831"
"1939","7568.773"
"1940","7531.9"
"1941","7517.564"
"1942","7524.959"
"1943","7546.226"
"1944","7559.581"
"1945","7546.084"
"1946","7529.013"
"1947","7554.274"
"1948","7629.516"
"1949","7682.633"
"1950","7642.515"
"1951","7543.799"
"1952","7479.417"
"1953","7494.436"
"1954","7532.289"
"1955","7530.973"
"1956","7499.465"
"1957","7485.721"
"1958","7511.341"
"1959","7542.794"
"1960","7543.342"
"1961","7509.957"
"1962","7457.643"
"1963","7400.938"
"1964","7353.077"
"1965","7326.002"
"1966","7321.594"
"1967","7336.656"
"1968","7369.987"
"1969","7424.14"
"1970","7497.094"
"1971","7548.474"
"1972","7520.637"
"1973","7409.862"
"1974","7303.015"
"1975","7279.214"
"1976","7303.969"
"1977","7296.311"
"1978","7233.419"
"1979","7179.456"
"1980","7191.47"
"1981","7242.076"
"1982","7274.221"
"1983","7273.489"
"1984","7280.76"
"1985","7325.822"
"1986","7365.363"
"1987","7336.203"
"1988","7249.194"
"1989","7196.604"
"1990","7241.368"
"1991","7310.957"
"1992","7303.619"
"1993","7215.907"
"1994","7133.999"
"1995","7118.377"
"1996","7136.292"
"1997","7139.37"
"1998","7122.547"
"1999","7112.621"
"2000","7118.183"
"2001","7100.537"
"2002","7021.419"
"2003","6921.097"
"2004","6884.983"
"2005","6949.097"
"2006","7053.743"
"2007","7134.572"
"2008","7173.117"
"2009","7171.181"
"2010","7136.838"
"2011","7087.126"
"2012","7038.906"
"2013","7004.222"
"2014","6993.218"
"2015","7005.63"
"2016","7030.019"
"2017","7053.717"
"2018","7061.778"
"2019","7040.353"
"2020","7000.907"
"2021","6974.6"
"2022","6973.003"
"2023","6957.393"
"2024","6891.242"
"2025","6832.271"
"2026","6888.684"
"2027","7063.416"
"2028","7178.145"
"2029","7079.442"
"2030","6872.042"
"2031","6752.249"
"2032","6787.097"
"2033","6892.661"
"2034","6986.9"
"2035","7028.3"
"2036","6988.623"
"2037","6897.779"
"2038","6830.929"
"2039","6832.392"
"2040","6869.686"
"2041","6900.649"
"2042","6897.247"
"2043","6839.138"
"2044","6743.31"
"2045","6682.925"
"2046","6714.773"
"2047","6791.055"
"2048","6834.206"
"2049","6819.606"
"2050","6772.9"
"2051","6720.719"
"2052","6686.616"
"2053","6691.172"
"2054","6729.498"
"2055","6781.715"
"2056","6814.278"
"2057","6771.043"
"2058","6618.436"
"2059","6457.287"
"2060","6427.823"
"2061","6529.392"
"2062","6620.626"
"2063","6605.048"
"2064","6537.035"
"2065","6493.859"
"2066","6503.787"
"2067","6566.581"
"2068","6660.554"
"2069","6729.781"
"2070","6729.241"
"2071","6685.188"
"2072","6644.791"
"2073","6626.843"
"2074","6624.326"
"2075","6629.055"
"2076","6632.309"
"2077","6625.976"
"2078","6608.038"
"2079","6579.611"
"2080","6548.128"
"2081","6529.515"
"2082","6533.543"
"2083","6543.183"
"2084","6536.799"
"2085","6520.391"
"2086","6519.629"
"2087","6541.075"
"2088","6553.508"
"2089","6529.068"
"2090","6484.782"
"2091","6452.66"
"2092","6439.156"
"2093","6425.641"
"2094","6400.258"
"2095","6372.004"
"2096","6353.78"
"2097","6362.033"
"2098","6414.214"
"2099","6499.558"
"2100","6571.355"
"2101","6591.171"
"2102","6558.15"
"2103","6481.652"
"2104","6392.855"
"2105","6335.875"
"2106","6320.207"
"2107","6300.362"
"2108","6241.51"
"2109","6177.034"
"2110","6155.452"
"2111","6174.826"
"2112","6196.214"
"2113","6194.774"
"2114","6173.667"
"2115","6141.747"
"2116","6121.362"
"2117","6137.392"
"2118","6182.783"
"2119","6223.819"
"2120","6238.404"
"2121","6230.655"
"2122","6207.893"
"2123","6176.888"
"2124","6144.209"
"2125","6115.776"
"2126","6096.903"
"2127","6088.644"
"2128","6082.566"
"2129","6072.423"
"2130","6073.138"
"2131","6106.28"
"2132","6166.467"
"2133","6223.197"
"2134","6239.024"
"2135","6163.247"
"2136","5968.335"
"2137","5778.004"
"2138","5763.172"
"2139","5907.664"
"2140","6025.317"
"2141","6006.624"
"2142","5922.621"
"2143","5855.502"
"2144","5815.365"
"2145","5787.932"
"2146","5774.089"
"2147","5787.493"
"2148","5824.833"
"2149","5848.422"
"2150","5826.938"
"2151","5781.783"
"2152","5748.615"
"2153","5729.897"
"2154","5703.417"
"2155","5670.148"
"2156","5671.976"
"2157","5732.563"
"2158","5781.639"
"2159","5734.537"
"2160","5626.427"
"2161","5567.206"
"2162","5602.917"
"2163","5686.8"
"2164","5768.581"
"2165","5810.543"
"2166","5782.865"
"2167","5702.135"
"2168","5608.331"
"2169","5535.818"
"2170","5512.351"
"2171","5546.235"
"2172","5597.18"
"2173","5621.741"
"2174","5604.97"
"2175","5543.994"
"2176","5458.076"
"2177","5385.3"
"2178","5357.058"
"2179","5391.059"
"2180","5487.296"
"2181","5576.012"
"2182","5577.697"
"2183","5512.712"
"2184","5460.871"
"2185","5436.248"
"2186","5366.119"
"2187","5229.26"
"2188","5168.222"
"2189","5315.446"
"2190","5537.301"
"2191","5600.859"
"2192","5471.839"
"2193","5291.153"
"2194","5172.193"
"2195","5165.968"
"2196","5288.094"
"2197","5436.065"
"2198","5487.93"
"2199","5431.673"
"2200","5317.946"
"2201","5213.83"
"2202","5204.423"
"2203","5305.234"
"2204","5360.62"
"2205","5235.132"
"2206","5041.642"
"2207","4962.229"
"2208","4989.205"
"2209","4983.201"
"2210","4905.063"
"2211","4861.403"
"2212","4911.943"
"2213","4945.999"
"2214","4854.257"
"2215","4739.144"
"2216","4773.892"
"2217","4913.562"
"2218","4939.85"
"2219","4796.596"
"2220","4692.735"
"2221","4776.307"
"2222","4919.442"
"2223","4962.938"
"2224","4924.114"
"2225","4893.242"
"2226","4911.125"
"2227","4975.862"
"2228","5045.9"
"2229","5017.173"
"2230","4838.848"
"2231","4654.789"
"2232","4619.816"
"2233","4683.532"
"2234","4714.749"
"2235","4689.233"
"2236","4670.203"
"2237","4675.751"
"2238","4649.799"
"2239","4562.436"
"2240","4482.959"
"2241","4481.382"
"2242","4513.755"
"2243","4497.56"
"2244","4425.634"
"2245","4345.837"
"2246","4285.889"
"2247","4244.301"
"2248","4216.998"
"2249","4198.595"
"2250","4186.375"
"2251","4192.313"
"2252","4229.708"
"2253","4275.833"
"2254","4287.302"
"2255","4254.175"
"2256","4203.636"
"2257","4154.999"
"2258","4107.828"
"2259","4056.802"
"2260","3986.963"
"2261","3889.057"
"2262","3814.432"
"2263","3835.666"
"2264","3916.053"
"2265","3930.213"
"2266","3835.565"
"2267","3714.33"
"2268","3635.589"
"2269","3607.105"
"2270","3620.02"
"2271","3632.431"
"2272","3596.082"
"2273","3502.93"
"2274","3368.301"
"2275","3220.668"
"2276","3101.288"
"2277","3053.412"
"2278","3122.52"
"2279","3295.831"
"2280","3381.757"
"2281","3214.406"
"2282","2969.568"
"2283","2914.513"
"2284","2996.762"
"2285","2974.04"
"2286","2808.128"
"2287","2676.915"
"2288","2655.625"
"2289","2618.439"
"2290","2473.78"
"2291","2301.2"
"2292","2197.908"
"2293","2173.54"
"2294","2203.406"
"2295","2221.18"
"2296","2140.89"
"2297","1995.863"
"2298","1935.919"
"2299","1987.826"
"2300","1969.533"
