,"Scan 01114"
"400","10381.07"
"401","10379.84"
"402","10363.53"
"403","10330.67"
"404","10292.56"
"405","10264.55"
"406","10261.85"
"407","10296.68"
"408","10357.87"
"409","10422.98"
"410","10469.71"
"411","10477.51"
"412","10447.43"
"413","10395.41"
"414","10337.62"
"415","10289.79"
"416","10260.47"
"417","10251.19"
"418","10263.21"
"419","10297.63"
"420","10350.37"
"421","10410.36"
"422","10466.11"
"423","10506.23"
"424","10523.16"
"425","10516.21"
"426","10485.46"
"427","10431.01"
"428","10357.33"
"429","10279.98"
"430","10216.08"
"431","10182.65"
"432","10190.14"
"433","10227.13"
"434","10277.68"
"435","10325.93"
"436","10358.72"
"437","10374.49"
"438","10374.97"
"439","10361.86"
"440","10336.88"
"441","10301.62"
"442","10257.69"
"443","10206.65"
"444","10150.86"
"445","10098.77"
"446","10061.66"
"447","10050.77"
"448","10075.41"
"449","10126.28"
"450","10183.34"
"451","10226.59"
"452","10237.56"
"453","10216.75"
"454","10177.91"
"455","10134.98"
"456","10101.24"
"457","10080.51"
"458","10068.7"
"459","10061.51"
"460","10054.84"
"461","10048.01"
"462","10043.74"
"463","10044.85"
"464","10053.89"
"465","10066.61"
"466","10071.1"
"467","10055.13"
"468","10006.97"
"469","9930.739"
"470","9850.6"
"471","9791.85"
"472","9779.147"
"473","9814.02"
"474","9865.438"
"475","9900.097"
"476","9885.365"
"477","9816.837"
"478","9733.694"
"479","9678.647"
"480","9693.696"
"481","9787.272"
"482","9911.772"
"483","10014.52"
"484","10043.54"
"485","9980.559"
"486","9867.167"
"487","9750.896"
"488","9678.756"
"489","9672.62"
"490","9707.679"
"491","9754.141"
"492","9782.516"
"493","9776.66"
"494","9745.97"
"495","9702.682"
"496","9658.926"
"497","9621.797"
"498","9588.626"
"499","9555.626"
"500","9519.063"
"501","9477.882"
"502","9436.251"
"503","9398.922"
"504","9370.566"
"505","9350.988"
"506","9330.664"
"507","9299.063"
"508","9245.813"
"509","9169.034"
"510","9082.561"
"511","9001.848"
"512","8942.161"
"513","8909"
"514","8890.749"
"515","8874.108"
"516","8845.98"
"517","8802.921"
"518","8757.368"
"519","8723.185"
"520","8713.955"
"521","8731.648"
"522","8760.54"
"523","8783.499"
"524","8783.735"
"525","8755.682"
"526","8709.315"
"527","8655.72"
"528","8605.752"
"529","8564.277"
"530","8528.729"
"531","8496.085"
"532","8463.478"
"533","8431.966"
"534","8406.931"
"535","8393.95"
"536","8398.225"
"537","8417.297"
"538","8441.354"
"539","8460.327"
"540","8464.612"
"541","8451.502"
"542","8424.002"
"543","8385.271"
"544","8338.787"
"545","8292.294"
"546","8256.528"
"547","8242.23"
"548","8258.347"
"549","8295.948"
"550","8335.721"
"551","8358.311"
"552","8347.19"
"553","8307.668"
"554","8255.414"
"555","8206.088"
"556","8173.595"
"557","8161.418"
"558","8169.064"
"559","8196.038"
"560","8239.896"
"561","8288.913"
"562","8328.648"
"563","8344.733"
"564","8327.913"
"565","8287.282"
"566","8236.05"
"567","8187.352"
"568","8151.33"
"569","8130.031"
"570","8124.139"
"571","8134.299"
"572","8156.821"
"573","8179.124"
"574","8187.589"
"575","8168.866"
"576","8121.841"
"577","8064.144"
"578","8014.917"
"579","7992.734"
"580","8001.523"
"581","8028.518"
"582","8060.081"
"583","8083.164"
"584","8093.789"
"585","8095.617"
"586","8092.519"
"587","8088.345"
"588","8086.74"
"589","8091.228"
"590","8105.315"
"591","8131.274"
"592","8162.771"
"593","8189.79"
"594","8202.348"
"595","8193.495"
"596","8170.354"
"597","8144.142"
"598","8126.018"
"599","8123.143"
"600","8130.301"
"601","8139.922"
"602","8144.48"
"603","8140.206"
"604","8131.041"
"605","8121.867"
"606","8117.437"
"607","8117.529"
"608","8115.048"
"609","8102.42"
"610","8072.761"
"611","8032.604"
"612","8000.911"
"613","7997.052"
"614","8037.493"
"615","8107.886"
"616","8175.071"
"617","8205.745"
"618","8173.318"
"619","8093.171"
"620","7997"
"621","7916.422"
"622","7874.952"
"623","7865.554"
"624","7873.951"
"625","7885.934"
"626","7891.245"
"627","7888.649"
"628","7878.176"
"629","7859.916"
"630","7836.572"
"631","7814.571"
"632","7800.599"
"633","7801.069"
"634","7817.746"
"635","7848.309"
"636","7890.305"
"637","7940.642"
"638","7990.313"
"639","8027.171"
"640","8039.07"
"641","8017.736"
"642","7973.985"
"643","7924.525"
"644","7886.009"
"645","7869.813"
"646","7872.799"
"647","7889.34"
"648","7913.829"
"649","7940.312"
"650","7962.284"
"651","7973.208"
"652","7966.993"
"653","7946.023"
"654","7920.484"
"655","7900.824"
"656","7896.084"
"657","7902.993"
"658","7911.8"
"659","7912.726"
"660","7898.759"
"661","7875.35"
"662","7851.484"
"663","7836.104"
"664","7833.183"
"665","7834.895"
"666","7831.723"
"667","7814.459"
"668","7785.09"
"669","7760.076"
"670","7756.794"
"671","7790.77"
"672","7853.487"
"673","7919.356"
"674","7962.502"
"675","7962.27"
"676","7929.312"
"677","7885.96"
"678","7854.5"
"679","7849.693"
"680","7864.147"
"681","7886.416"
"682","7905.185"
"683","7914.744"
"684","7917.832"
"685","7917.872"
"686","7918.076"
"687","7918.457"
"688","7916.5"
"689","7909.632"
"690","7896.123"
"691","7879.706"
"692","7866.28"
"693","7861.735"
"694","7869.687"
"695","7886.965"
"696","7909.138"
"697","7931.803"
"698","7951.164"
"699","7964.313"
"700","7968.417"
"701","7961.062"
"702","7945.533"
"703","7929.259"
"704","7919.743"
"705","7923.117"
"706","7937.901"
"707","7959.977"
"708","7985.234"
"709","8009.254"
"710","8026.844"
"711","8032.706"
"712","8021.756"
"713","7995.416"
"714","7962.727"
"715","7933.155"
"716","7915.329"
"717","7910.051"
"718","7913.739"
"719","7922.767"
"720","7934.437"
"721","7949.664"
"722","7970.25"
"723","7997.962"
"724","8031.341"
"725","8063.371"
"726","8086.508"
"727","8093.67"
"728","8085.074"
"729","8066.728"
"730","8044.792"
"731","8024.547"
"732","8006.347"
"733","7988.805"
"734","7970.55"
"735","7953.371"
"736","7946.412"
"737","7959.84"
"738","8003.064"
"739","8067.537"
"740","8126.325"
"741","8151.709"
"742","8121.389"
"743","8052.824"
"744","7981.287"
"745","7942.057"
"746","7956.949"
"747","8009.36"
"748","8075.888"
"749","8133.483"
"750","8169.621"
"751","8184.389"
"752","8178.619"
"753","8153.895"
"754","8118.306"
"755","8083.278"
"756","8060.249"
"757","8057.049"
"758","8070.046"
"759","8093.332"
"760","8121.051"
"761","8149.145"
"762","8175.843"
"763","8199.543"
"764","8218.711"
"765","8232.561"
"766","8240.701"
"767","8242.739"
"768","8239.688"
"769","8237.067"
"770","8241.291"
"771","8258.587"
"772","8288.378"
"773","8321.542"
"774","8348.421"
"775","8360.587"
"776","8360.055"
"777","8354.122"
"778","8350.119"
"779","8353.134"
"780","8361.654"
"781","8372.961"
"782","8384.451"
"783","8396.836"
"784","8414.58"
"785","8442.335"
"786","8482.961"
"787","8526.393"
"788","8556.903"
"789","8558.782"
"790","8526.315"
"791","8478.364"
"792","8437.484"
"793","8425.284"
"794","8444.452"
"795","8480.032"
"796","8516.417"
"797","8540.344"
"798","8551.519"
"799","8554.121"
"800","8552.322"
"801","8549.045"
"802","8544.859"
"803","8540.072"
"804","8534.956"
"805","8529.377"
"806","8522.898"
"807","8515.087"
"808","8505.853"
"809","8496.472"
"810","8488.557"
"811","8483.725"
"812","8483.876"
"813","8491.304"
"814","8508.322"
"815","8536.386"
"816","8569.847"
"817","8599.576"
"818","8616.434"
"819","8616.261"
"820","8607.604"
"821","8601.007"
"822","8606.402"
"823","8622.091"
"824","8635.919"
"825","8635.368"
"826","8612.177"
"827","8578.963"
"828","8554.726"
"829","8558.216"
"830","8592.871"
"831","8638.005"
"832","8670.813"
"833","8671.543"
"834","8649.214"
"835","8628.699"
"836","8635.007"
"837","8681.294"
"838","8748.108"
"839","8810.454"
"840","8844.231"
"841","8843.2"
"842","8817.599"
"843","8778.279"
"844","8735.432"
"845","8696.093"
"846","8666.346"
"847","8652.219"
"848","8657.027"
"849","8680.04"
"850","8720.194"
"851","8775.479"
"852","8835.885"
"853","8887.438"
"854","8916.159"
"855","8916.098"
"856","8900.299"
"857","8884.555"
"858","8883.786"
"859","8899.842"
"860","8924.471"
"861","8949.161"
"862","8966.622"
"863","8974.152"
"864","8970.127"
"865","8953.106"
"866","8927.119"
"867","8902.486"
"868","8889.877"
"869","8898.216"
"870","8926.213"
"871","8968.891"
"872","9021.234"
"873","9076.747"
"874","9126.434"
"875","9161.062"
"876","9172.739"
"877","9165.647"
"878","9150.36"
"879","9137.492"
"880","9133.505"
"881","9134.945"
"882","9136.922"
"883","9134.907"
"884","9129.547"
"885","9125.311"
"886","9126.755"
"887","9136.478"
"888","9150.494"
"889","9163.437"
"890","9170.271"
"891","9173.53"
"892","9183.247"
"893","9209.783"
"894","9259.68"
"895","9321.805"
"896","9379.9"
"897","9418.047"
"898","9433.631"
"899","9441.276"
"900","9456.754"
"901","9492.03"
"902","9535.371"
"903","9565.904"
"904","9562.963"
"905","9521.29"
"906","9461.144"
"907","9405.171"
"908","9373.866"
"909","9370.027"
"910","9387.75"
"911","9421.072"
"912","9463.445"
"913","9507.116"
"914","9544.185"
"915","9567.388"
"916","9576.305"
"917","9574.647"
"918","9566.188"
"919","9553.529"
"920","9536.334"
"921","9513.798"
"922","9485.517"
"923","9456.468"
"924","9435.51"
"925","9431.594"
"926","9449.746"
"927","9483.138"
"928","9522.705"
"929","9559.521"
"930","9587.067"
"931","9600.821"
"932","9596.332"
"933","9572.327"
"934","9538.747"
"935","9508.007"
"936","9492.061"
"937","9493.05"
"938","9503.782"
"939","9516.693"
"940","9525.439"
"941","9528.575"
"942","9525.893"
"943","9517.291"
"944","9505.484"
"945","9496.149"
"946","9495.106"
"947","9505.389"
"948","9517.648"
"949","9519.084"
"950","9497.411"
"951","9455.662"
"952","9414.286"
"953","9394.691"
"954","9412.66"
"955","9456.915"
"956","9508.06"
"957","9547.037"
"958","9566.32"
"959","9572.243"
"960","9571.973"
"961","9571.076"
"962","9567.031"
"963","9554.771"
"964","9529.439"
"965","9494.084"
"966","9461.563"
"967","9445.354"
"968","9455.113"
"969","9480.569"
"970","9505.002"
"971","9512.007"
"972","9497.253"
"973","9471.615"
"974","9446.942"
"975","9433.371"
"976","9432.097"
"977","9441.411"
"978","9459.531"
"979","9481.944"
"980","9500.736"
"981","9507.77"
"982","9498.236"
"983","9484.289"
"984","9483.484"
"985","9512.772"
"986","9568.64"
"987","9622.701"
"988","9645.061"
"989","9613.924"
"990","9547.135"
"991","9474.614"
"992","9425.674"
"993","9410.19"
"994","9415.542"
"995","9427.841"
"996","9436.348"
"997","9444.746"
"998","9460.837"
"999","9491.985"
"1000","9533.738"
"1001","9568.815"
"1002","9579.291"
"1003","9554.281"
"1004","9512.474"
"1005","9480.312"
"1006","9484.221"
"1007","9535.901"
"1008","9610.025"
"1009","9675.528"
"1010","9703.951"
"1011","9693.929"
"1012","9660.088"
"1013","9617.256"
"1014","9577.589"
"1015","9548.011"
"1016","9534.834"
"1017","9542.737"
"1018","9564.152"
"1019","9585.914"
"1020","9595.014"
"1021","9588.592"
"1022","9578.979"
"1023","9579.751"
"1024","9601.152"
"1025","9635.562"
"1026","9669.392"
"1027","9689.469"
"1028","9694.241"
"1029","9694.954"
"1030","9703.529"
"1031","9728.047"
"1032","9762.425"
"1033","9797.306"
"1034","9823.647"
"1035","9837.317"
"1036","9838.034"
"1037","9825.629"
"1038","9804.378"
"1039","9789.525"
"1040","9797.989"
"1041","9843.555"
"1042","9911.582"
"1043","9972.304"
"1044","9996.082"
"1045","9973.135"
"1046","9925.933"
"1047","9879.921"
"1048","9856.22"
"1049","9852.339"
"1050","9857.761"
"1051","9862.275"
"1052","9863.607"
"1053","9867.797"
"1054","9881.287"
"1055","9906.882"
"1056","9935.64"
"1057","9956.229"
"1058","9958.656"
"1059","9948.831"
"1060","9943.033"
"1061","9957.624"
"1062","9996.591"
"1063","10040.37"
"1064","10066.76"
"1065","10058.18"
"1066","10025.81"
"1067","9991.746"
"1068","9977.634"
"1069","9990.229"
"1070","10019.77"
"1071","10055.61"
"1072","10088.01"
"1073","10110.14"
"1074","10115.8"
"1075","10100"
"1076","10071.8"
"1077","10049.11"
"1078","10049.85"
"1079","10077.51"
"1080","10110.42"
"1081","10124.34"
"1082","10101.21"
"1083","10055.92"
"1084","10014.25"
"1085","10000.99"
"1086","10019.31"
"1087","10052.14"
"1088","10081.67"
"1089","10094.72"
"1090","10090.23"
"1091","10069.04"
"1092","10033.3"
"1093","9995.665"
"1094","9973.821"
"1095","9985.014"
"1096","10028.73"
"1097","10081.78"
"1098","10119.51"
"1099","10122.85"
"1100","10092.52"
"1101","10033.65"
"1102","9952.71"
"1103","9871.488"
"1104","9821.303"
"1105","9833.185"
"1106","9908.109"
"1107","9998.819"
"1108","10053.67"
"1109","10036.01"
"1110","9975.794"
"1111","9921.493"
"1112","9918.249"
"1113","9963.55"
"1114","10019.46"
"1115","10047.37"
"1116","10028.19"
"1117","9979.278"
"1118","9921.962"
"1119","9875.683"
"1120","9850.177"
"1121","9852.117"
"1122","9887.004"
"1123","9941.201"
"1124","9985.511"
"1125","9990.417"
"1126","9947.233"
"1127","9888.708"
"1128","9852.517"
"1129","9867.94"
"1130","9919.707"
"1131","9977.846"
"1132","10013.48"
"1133","10016.33"
"1134","9991.306"
"1135","9943.854"
"1136","9884.461"
"1137","9833.496"
"1138","9812.484"
"1139","9836.602"
"1140","9889.146"
"1141","9943.438"
"1142","9974.162"
"1143","9976.61"
"1144","9961.732"
"1145","9940.857"
"1146","9922.376"
"1147","9909.514"
"1148","9904.98"
"1149","9910.827"
"1150","9926.21"
"1151","9949.514"
"1152","9979.109"
"1153","10013.31"
"1154","10050.38"
"1155","10088.49"
"1156","10121.21"
"1157","10135.38"
"1158","10117.32"
"1159","10062.85"
"1160","10000.3"
"1161","9964.878"
"1162","9986.448"
"1163","10048.42"
"1164","10110.52"
"1165","10133.43"
"1166","10111.21"
"1167","10075.21"
"1168","10058.73"
"1169","10077.75"
"1170","10105.49"
"1171","10108.66"
"1172","10062.32"
"1173","9990.423"
"1174","9934.624"
"1175","9933.932"
"1176","9984.914"
"1177","10050.48"
"1178","10092.85"
"1179","10094.51"
"1180","10071.77"
"1181","10044.16"
"1182","10026.73"
"1183","10017.94"
"1184","10012.44"
"1185","10005.6"
"1186","9999.237"
"1187","9998.448"
"1188","10008.11"
"1189","10026.47"
"1190","10044.76"
"1191","10053.89"
"1192","10049.43"
"1193","10037.11"
"1194","10024"
"1195","10016.64"
"1196","10019.12"
"1197","10034.8"
"1198","10065.88"
"1199","10101.65"
"1200","10123.39"
"1201","10112.85"
"1202","10072"
"1203","10027.61"
"1204","10007.96"
"1205","10028.76"
"1206","10074.88"
"1207","10126.55"
"1208","10166.1"
"1209","10186.99"
"1210","10186.23"
"1211","10161.59"
"1212","10119.87"
"1213","10073.67"
"1214","10035.57"
"1215","10013.6"
"1216","10010.16"
"1217","10027.27"
"1218","10061.64"
"1219","10097.28"
"1220","10116.36"
"1221","10106.27"
"1222","10079.51"
"1223","10056.08"
"1224","10054.29"
"1225","10074.8"
"1226","10107.99"
"1227","10144.14"
"1228","10174.75"
"1229","10192.57"
"1230","10190.52"
"1231","10169.74"
"1232","10147.69"
"1233","10143.76"
"1234","10170.7"
"1235","10215.98"
"1236","10261.14"
"1237","10289.69"
"1238","10300.02"
"1239","10297.29"
"1240","10286.62"
"1241","10272.04"
"1242","10256.69"
"1243","10243.68"
"1244","10234.87"
"1245","10230.41"
"1246","10230.3"
"1247","10234.98"
"1248","10246.08"
"1249","10265.38"
"1250","10293.65"
"1251","10326.67"
"1252","10358.79"
"1253","10384.33"
"1254","10397.63"
"1255","10393.02"
"1256","10365.4"
"1257","10320.32"
"1258","10273.1"
"1259","10239.27"
"1260","10226.54"
"1261","10230.54"
"1262","10245.89"
"1263","10266.63"
"1264","10285.35"
"1265","10294.41"
"1266","10289.75"
"1267","10284.03"
"1268","10294.81"
"1269","10335.95"
"1270","10390.5"
"1271","10426.05"
"1272","10412.39"
"1273","10357.76"
"1274","10302.02"
"1275","10285.26"
"1276","10318.54"
"1277","10374.58"
"1278","10423.45"
"1279","10445.8"
"1280","10444.94"
"1281","10427.06"
"1282","10398.63"
"1283","10366.98"
"1284","10339.66"
"1285","10323.04"
"1286","10316.51"
"1287","10316.88"
"1288","10320.97"
"1289","10326.05"
"1290","10329.63"
"1291","10329.38"
"1292","10325.89"
"1293","10322.42"
"1294","10322.36"
"1295","10328.58"
"1296","10343.31"
"1297","10368.7"
"1298","10404.01"
"1299","10442.21"
"1300","10475.48"
"1301","10496.96"
"1302","10503.23"
"1303","10491.59"
"1304","10461.47"
"1305","10423.7"
"1306","10392.93"
"1307","10382.01"
"1308","10388.12"
"1309","10400.47"
"1310","10408.64"
"1311","10408.86"
"1312","10402.39"
"1313","10390.67"
"1314","10376.99"
"1315","10366.72"
"1316","10365.2"
"1317","10371.36"
"1318","10373.92"
"1319","10360.72"
"1320","10328.58"
"1321","10294.97"
"1322","10280.33"
"1323","10297.28"
"1324","10332.19"
"1325","10365.86"
"1326","10382.17"
"1327","10380.59"
"1328","10365.42"
"1329","10341.34"
"1330","10315.78"
"1331","10297.44"
"1332","10294.18"
"1333","10304.82"
"1334","10322.44"
"1335","10340.12"
"1336","10352.03"
"1337","10353.32"
"1338","10339.38"
"1339","10312.78"
"1340","10284.42"
"1341","10265.64"
"1342","10261.63"
"1343","10267.92"
"1344","10279.17"
"1345","10291.2"
"1346","10302.21"
"1347","10310.77"
"1348","10313.9"
"1349","10304.35"
"1350","10274.06"
"1351","10221.56"
"1352","10171.41"
"1353","10154.62"
"1354","10193.17"
"1355","10260.65"
"1356","10314.44"
"1357","10317.9"
"1358","10277.53"
"1359","10218.93"
"1360","10166.3"
"1361","10128.98"
"1362","10107.81"
"1363","10103.34"
"1364","10113.37"
"1365","10133.7"
"1366","10160.05"
"1367","10187.55"
"1368","10210.77"
"1369","10224.26"
"1370","10222.65"
"1371","10200.65"
"1372","10153.24"
"1373","10088.54"
"1374","10033.37"
"1375","10015.75"
"1376","10043.24"
"1377","10087.51"
"1378","10116.6"
"1379","10112.57"
"1380","10087.58"
"1381","10057.77"
"1382","10035.4"
"1383","10022.52"
"1384","10019.49"
"1385","10025.14"
"1386","10033.39"
"1387","10037.1"
"1388","10031.88"
"1389","10023.91"
"1390","10022.04"
"1391","10032.86"
"1392","10052.36"
"1393","10073.37"
"1394","10088.94"
"1395","10093.35"
"1396","10081.29"
"1397","10050.42"
"1398","10018.23"
"1399","10010.55"
"1400","10047.23"
"1401","10100.08"
"1402","10117.63"
"1403","10055.98"
"1404","9944.593"
"1405","9853.646"
"1406","9847.214"
"1407","9915.624"
"1408","10002.82"
"1409","10055.25"
"1410","10062.25"
"1411","10043.53"
"1412","10018.73"
"1413","9997.131"
"1414","9979.796"
"1415","9967.618"
"1416","9962.157"
"1417","9965.542"
"1418","9979.604"
"1419","9999.404"
"1420","10013.58"
"1421","10011.07"
"1422","9994.478"
"1423","9980.493"
"1424","9985.957"
"1425","10013.72"
"1426","10051.09"
"1427","10084.84"
"1428","10109.65"
"1429","10129.55"
"1430","10149.14"
"1431","10173.2"
"1432","10206.75"
"1433","10254.56"
"1434","10311.42"
"1435","10358.93"
"1436","10378.26"
"1437","10370.96"
"1438","10366.55"
"1439","10395.96"
"1440","10457.29"
"1441","10502.11"
"1442","10479.39"
"1443","10388.47"
"1444","10301.99"
"1445","10297.31"
"1446","10390.08"
"1447","10504.66"
"1448","10558.92"
"1449","10523.55"
"1450","10448.15"
"1451","10388.21"
"1452","10367.46"
"1453","10362"
"1454","10344.42"
"1455","10306.33"
"1456","10267.67"
"1457","10250.3"
"1458","10258.22"
"1459","10269.32"
"1460","10259.74"
"1461","10223.55"
"1462","10180.38"
"1463","10151.4"
"1464","10138.12"
"1465","10114.83"
"1466","10054.59"
"1467","9960.807"
"1468","9877.206"
"1469","9849.223"
"1470","9880.858"
"1471","9923.669"
"1472","9926.944"
"1473","9877.869"
"1474","9808.984"
"1475","9754.763"
"1476","9727.566"
"1477","9714.896"
"1478","9703.064"
"1479","9682.221"
"1480","9646.514"
"1481","9591.075"
"1482","9528.287"
"1483","9487.203"
"1484","9495.84"
"1485","9549.538"
"1486","9614.672"
"1487","9657.962"
"1488","9668.302"
"1489","9652.447"
"1490","9617.81"
"1491","9573.815"
"1492","9531.353"
"1493","9500.684"
"1494","9484.231"
"1495","9479.335"
"1496","9483.004"
"1497","9489.83"
"1498","9493.02"
"1499","9487.205"
"1500","9479.288"
"1501","9482.344"
"1502","9505.968"
"1503","9534.457"
"1504","9541.084"
"1505","9506.49"
"1506","9456.157"
"1507","9432.311"
"1508","9464.865"
"1509","9521.312"
"1510","9549.426"
"1511","9513.909"
"1512","9450.883"
"1513","9415.29"
"1514","9442.659"
"1515","9500.801"
"1516","9542.793"
"1517","9540.332"
"1518","9518.439"
"1519","9511.572"
"1520","9535.549"
"1521","9562.468"
"1522","9558.364"
"1523","9513.529"
"1524","9464.723"
"1525","9453.422"
"1526","9486.189"
"1527","9515.093"
"1528","9488.766"
"1529","9405.366"
"1530","9325.868"
"1531","9312.747"
"1532","9365.986"
"1533","9421.53"
"1534","9416.148"
"1535","9349.414"
"1536","9272.501"
"1537","9234.47"
"1538","9240.786"
"1539","9268.484"
"1540","9296.245"
"1541","9321.329"
"1542","9350.494"
"1543","9387.912"
"1544","9420.792"
"1545","9429.654"
"1546","9402.447"
"1547","9362.503"
"1548","9343.669"
"1549","9364.763"
"1550","9391.527"
"1551","9378.032"
"1552","9305.924"
"1553","9228.918"
"1554","9212.057"
"1555","9277.016"
"1556","9361.098"
"1557","9392.782"
"1558","9349.407"
"1559","9279.302"
"1560","9235.028"
"1561","9231.445"
"1562","9242.479"
"1563","9241.504"
"1564","9226.211"
"1565","9213.899"
"1566","9220.316"
"1567","9239.333"
"1568","9251.905"
"1569","9241.62"
"1570","9211.677"
"1571","9173.582"
"1572","9138.166"
"1573","9112.793"
"1574","9103.807"
"1575","9115.354"
"1576","9144.419"
"1577","9186.487"
"1578","9232.377"
"1579","9262.402"
"1580","9255.729"
"1581","9210.268"
"1582","9153.414"
"1583","9114.556"
"1584","9106.278"
"1585","9122.637"
"1586","9156.245"
"1587","9192.56"
"1588","9211.526"
"1589","9196.538"
"1590","9163.453"
"1591","9145.309"
"1592","9166.961"
"1593","9205.721"
"1594","9222.088"
"1595","9191.192"
"1596","9141.835"
"1597","9115.05"
"1598","9131.709"
"1599","9164.884"
"1600","9181.039"
"1601","9168.178"
"1602","9147.922"
"1603","9143.984"
"1604","9158.861"
"1605","9172.999"
"1606","9167.441"
"1607","9144.156"
"1608","9119.479"
"1609","9108.501"
"1610","9115.043"
"1611","9137.909"
"1612","9174.813"
"1613","9218.753"
"1614","9261.412"
"1615","9292.904"
"1616","9299.145"
"1617","9265.647"
"1618","9203.262"
"1619","9165.5"
"1620","9207.377"
"1621","9314.342"
"1622","9397.416"
"1623","9372.238"
"1624","9258.341"
"1625","9145.553"
"1626","9111.921"
"1627","9145.767"
"1628","9198.108"
"1629","9230.689"
"1630","9247.957"
"1631","9264.776"
"1632","9287.477"
"1633","9302.833"
"1634","9295.215"
"1635","9264.514"
"1636","9232.052"
"1637","9219.612"
"1638","9229.32"
"1639","9246.744"
"1640","9258.185"
"1641","9260.64"
"1642","9256.5"
"1643","9248.729"
"1644","9242.716"
"1645","9244.557"
"1646","9260.609"
"1647","9297.872"
"1648","9363.117"
"1649","9444.729"
"1650","9503.868"
"1651","9502.044"
"1652","9448.125"
"1653","9392.175"
"1654","9379.832"
"1655","9407.21"
"1656","9445.574"
"1657","9470.374"
"1658","9476.475"
"1659","9464.069"
"1660","9435.411"
"1661","9397.597"
"1662","9358.299"
"1663","9319.807"
"1664","9277.295"
"1665","9226.443"
"1666","9177.143"
"1667","9149.91"
"1668","9160.688"
"1669","9192.916"
"1670","9216.685"
"1671","9210.771"
"1672","9183.71"
"1673","9150.315"
"1674","9119.535"
"1675","9089.819"
"1676","9058.884"
"1677","9032.441"
"1678","9024.022"
"1679","9044.675"
"1680","9079.848"
"1681","9101.416"
"1682","9087.665"
"1683","9045.38"
"1684","8989.052"
"1685","8930.698"
"1686","8876.917"
"1687","8833.456"
"1688","8801.698"
"1689","8778.041"
"1690","8759.167"
"1691","8747.801"
"1692","8750.316"
"1693","8769.875"
"1694","8793.852"
"1695","8804.846"
"1696","8791.06"
"1697","8753.777"
"1698","8696.518"
"1699","8634.732"
"1700","8598.001"
"1701","8613.279"
"1702","8669.927"
"1703","8734.395"
"1704","8776.684"
"1705","8785.409"
"1706","8754.727"
"1707","8693.417"
"1708","8642.567"
"1709","8646.011"
"1710","8702.204"
"1711","8759.797"
"1712","8770.469"
"1713","8738.955"
"1714","8698.968"
"1715","8674.151"
"1716","8646.029"
"1717","8585.718"
"1718","8495.487"
"1719","8435.64"
"1720","8468.703"
"1721","8575.498"
"1722","8662.747"
"1723","8650.108"
"1724","8569.168"
"1725","8499.941"
"1726","8497.58"
"1727","8540.426"
"1728","8592.439"
"1729","8630.302"
"1730","8648.57"
"1731","8644.352"
"1732","8629.789"
"1733","8627.061"
"1734","8652.198"
"1735","8690.841"
"1736","8719.566"
"1737","8724.67"
"1738","8712.453"
"1739","8691.569"
"1740","8668.15"
"1741","8645.924"
"1742","8629.182"
"1743","8626.779"
"1744","8649.543"
"1745","8697.411"
"1746","8739"
"1747","8738.08"
"1748","8688.348"
"1749","8621.316"
"1750","8568.851"
"1751","8541.621"
"1752","8538.226"
"1753","8553.997"
"1754","8572.398"
"1755","8574.273"
"1756","8554.586"
"1757","8530.698"
"1758","8520.714"
"1759","8525.968"
"1760","8536.011"
"1761","8541.732"
"1762","8541.45"
"1763","8535.678"
"1764","8527.96"
"1765","8527.507"
"1766","8543.004"
"1767","8564.342"
"1768","8566.216"
"1769","8531.302"
"1770","8487.683"
"1771","8478.51"
"1772","8519.375"
"1773","8568.528"
"1774","8579.313"
"1775","8547.635"
"1776","8506.609"
"1777","8485.188"
"1778","8480.862"
"1779","8479.961"
"1780","8478.534"
"1781","8493.679"
"1782","8543.419"
"1783","8611.104"
"1784","8649.288"
"1785","8620.747"
"1786","8553.177"
"1787","8497.174"
"1788","8477.588"
"1789","8464.997"
"1790","8425.589"
"1791","8369.201"
"1792","8342.696"
"1793","8381.934"
"1794","8458.032"
"1795","8520.909"
"1796","8538.259"
"1797","8511.957"
"1798","8449.298"
"1799","8380.267"
"1800","8352.133"
"1801","8394.488"
"1802","8454.166"
"1803","8455.196"
"1804","8381.898"
"1805","8317.625"
"1806","8346.529"
"1807","8453.912"
"1808","8561.721"
"1809","8608.17"
"1810","8595.287"
"1811","8539.9"
"1812","8466.491"
"1813","8409.672"
"1814","8399.346"
"1815","8418.838"
"1816","8427.971"
"1817","8403.33"
"1818","8368.386"
"1819","8353.779"
"1820","8368.931"
"1821","8401.803"
"1822","8439.396"
"1823","8468.848"
"1824","8477.377"
"1825","8459.596"
"1826","8424.732"
"1827","8383.733"
"1828","8347.288"
"1829","8325.903"
"1830","8328.624"
"1831","8358.58"
"1832","8416.89"
"1833","8481.1"
"1834","8497.077"
"1835","8420.51"
"1836","8305.334"
"1837","8252.973"
"1838","8313.378"
"1839","8407.253"
"1840","8439.862"
"1841","8399.441"
"1842","8346.683"
"1843","8332.547"
"1844","8350.112"
"1845","8375.551"
"1846","8392.334"
"1847","8395.035"
"1848","8380.144"
"1849","8353.143"
"1850","8324.272"
"1851","8303.084"
"1852","8297.115"
"1853","8312.655"
"1854","8338.521"
"1855","8347.978"
"1856","8326.117"
"1857","8315.46"
"1858","8373.867"
"1859","8490.694"
"1860","8556.4"
"1861","8473.913"
"1862","8311.969"
"1863","8219.686"
"1864","8275.394"
"1865","8391.074"
"1866","8460.314"
"1867","8457.868"
"1868","8420.718"
"1869","8379.568"
"1870","8335.237"
"1871","8282.063"
"1872","8231.343"
"1873","8214.133"
"1874","8254.373"
"1875","8326.119"
"1876","8385.076"
"1877","8410.695"
"1878","8423.726"
"1879","8446.587"
"1880","8477.626"
"1881","8501.753"
"1882","8505.892"
"1883","8482.59"
"1884","8426.831"
"1885","8358.478"
"1886","8317.312"
"1887","8329.814"
"1888","8370.271"
"1889","8401.454"
"1890","8408.178"
"1891","8399.699"
"1892","8383.632"
"1893","8351.794"
"1894","8291.255"
"1895","8219.559"
"1896","8199.985"
"1897","8284.311"
"1898","8407.168"
"1899","8449.831"
"1900","8369.734"
"1901","8277.081"
"1902","8287.354"
"1903","8375.745"
"1904","8432.746"
"1905","8396.364"
"1906","8332.115"
"1907","8321.167"
"1908","8368.902"
"1909","8422.444"
"1910","8440.768"
"1911","8427.957"
"1912","8397.789"
"1913","8369.06"
"1914","8365.34"
"1915","8398.372"
"1916","8429.198"
"1917","8407.195"
"1918","8334.113"
"1919","8271.556"
"1920","8271.746"
"1921","8321.188"
"1922","8385.368"
"1923","8431.862"
"1924","8431.121"
"1925","8365.109"
"1926","8285.186"
"1927","8267.903"
"1928","8325.255"
"1929","8369.829"
"1930","8323.323"
"1931","8233.212"
"1932","8200.402"
"1933","8256.612"
"1934","8314.016"
"1935","8286.511"
"1936","8197.752"
"1937","8123.6"
"1938","8109.449"
"1939","8142.645"
"1940","8203.997"
"1941","8273.479"
"1942","8330.641"
"1943","8363.803"
"1944","8378.855"
"1945","8382.976"
"1946","8375.738"
"1947","8352.629"
"1948","8313.802"
"1949","8269.172"
"1950","8230.034"
"1951","8208.904"
"1952","8218.905"
"1953","8256.374"
"1954","8282.565"
"1955","8260.396"
"1956","8211.371"
"1957","8189.144"
"1958","8216.804"
"1959","8253.771"
"1960","8256.909"
"1961","8232.409"
"1962","8212.719"
"1963","8209.541"
"1964","8193.153"
"1965","8135.163"
"1966","8060.484"
"1967","8020.81"
"1968","8039.352"
"1969","8086.421"
"1970","8128.18"
"1971","8143.532"
"1972","8117.642"
"1973","8064.223"
"1974","8044.744"
"1975","8108.672"
"1976","8191.422"
"1977","8182.246"
"1978","8060.305"
"1979","7939.108"
"1980","7923.357"
"1981","7999.791"
"1982","8112.134"
"1983","8201.077"
"1984","8203.536"
"1985","8081.767"
"1986","7924.568"
"1987","7856.442"
"1988","7907.885"
"1989","8005.978"
"1990","8083.468"
"1991","8118.089"
"1992","8100.074"
"1993","8045.111"
"1994","7992.105"
"1995","7969.851"
"1996","7971.782"
"1997","7985.124"
"1998","8009.155"
"1999","8052.001"
"2000","8106.501"
"2001","8126.944"
"2002","8069.624"
"2003","7972.109"
"2004","7918.672"
"2005","7942.417"
"2006","7977.32"
"2007","7958.455"
"2008","7911.167"
"2009","7899.708"
"2010","7943.877"
"2011","7998.917"
"2012","8021.172"
"2013","7999.455"
"2014","7934.128"
"2015","7855.134"
"2016","7824.177"
"2017","7877.49"
"2018","7952.995"
"2019","7971.529"
"2020","7935.833"
"2021","7912.385"
"2022","7931.276"
"2023","7927.307"
"2024","7838.874"
"2025","7777.097"
"2026","7945.427"
"2027","8336.797"
"2028","8581.855"
"2029","8364.787"
"2030","7908.536"
"2031","7626.758"
"2032","7651.641"
"2033","7786.661"
"2034","7862.096"
"2035","7882.444"
"2036","7890.767"
"2037","7888.305"
"2038","7843.814"
"2039","7755.566"
"2040","7694.326"
"2041","7728.457"
"2042","7814.541"
"2043","7853.923"
"2044","7807.803"
"2045","7728.415"
"2046","7667.68"
"2047","7637.969"
"2048","7638.882"
"2049","7655.98"
"2050","7661.52"
"2051","7642.226"
"2052","7627.996"
"2053","7651.431"
"2054","7693.685"
"2055","7706.362"
"2056","7669.625"
"2057","7612.509"
"2058","7564.897"
"2059","7535.315"
"2060","7525.167"
"2061","7536.499"
"2062","7571.988"
"2063","7625.045"
"2064","7661.852"
"2065","7649.377"
"2066","7613.611"
"2067","7613.859"
"2068","7656.113"
"2069","7658.993"
"2070","7559.152"
"2071","7424.898"
"2072","7361.593"
"2073","7390.17"
"2074","7454.792"
"2075","7512.463"
"2076","7560.677"
"2077","7600.668"
"2078","7612.057"
"2079","7564.757"
"2080","7471.128"
"2081","7401.084"
"2082","7405.229"
"2083","7441.205"
"2084","7448.265"
"2085","7428.484"
"2086","7428.676"
"2087","7459.256"
"2088","7458.348"
"2089","7374.901"
"2090","7269.02"
"2091","7236.741"
"2092","7283.582"
"2093","7326.269"
"2094","7307.798"
"2095","7251.291"
"2096","7193.813"
"2097","7177.998"
"2098","7247.4"
"2099","7375.106"
"2100","7444.419"
"2101","7379.751"
"2102","7270.391"
"2103","7230.991"
"2104","7257.085"
"2105","7271.799"
"2106","7248.783"
"2107","7243.185"
"2108","7297.177"
"2109","7364.328"
"2110","7376.642"
"2111","7305.114"
"2112","7149.844"
"2113","6954.04"
"2114","6839.758"
"2115","6901.039"
"2116","7041.297"
"2117","7110.247"
"2118","7091.583"
"2119","7080.817"
"2120","7122.84"
"2121","7149.108"
"2122","7099.069"
"2123","7041.103"
"2124","7082.706"
"2125","7194.501"
"2126","7223.676"
"2127","7102.534"
"2128","6963.866"
"2129","6938.557"
"2130","6978.606"
"2131","6973.98"
"2132","6919.143"
"2133","6905.632"
"2134","6977.237"
"2135","7061.159"
"2136","7081.633"
"2137","7043.131"
"2138","6979.236"
"2139","6907.81"
"2140","6832.417"
"2141","6765.309"
"2142","6738.604"
"2143","6776.859"
"2144","6846.602"
"2145","6895.209"
"2146","6893.519"
"2147","6832.512"
"2148","6732.751"
"2149","6672.018"
"2150","6709.255"
"2151","6774.098"
"2152","6762.939"
"2153","6679.423"
"2154","6607.475"
"2155","6599.979"
"2156","6652.809"
"2157","6743.748"
"2158","6798.421"
"2159","6738.108"
"2160","6593.723"
"2161","6465.004"
"2162","6414.918"
"2163","6452.293"
"2164","6556.379"
"2165","6621.489"
"2166","6542.773"
"2167","6377.48"
"2168","6262.53"
"2169","6257.961"
"2170","6336.269"
"2171","6448.144"
"2172","6501.179"
"2173","6421.353"
"2174","6291.745"
"2175","6248.431"
"2176","6300.843"
"2177","6350.725"
"2178","6341.341"
"2179","6299.502"
"2180","6257"
"2181","6227.824"
"2182","6220.075"
"2183","6229.132"
"2184","6242.378"
"2185","6239.304"
"2186","6189.343"
"2187","6094.122"
"2188","6049.066"
"2189","6136.958"
"2190","6241.979"
"2191","6178.28"
"2192","5984.444"
"2193","5895.776"
"2194","6002.868"
"2195","6116.499"
"2196","6081.204"
"2197","6005.74"
"2198","6045.867"
"2199","6151.438"
"2200","6159.81"
"2201","6031.337"
"2202","5870.935"
"2203","5760.624"
"2204","5706.697"
"2205","5702.572"
"2206","5732.666"
"2207","5777.633"
"2208","5809.459"
"2209","5794.847"
"2210","5741.84"
"2211","5717.112"
"2212","5756.438"
"2213","5791.576"
"2214","5750.047"
"2215","5656.066"
"2216","5571.359"
"2217","5541.471"
"2218","5597.938"
"2219","5711.719"
"2220","5758.44"
"2221","5662.584"
"2222","5535.812"
"2223","5507.524"
"2224","5561.841"
"2225","5623.073"
"2226","5660.257"
"2227","5680.278"
"2228","5673.94"
"2229","5603.844"
"2230","5459.227"
"2231","5325.533"
"2232","5288.429"
"2233","5295.828"
"2234","5244.649"
"2235","5158.049"
"2236","5161.322"
"2237","5266.185"
"2238","5303.146"
"2239","5173.41"
"2240","5041.479"
"2241","5080.926"
"2242","5207.974"
"2243","5251.864"
"2244","5212.812"
"2245","5214.679"
"2246","5284.37"
"2247","5312.985"
"2248","5229.95"
"2249","5088.719"
"2250","4954.719"
"2251","4853.155"
"2252","4795.976"
"2253","4788.825"
"2254","4832.219"
"2255","4890.735"
"2256","4889.737"
"2257","4792.779"
"2258","4644.42"
"2259","4492.692"
"2260","4361.205"
"2261","4270.149"
"2262","4256.887"
"2263","4358.958"
"2264","4485.638"
"2265","4443.832"
"2266","4220.883"
"2267","4071.795"
"2268","4144.571"
"2269","4247.435"
"2270","4185.218"
"2271","4025.31"
"2272","3904.627"
"2273","3838.972"
"2274","3776.749"
"2275","3693.882"
"2276","3594.573"
"2277","3506.442"
"2278","3495.048"
"2279","3582.459"
"2280","3646.012"
"2281","3569.57"
"2282","3432.381"
"2283","3368.746"
"2284","3361.01"
"2285","3300.423"
"2286","3152.559"
"2287","2962.533"
"2288","2781.158"
"2289","2662.451"
"2290","2634.777"
"2291","2645.531"
"2292","2634.37"
"2293","2586.297"
"2294","2503.988"
"2295","2411.117"
"2296","2342.656"
"2297","2304.807"
"2298","2275.163"
"2299","2231.643"
"2300","2154.797"
