,"Scan 01187"
"400","12066.06"
"401","12091.75"
"402","12110.15"
"403","12111.66"
"404","12100.75"
"405","12086.39"
"406","12077.47"
"407","12081.51"
"408","12095.24"
"409","12110.22"
"410","12118.02"
"411","12110.94"
"412","12089.76"
"413","12061.19"
"414","12031.97"
"415","12008.61"
"416","11993.32"
"417","11984.09"
"418","11978.73"
"419","11975.12"
"420","11972.8"
"421","11973.5"
"422","11979.1"
"423","11991.45"
"424","12009.67"
"425","12027.89"
"426","12039.73"
"427","12038.89"
"428","12022.98"
"429","11999.42"
"430","11977.08"
"431","11964.77"
"432","11967.53"
"433","11977.84"
"434","11985.56"
"435","11980.65"
"436","11956.72"
"437","11923.85"
"438","11896.68"
"439","11889.76"
"440","11913.79"
"441","11957.13"
"442","11999.94"
"443","12022.54"
"444","12008.27"
"445","11963.25"
"446","11904.19"
"447","11847.76"
"448","11809.12"
"449","11789.43"
"450","11781.74"
"451","11779.04"
"452","11774.71"
"453","11766.37"
"454","11754.68"
"455","11740.31"
"456","11724.08"
"457","11708.36"
"458","11696.9"
"459","11693.46"
"460","11701.48"
"461","11718.22"
"462","11734.87"
"463","11742.46"
"464","11732.33"
"465","11703.29"
"466","11662.53"
"467","11617.6"
"468","11575.97"
"469","11542.56"
"470","11519.14"
"471","11507.24"
"472","11508.34"
"473","11521.09"
"474","11540.15"
"475","11559.89"
"476","11574.82"
"477","11583.04"
"478","11588.24"
"479","11594.57"
"480","11606.1"
"481","11622.42"
"482","11635.61"
"483","11637.09"
"484","11618.42"
"485","11578.95"
"486","11531.85"
"487","11491.67"
"488","11472.76"
"489","11479.25"
"490","11496.25"
"491","11506.88"
"492","11494.46"
"493","11453.2"
"494","11398.24"
"495","11347"
"496","11316.73"
"497","11313.29"
"498","11320.48"
"499","11319.59"
"500","11292.17"
"501","11232.49"
"502","11159.59"
"503","11095.25"
"504","11061"
"505","11064.54"
"506","11087.14"
"507","11107.18"
"508","11103.3"
"509","11066.35"
"510","11009.69"
"511","10949.06"
"512","10900.03"
"513","10869.37"
"514","10848.5"
"515","10827.33"
"516","10795.91"
"517","10751.51"
"518","10703.29"
"519","10661.47"
"520","10636.11"
"521","10630.98"
"522","10640.36"
"523","10657.7"
"524","10676.59"
"525","10692.92"
"526","10705.85"
"527","10714.78"
"528","10719.05"
"529","10716.59"
"530","10703.45"
"531","10675.65"
"532","10629.51"
"533","10570.41"
"534","10513.68"
"535","10475.08"
"536","10469.52"
"537","10495.12"
"538","10533.77"
"539","10566.85"
"540","10576.68"
"541","10560.56"
"542","10528.17"
"543","10489.51"
"544","10454.13"
"545","10426.28"
"546","10406.46"
"547","10395.11"
"548","10392.46"
"549","10396.75"
"550","10405.02"
"551","10414.34"
"552","10422.04"
"553","10427.67"
"554","10431.82"
"555","10435.08"
"556","10437.46"
"557","10435.39"
"558","10423.98"
"559","10398.33"
"560","10356.12"
"561","10307.01"
"562","10264.24"
"563","10240.93"
"564","10245.86"
"565","10272.03"
"566","10308.91"
"567","10346.05"
"568","10374.67"
"569","10390.54"
"570","10390.2"
"571","10370.26"
"572","10332.76"
"573","10290.88"
"574","10259.08"
"575","10251.59"
"576","10270.29"
"577","10298.15"
"578","10316.64"
"579","10307.88"
"580","10271.19"
"581","10225.51"
"582","10190.79"
"583","10185.72"
"584","10208.8"
"585","10241.58"
"586","10265.13"
"587","10262.64"
"588","10239.02"
"589","10212.42"
"590","10201.11"
"591","10219.96"
"592","10260.5"
"593","10304.27"
"594","10332.84"
"595","10331.91"
"596","10306.04"
"597","10265.38"
"598","10219.97"
"599","10178.67"
"600","10146.52"
"601","10127.87"
"602","10126.99"
"603","10143.02"
"604","10164.52"
"605","10178.77"
"606","10173.36"
"607","10147.34"
"608","10115.61"
"609","10094.17"
"610","10098.18"
"611","10126.46"
"612","10162.69"
"613","10190.06"
"614","10193.44"
"615","10175.49"
"616","10149.75"
"617","10129.86"
"618","10126.91"
"619","10136.19"
"620","10146.86"
"621","10148.07"
"622","10132.51"
"623","10106.13"
"624","10078.04"
"625","10057.29"
"626","10049.33"
"627","10051.4"
"628","10059.58"
"629","10069.97"
"630","10078.56"
"631","10081.17"
"632","10073.61"
"633","10052.25"
"634","10023.1"
"635","10000.69"
"636","9999.769"
"637","10032.73"
"638","10090.56"
"639","10152.87"
"640","10199.22"
"641","10213.52"
"642","10201.2"
"643","10174.34"
"644","10144.97"
"645","10121.97"
"646","10105.45"
"647","10094.06"
"648","10086.43"
"649","10081.38"
"650","10077.99"
"651","10075.39"
"652","10072.66"
"653","10068.58"
"654","10061.66"
"655","10050.35"
"656","10033.77"
"657","10016.52"
"658","10006.13"
"659","10010.09"
"660","10032.89"
"661","10065.21"
"662","10093.8"
"663","10105.53"
"664","10093.93"
"665","10068.51"
"666","10041.05"
"667","10023.14"
"668","10019.92"
"669","10028.16"
"670","10044.11"
"671","10063.93"
"672","10082.38"
"673","10093.25"
"674","10090.33"
"675","10069.45"
"676","10038.62"
"677","10010.4"
"678","9997.325"
"679","10006.68"
"680","10030.3"
"681","10057.19"
"682","10076.48"
"683","10083.09"
"684","10080.64"
"685","10073.45"
"686","10065.74"
"687","10060.23"
"688","10058.5"
"689","10062.05"
"690","10072.25"
"691","10089.4"
"692","10113.34"
"693","10143.96"
"694","10178.96"
"695","10209.62"
"696","10225.98"
"697","10218.35"
"698","10186.58"
"699","10144.46"
"700","10106.86"
"701","10087.48"
"702","10084.75"
"703","10085.96"
"704","10078.19"
"705","10052.06"
"706","10018.08"
"707","9993.61"
"708","9995.955"
"709","10032.19"
"710","10084.01"
"711","10129.26"
"712","10146.41"
"713","10131.54"
"714","10101.43"
"715","10073.99"
"716","10065.1"
"717","10071.38"
"718","10078.69"
"719","10072.79"
"720","10045.31"
"721","10011.08"
"722","9990.59"
"723","10004.09"
"724","10054.33"
"725","10113.9"
"726","10152.46"
"727","10141.9"
"728","10088.34"
"729","10025.19"
"730","9986.517"
"731","9999.169"
"732","10049.09"
"733","10107.83"
"734","10147.06"
"735","10151.33"
"736","10135.21"
"737","10117.5"
"738","10116.33"
"739","10135.09"
"740","10162.03"
"741","10184.74"
"742","10192.7"
"743","10189.33"
"744","10184.28"
"745","10187.18"
"746","10202.65"
"747","10220.88"
"748","10229.51"
"749","10216.62"
"750","10183.79"
"751","10148.79"
"752","10130.34"
"753","10144.63"
"754","10186.37"
"755","10239.22"
"756","10286.77"
"757","10316.76"
"758","10330.02"
"759","10330.02"
"760","10320.26"
"761","10305.65"
"762","10292.98"
"763","10289.15"
"764","10299.82"
"765","10319.52"
"766","10336.83"
"767","10340.31"
"768","10323.82"
"769","10298.34"
"770","10278.3"
"771","10277.79"
"772","10299.65"
"773","10332.57"
"774","10364.36"
"775","10384.22"
"776","10393.11"
"777","10397.95"
"778","10405.67"
"779","10420.5"
"780","10438.54"
"781","10454.45"
"782","10463.07"
"783","10465.7"
"784","10470.85"
"785","10487.41"
"786","10522.07"
"787","10565.48"
"788","10601.31"
"789","10613.25"
"790","10593.84"
"791","10557.56"
"792","10522.13"
"793","10504.6"
"794","10508.09"
"795","10522.77"
"796","10538.28"
"797","10546.31"
"798","10549.63"
"799","10554.84"
"800","10568.49"
"801","10592.42"
"802","10619.58"
"803","10641.91"
"804","10651.94"
"805","10649.85"
"806","10641.28"
"807","10631.92"
"808","10626.5"
"809","10625.78"
"810","10629.55"
"811","10637.6"
"812","10649.41"
"813","10664.06"
"814","10680.59"
"815","10697.94"
"816","10714.07"
"817","10726.48"
"818","10732.68"
"819","10731.34"
"820","10724.19"
"821","10713.41"
"822","10701.19"
"823","10689.6"
"824","10680.64"
"825","10676.31"
"826","10678.06"
"827","10684.8"
"828","10694.63"
"829","10705.66"
"830","10715.59"
"831","10721.53"
"832","10720.49"
"833","10710.34"
"834","10696.59"
"835","10689"
"836","10697.35"
"837","10726.25"
"838","10766.1"
"839","10804.85"
"840","10830.9"
"841","10841.14"
"842","10840.28"
"843","10833.34"
"844","10824.58"
"845","10814.52"
"846","10802.57"
"847","10788.2"
"848","10773.8"
"849","10766.15"
"850","10772.37"
"851","10798.12"
"852","10836.98"
"853","10876.5"
"854","10904.23"
"855","10912.91"
"856","10907.68"
"857","10895.45"
"858","10882.94"
"859","10874.15"
"860","10870.93"
"861","10875.11"
"862","10887.8"
"863","10907.58"
"864","10932.42"
"865","10960.21"
"866","10987.07"
"867","11007.02"
"868","11013.97"
"869","11004.15"
"870","10987.3"
"871","10978.05"
"872","10990.91"
"873","11030"
"874","11082.15"
"875","11132.54"
"876","11167.71"
"877","11186.29"
"878","11193.39"
"879","11194.14"
"880","11191.82"
"881","11185.29"
"882","11172.78"
"883","11152.95"
"884","11130.61"
"885","11115.12"
"886","11115.95"
"887","11138.4"
"888","11173.84"
"889","11210.68"
"890","11237.71"
"891","11252.33"
"892","11260.45"
"893","11268.34"
"894","11281.15"
"895","11298.81"
"896","11319.72"
"897","11342.26"
"898","11363.27"
"899","11377.66"
"900","11380.19"
"901","11367.25"
"902","11345.38"
"903","11325.03"
"904","11316.58"
"905","11324.69"
"906","11344.56"
"907","11370.53"
"908","11397.49"
"909","11425.22"
"910","11455.84"
"911","11491.48"
"912","11531.08"
"913","11566.94"
"914","11590.55"
"915","11594.33"
"916","11580.57"
"917","11557.55"
"918","11533.62"
"919","11513.38"
"920","11491.97"
"921","11463.07"
"922","11421.46"
"923","11377.03"
"924","11350.58"
"925","11363.14"
"926","11424.81"
"927","11512.59"
"928","11597.26"
"929","11650.77"
"930","11665.38"
"931","11650.42"
"932","11615.74"
"933","11571.69"
"934","11530.46"
"935","11504.63"
"936","11506.17"
"937","11533.98"
"938","11574.58"
"939","11613.99"
"940","11640.93"
"941","11655.12"
"942","11659.01"
"943","11655.12"
"944","11647.46"
"945","11641.62"
"946","11643.25"
"947","11656.22"
"948","11676.28"
"949","11696.96"
"950","11711.8"
"951","11714.8"
"952","11700.47"
"953","11663.37"
"954","11602.52"
"955","11538.59"
"956","11498.7"
"957","11509.17"
"958","11569.47"
"959","11646.69"
"960","11706.03"
"961","11719.83"
"962","11696.79"
"963","11657.06"
"964","11620.56"
"965","11598.02"
"966","11588.76"
"967","11591.39"
"968","11604.07"
"969","11622.68"
"970","11642.32"
"971","11658.17"
"972","11667.45"
"973","11669.9"
"974","11665.44"
"975","11654.33"
"976","11638.45"
"977","11620.24"
"978","11602.13"
"979","11586.85"
"980","11577.49"
"981","11577.13"
"982","11588.05"
"983","11608.31"
"984","11634.62"
"985","11663.67"
"986","11691.99"
"987","11715.89"
"988","11731.64"
"989","11735.82"
"990","11726.35"
"991","11701.57"
"992","11660.16"
"993","11611.02"
"994","11574.9"
"995","11573.23"
"996","11619.87"
"997","11694.11"
"998","11765.35"
"999","11803.75"
"1000","11800.26"
"1001","11768.39"
"1002","11722.78"
"1003","11677.54"
"1004","11644.51"
"1005","11634.93"
"1006","11660.03"
"1007","11720.73"
"1008","11792.1"
"1009","11845.17"
"1010","11854.23"
"1011","11827.44"
"1012","11792.91"
"1013","11778.94"
"1014","11799.34"
"1015","11839.4"
"1016","11881.08"
"1017","11908.17"
"1018","11918.27"
"1019","11915.25"
"1020","11903.07"
"1021","11887.89"
"1022","11879.18"
"1023","11886.66"
"1024","11916.72"
"1025","11957.84"
"1026","11992.51"
"1027","12003.79"
"1028","11990.51"
"1029","11968.94"
"1030","11956.23"
"1031","11964.5"
"1032","11987.22"
"1033","12013.58"
"1034","12033.33"
"1035","12045.04"
"1036","12054.22"
"1037","12066.56"
"1038","12085.55"
"1039","12109.21"
"1040","12134.71"
"1041","12159.41"
"1042","12182.12"
"1043","12202.43"
"1044","12219.92"
"1045","12233.46"
"1046","12240.73"
"1047","12239.31"
"1048","12227.54"
"1049","12207.91"
"1050","12184.3"
"1051","12160.69"
"1052","12142.95"
"1053","12138.93"
"1054","12156.56"
"1055","12198.12"
"1056","12247.43"
"1057","12284.59"
"1058","12291.62"
"1059","12273.58"
"1060","12250.6"
"1061","12242.94"
"1062","12259.4"
"1063","12286.95"
"1064","12310.09"
"1065","12315.73"
"1066","12305.73"
"1067","12287.65"
"1068","12269.01"
"1069","12256.36"
"1070","12255.19"
"1071","12270.88"
"1072","12305.26"
"1073","12348.36"
"1074","12387.76"
"1075","12411.96"
"1076","12419.63"
"1077","12415.89"
"1078","12405.93"
"1079","12394.26"
"1080","12384.19"
"1081","12378.88"
"1082","12380.78"
"1083","12388.39"
"1084","12398.94"
"1085","12409.67"
"1086","12418.95"
"1087","12426.19"
"1088","12430.82"
"1089","12431.6"
"1090","12425.54"
"1091","12409.37"
"1092","12381.31"
"1093","12351.53"
"1094","12335.9"
"1095","12349.87"
"1096","12391.51"
"1097","12436.71"
"1098","12459.9"
"1099","12444.22"
"1100","12403.73"
"1101","12359.27"
"1102","12330.37"
"1103","12321.68"
"1104","12328.55"
"1105","12346.18"
"1106","12369.24"
"1107","12391.55"
"1108","12406.86"
"1109","12409.99"
"1110","12400.59"
"1111","12379.66"
"1112","12348.63"
"1113","12315.26"
"1114","12291.99"
"1115","12291.34"
"1116","12318.32"
"1117","12363.96"
"1118","12417.79"
"1119","12469.52"
"1120","12509.88"
"1121","12529.96"
"1122","12521.53"
"1123","12488.3"
"1124","12443.64"
"1125","12401.22"
"1126","12372.15"
"1127","12362.56"
"1128","12377.99"
"1129","12419.66"
"1130","12466.16"
"1131","12488.56"
"1132","12460.07"
"1133","12389.33"
"1134","12314"
"1135","12272.5"
"1136","12283.37"
"1137","12326.47"
"1138","12377.21"
"1139","12414.53"
"1140","12435.51"
"1141","12442.88"
"1142","12439.42"
"1143","12428.75"
"1144","12415.16"
"1145","12402.96"
"1146","12397.33"
"1147","12405.09"
"1148","12433.18"
"1149","12484.03"
"1150","12540.36"
"1151","12579.59"
"1152","12581.42"
"1153","12553.04"
"1154","12519.44"
"1155","12505.63"
"1156","12519.05"
"1157","12541.58"
"1158","12553.07"
"1159","12540.95"
"1160","12518.61"
"1161","12504.95"
"1162","12516.26"
"1163","12546.43"
"1164","12577.86"
"1165","12593.42"
"1166","12590.46"
"1167","12582.62"
"1168","12584.37"
"1169","12601.5"
"1170","12618.33"
"1171","12615.93"
"1172","12581.01"
"1173","12533.46"
"1174","12505.19"
"1175","12525.86"
"1176","12589.39"
"1177","12661.33"
"1178","12706.69"
"1179","12711.37"
"1180","12696.12"
"1181","12684.99"
"1182","12695.56"
"1183","12721.45"
"1184","12750.71"
"1185","12772.05"
"1186","12779.69"
"1187","12770.69"
"1188","12742.5"
"1189","12702.13"
"1190","12666.71"
"1191","12653.79"
"1192","12672.25"
"1193","12712.06"
"1194","12760.67"
"1195","12805.84"
"1196","12836.75"
"1197","12843.02"
"1198","12816.16"
"1199","12768.68"
"1200","12726.14"
"1201","12713.76"
"1202","12738.9"
"1203","12786.88"
"1204","12841.74"
"1205","12888.87"
"1206","12917.1"
"1207","12915.77"
"1208","12879"
"1209","12825.61"
"1210","12782.36"
"1211","12773.86"
"1212","12798.81"
"1213","12839.13"
"1214","12876.69"
"1215","12900.16"
"1216","12906.67"
"1217","12893.9"
"1218","12865.98"
"1219","12842.41"
"1220","12844.89"
"1221","12887.88"
"1222","12950.84"
"1223","13002.75"
"1224","13015.68"
"1225","12993.48"
"1226","12958.51"
"1227","12932.93"
"1228","12926.37"
"1229","12935.08"
"1230","12954.61"
"1231","12978.75"
"1232","12997.87"
"1233","13001.92"
"1234","12985.77"
"1235","12962.99"
"1236","12951.57"
"1237","12966.49"
"1238","13000.08"
"1239","13034.43"
"1240","13052.56"
"1241","13053.93"
"1242","13051.37"
"1243","13057.93"
"1244","13078.01"
"1245","13103.61"
"1246","13125.76"
"1247","13138.16"
"1248","13141.44"
"1249","13137.31"
"1250","13128.22"
"1251","13120.29"
"1252","13120.69"
"1253","13135.45"
"1254","13160.11"
"1255","13184.63"
"1256","13199.22"
"1257","13200.73"
"1258","13192.02"
"1259","13176.24"
"1260","13158.86"
"1261","13148.95"
"1262","13155.85"
"1263","13180.92"
"1264","13204.48"
"1265","13203.36"
"1266","13163.09"
"1267","13109.57"
"1268","13080.46"
"1269","13107.46"
"1270","13171.68"
"1271","13228.95"
"1272","13237.45"
"1273","13197.76"
"1274","13145.3"
"1275","13116.04"
"1276","13124.97"
"1277","13159.39"
"1278","13204.71"
"1279","13247.08"
"1280","13274.31"
"1281","13274.42"
"1282","13241.44"
"1283","13190.84"
"1284","13142.86"
"1285","13114.81"
"1286","13106.14"
"1287","13109.74"
"1288","13118.67"
"1289","13128.21"
"1290","13134.92"
"1291","13135.61"
"1292","13131.76"
"1293","13129.16"
"1294","13133.67"
"1295","13147.55"
"1296","13167.93"
"1297","13191.61"
"1298","13215.04"
"1299","13234.03"
"1300","13244.26"
"1301","13242.66"
"1302","13230.24"
"1303","13208.92"
"1304","13181.61"
"1305","13156.74"
"1306","13144.57"
"1307","13154.09"
"1308","13183.25"
"1309","13224.36"
"1310","13269.61"
"1311","13310.08"
"1312","13336.06"
"1313","13338.25"
"1314","13319.79"
"1315","13297.51"
"1316","13288.69"
"1317","13296.49"
"1318","13301.63"
"1319","13282.89"
"1320","13233.41"
"1321","13179.4"
"1322","13151.74"
"1323","13170.42"
"1324","13218.6"
"1325","13271.65"
"1326","13307.99"
"1327","13321.31"
"1328","13310.07"
"1329","13274.86"
"1330","13232"
"1331","13204.89"
"1332","13214.55"
"1333","13254.64"
"1334","13301.62"
"1335","13332.13"
"1336","13331.15"
"1337","13290.93"
"1338","13204.81"
"1339","13093.66"
"1340","13010.67"
"1341","13010.16"
"1342","13100.68"
"1343","13218.34"
"1344","13293"
"1345","13289.52"
"1346","13247.64"
"1347","13216.72"
"1348","13228.82"
"1349","13265.5"
"1350","13299.22"
"1351","13310.23"
"1352","13309.55"
"1353","13315.83"
"1354","13342.86"
"1355","13378.38"
"1356","13401.45"
"1357","13394.61"
"1358","13365.88"
"1359","13334.54"
"1360","13317.84"
"1361","13312.49"
"1362","13303.43"
"1363","13276.86"
"1364","13238.69"
"1365","13209.19"
"1366","13208.02"
"1367","13235.76"
"1368","13275.46"
"1369","13309.67"
"1370","13326.85"
"1371","13322.2"
"1372","13291.53"
"1373","13241.12"
"1374","13192.15"
"1375","13166.77"
"1376","13169.11"
"1377","13171.74"
"1378","13144.09"
"1379","13077.95"
"1380","13013.23"
"1381","12996.16"
"1382","13048.9"
"1383","13129.96"
"1384","13187.38"
"1385","13187.57"
"1386","13156.47"
"1387","13132.09"
"1388","13141.57"
"1389","13169.21"
"1390","13188.75"
"1391","13180.3"
"1392","13154.53"
"1393","13131.14"
"1394","13125.77"
"1395","13130.66"
"1396","13129.74"
"1397","13110.11"
"1398","13080.29"
"1399","13057.73"
"1400","13056.76"
"1401","13066.37"
"1402","13063.26"
"1403","13028.2"
"1404","12981.19"
"1405","12964.03"
"1406","13013.47"
"1407","13106.99"
"1408","13184.76"
"1409","13190.88"
"1410","13129.41"
"1411","13046.81"
"1412","12988.49"
"1413","12969.4"
"1414","12980.56"
"1415","13012.24"
"1416","13052.94"
"1417","13089.61"
"1418","13109.57"
"1419","13108.64"
"1420","13090.73"
"1421","13060.26"
"1422","13025.62"
"1423","12999.39"
"1424","12993.91"
"1425","13010.01"
"1426","13035.77"
"1427","13058.79"
"1428","13072.56"
"1429","13077.47"
"1430","13074.54"
"1431","13070.8"
"1432","13080.91"
"1433","13119.47"
"1434","13179.89"
"1435","13227.7"
"1436","13227.15"
"1437","13173.21"
"1438","13102.97"
"1439","13056.2"
"1440","13053.16"
"1441","13086.4"
"1442","13146.17"
"1443","13213.43"
"1444","13255.67"
"1445","13239.88"
"1446","13167.08"
"1447","13088.61"
"1448","13059.18"
"1449","13094.4"
"1450","13151.42"
"1451","13183.09"
"1452","13170.08"
"1453","13134.74"
"1454","13102.62"
"1455","13087.33"
"1456","13084.87"
"1457","13089.73"
"1458","13094.97"
"1459","13091.58"
"1460","13070.5"
"1461","13031.38"
"1462","12986.23"
"1463","12947.82"
"1464","12919.14"
"1465","12889.71"
"1466","12848.39"
"1467","12798.79"
"1468","12764.04"
"1469","12767.83"
"1470","12804.33"
"1471","12830.35"
"1472","12801.61"
"1473","12718.11"
"1474","12632.9"
"1475","12600.67"
"1476","12631.66"
"1477","12686.19"
"1478","12722.96"
"1479","12727.54"
"1480","12713.69"
"1481","12696.14"
"1482","12682.18"
"1483","12671.94"
"1484","12665.14"
"1485","12659.68"
"1486","12651.85"
"1487","12638.23"
"1488","12620.51"
"1489","12604.6"
"1490","12595.92"
"1491","12592.29"
"1492","12585.94"
"1493","12569.81"
"1494","12546.32"
"1495","12524.1"
"1496","12510.69"
"1497","12502.22"
"1498","12488.22"
"1499","12460.84"
"1500","12435.14"
"1501","12437.71"
"1502","12488.55"
"1503","12559.77"
"1504","12602.6"
"1505","12578.4"
"1506","12510.06"
"1507","12443.49"
"1508","12416.06"
"1509","12421.69"
"1510","12440.62"
"1511","12456.33"
"1512","12466.08"
"1513","12470.76"
"1514","12470.29"
"1515","12461.17"
"1516","12439.16"
"1517","12405.7"
"1518","12378.5"
"1519","12378.12"
"1520","12410.22"
"1521","12445.45"
"1522","12449.62"
"1523","12410.83"
"1524","12359.85"
"1525","12331.9"
"1526","12338.52"
"1527","12354.29"
"1528","12351.13"
"1529","12322.83"
"1530","12290.95"
"1531","12278.13"
"1532","12289.75"
"1533","12313.49"
"1534","12336.33"
"1535","12347.17"
"1536","12336.42"
"1537","12296.15"
"1538","12237.23"
"1539","12182.8"
"1540","12154.37"
"1541","12157.22"
"1542","12188.38"
"1543","12241.87"
"1544","12292.85"
"1545","12309.05"
"1546","12269.26"
"1547","12204.89"
"1548","12162.96"
"1549","12172.71"
"1550","12200.37"
"1551","12198.31"
"1552","12145.15"
"1553","12088"
"1554","12084.74"
"1555","12152.54"
"1556","12229.33"
"1557","12244.95"
"1558","12183.48"
"1559","12107.86"
"1560","12085.08"
"1561","12122.67"
"1562","12163.63"
"1563","12151.36"
"1564","12088.18"
"1565","12023.88"
"1566","12004.87"
"1567","12028.03"
"1568","12060.99"
"1569","12074.98"
"1570","12068.98"
"1571","12053.71"
"1572","12037.1"
"1573","12013.44"
"1574","11972.95"
"1575","11914.8"
"1576","11867.33"
"1577","11864.69"
"1578","11918.13"
"1579","11987.19"
"1580","12024.73"
"1581","12011.15"
"1582","11970.07"
"1583","11928.64"
"1584","11905.81"
"1585","11911.5"
"1586","11953.16"
"1587","12008.59"
"1588","12032.73"
"1589","11987.9"
"1590","11908.43"
"1591","11866.71"
"1592","11917.28"
"1593","12010.98"
"1594","12061.93"
"1595","12014.8"
"1596","11926.3"
"1597","11878.7"
"1598","11914.66"
"1599","11983"
"1600","12019.53"
"1601","11999.51"
"1602","11959.86"
"1603","11941.54"
"1604","11952.57"
"1605","11966.71"
"1606","11958.08"
"1607","11926.4"
"1608","11888.9"
"1609","11862.2"
"1610","11855.41"
"1611","11874.36"
"1612","11918.67"
"1613","11960.6"
"1614","11964.87"
"1615","11918.61"
"1616","11869.49"
"1617","11874.77"
"1618","11949.64"
"1619","12038.28"
"1620","12079.78"
"1621","12060.48"
"1622","12017.24"
"1623","11986.96"
"1624","11975.98"
"1625","11969.91"
"1626","11956.32"
"1627","11938.47"
"1628","11926.18"
"1629","11926.77"
"1630","11937.6"
"1631","11953.6"
"1632","11969.66"
"1633","11980.61"
"1634","11981.29"
"1635","11968.39"
"1636","11941.11"
"1637","11899.6"
"1638","11857.13"
"1639","11837.99"
"1640","11862.5"
"1641","11914.01"
"1642","11957.19"
"1643","11965.08"
"1644","11950.15"
"1645","11936.22"
"1646","11938.45"
"1647","11949.63"
"1648","11959.05"
"1649","11958.87"
"1650","11945.55"
"1651","11916.56"
"1652","11881.56"
"1653","11860.86"
"1654","11871.91"
"1655","11905.25"
"1656","11937.9"
"1657","11952.14"
"1658","11954.09"
"1659","11956.42"
"1660","11964.09"
"1661","11963.9"
"1662","11940.49"
"1663","11897.13"
"1664","11861.76"
"1665","11861.51"
"1666","11887.92"
"1667","11905.93"
"1668","11885.07"
"1669","11830.17"
"1670","11760.53"
"1671","11696.05"
"1672","11658.37"
"1673","11669.21"
"1674","11723.38"
"1675","11767.5"
"1676","11745.71"
"1677","11660.56"
"1678","11571.82"
"1679","11535.84"
"1680","11555.93"
"1681","11607.29"
"1682","11665.55"
"1683","11709.55"
"1684","11718.97"
"1685","11684.38"
"1686","11619.96"
"1687","11543.1"
"1688","11474.82"
"1689","11440.24"
"1690","11460.34"
"1691","11509.21"
"1692","11532.65"
"1693","11490.96"
"1694","11417"
"1695","11365.46"
"1696","11365.77"
"1697","11388.32"
"1698","11395.86"
"1699","11376.05"
"1700","11346.15"
"1701","11324.02"
"1702","11315.28"
"1703","11318.08"
"1704","11330.06"
"1705","11346.91"
"1706","11363.74"
"1707","11375.71"
"1708","11378.11"
"1709","11366.66"
"1710","11348.27"
"1711","11342.14"
"1712","11364.96"
"1713","11403.83"
"1714","11429.71"
"1715","11420.85"
"1716","11386.08"
"1717","11341.9"
"1718","11298.77"
"1719","11255.83"
"1720","11211.57"
"1721","11175.5"
"1722","11167.16"
"1723","11200.99"
"1724","11252.67"
"1725","11281.09"
"1726","11260.36"
"1727","11211.48"
"1728","11164.22"
"1729","11139.22"
"1730","11144.37"
"1731","11184.31"
"1732","11236.08"
"1733","11258.29"
"1734","11222.79"
"1735","11166.6"
"1736","11146.08"
"1737","11183.3"
"1738","11229.76"
"1739","11230.65"
"1740","11183.5"
"1741","11135.45"
"1742","11128.49"
"1743","11153.93"
"1744","11181.27"
"1745","11189.35"
"1746","11184.19"
"1747","11176.61"
"1748","11173.31"
"1749","11175.81"
"1750","11184.42"
"1751","11190.82"
"1752","11181.77"
"1753","11149.99"
"1754","11111.05"
"1755","11085.82"
"1756","11084.69"
"1757","11101.34"
"1758","11127.91"
"1759","11155.53"
"1760","11174.65"
"1761","11178.08"
"1762","11169.74"
"1763","11156.83"
"1764","11143.14"
"1765","11126.18"
"1766","11102.7"
"1767","11068.61"
"1768","11019.17"
"1769","10954.65"
"1770","10902.22"
"1771","10897.95"
"1772","10954.01"
"1773","11032.8"
"1774","11092.01"
"1775","11118.62"
"1776","11125.13"
"1777","11122.36"
"1778","11106.41"
"1779","11068.15"
"1780","11010.13"
"1781","10960.02"
"1782","10947.01"
"1783","10965.76"
"1784","10980.31"
"1785","10961.85"
"1786","10929.04"
"1787","10917.28"
"1788","10942.57"
"1789","10980.14"
"1790","11001.24"
"1791","10998.55"
"1792","10982.93"
"1793","10965.32"
"1794","10953.91"
"1795","10955.95"
"1796","10972.81"
"1797","10994.51"
"1798","11010.66"
"1799","11024.02"
"1800","11047.29"
"1801","11085.87"
"1802","11110.43"
"1803","11082.28"
"1804","10998.82"
"1805","10916.78"
"1806","10893.46"
"1807","10927.59"
"1808","10980.38"
"1809","11017.86"
"1810","11026.25"
"1811","10996.93"
"1812","10944.64"
"1813","10915.12"
"1814","10947.33"
"1815","11003.9"
"1816","11008.9"
"1817","10926.66"
"1818","10833.52"
"1819","10821.61"
"1820","10899.1"
"1821","10989.33"
"1822","11023.27"
"1823","11001.02"
"1824","10948.08"
"1825","10887.99"
"1826","10840.3"
"1827","10822.53"
"1828","10830.35"
"1829","10843.56"
"1830","10848.62"
"1831","10859.87"
"1832","10897.84"
"1833","10950.78"
"1834","10963.57"
"1835","10890.35"
"1836","10785.4"
"1837","10751.47"
"1838","10836.27"
"1839","10949.49"
"1840","10984.56"
"1841","10928.1"
"1842","10848.08"
"1843","10803.15"
"1844","10794.36"
"1845","10806.03"
"1846","10831.23"
"1847","10876.44"
"1848","10945.32"
"1849","11006.47"
"1850","11009.95"
"1851","10936.72"
"1852","10849.65"
"1853","10821.44"
"1854","10855.33"
"1855","10892.79"
"1856","10889.59"
"1857","10878.1"
"1858","10911.91"
"1859","10993.52"
"1860","11051.65"
"1861","11021.08"
"1862","10933.6"
"1863","10868.05"
"1864","10862.51"
"1865","10859.34"
"1866","10793.48"
"1867","10694.05"
"1868","10662.46"
"1869","10759.09"
"1870","10882.59"
"1871","10897.36"
"1872","10795.24"
"1873","10716.56"
"1874","10778.36"
"1875","10905.26"
"1876","10951.19"
"1877","10864.02"
"1878","10754.89"
"1879","10738.24"
"1880","10801.01"
"1881","10859"
"1882","10859.45"
"1883","10832.5"
"1884","10819.54"
"1885","10831.61"
"1886","10855.56"
"1887","10876.86"
"1888","10878.49"
"1889","10843.81"
"1890","10783.8"
"1891","10740.03"
"1892","10745.12"
"1893","10774.34"
"1894","10784.26"
"1895","10762.96"
"1896","10745.8"
"1897","10765.35"
"1898","10802.42"
"1899","10814.26"
"1900","10781.5"
"1901","10731.9"
"1902","10696.37"
"1903","10678.84"
"1904","10667.01"
"1905","10653.73"
"1906","10645.98"
"1907","10652.37"
"1908","10671.59"
"1909","10694.7"
"1910","10714.51"
"1911","10730.31"
"1912","10742.77"
"1913","10752.57"
"1914","10760.41"
"1915","10766.86"
"1916","10771.98"
"1917","10775.5"
"1918","10772.17"
"1919","10751.06"
"1920","10705.22"
"1921","10650.02"
"1922","10607.74"
"1923","10591.63"
"1924","10602.76"
"1925","10638.67"
"1926","10680.42"
"1927","10703.06"
"1928","10693.73"
"1929","10658.32"
"1930","10606.23"
"1931","10560.52"
"1932","10549.83"
"1933","10576.72"
"1934","10598.7"
"1935","10575.72"
"1936","10523.36"
"1937","10483.68"
"1938","10481.61"
"1939","10509.57"
"1940","10555.02"
"1941","10593.58"
"1942","10594.93"
"1943","10556.13"
"1944","10529.02"
"1945","10563.77"
"1946","10633.47"
"1947","10669.66"
"1948","10632.31"
"1949","10541.45"
"1950","10426.72"
"1951","10337.66"
"1952","10334.64"
"1953","10432.61"
"1954","10551.18"
"1955","10605.38"
"1956","10582.69"
"1957","10510.58"
"1958","10424.29"
"1959","10374.1"
"1960","10403.5"
"1961","10475.86"
"1962","10511.94"
"1963","10473.3"
"1964","10402.93"
"1965","10349.02"
"1966","10321.81"
"1967","10312.37"
"1968","10313.87"
"1969","10323.65"
"1970","10337.68"
"1971","10337.79"
"1972","10299.58"
"1973","10230.19"
"1974","10189.64"
"1975","10229.17"
"1976","10304.46"
"1977","10332.33"
"1978","10290.3"
"1979","10246.75"
"1980","10259.75"
"1981","10282.48"
"1982","10232.08"
"1983","10112.24"
"1984","10038.73"
"1985","10100.05"
"1986","10212.09"
"1987","10241.77"
"1988","10171.25"
"1989","10109.49"
"1990","10137.49"
"1991","10196.72"
"1992","10197.35"
"1993","10126.49"
"1994","10041.29"
"1995","9987.056"
"1996","9962.341"
"1997","9956.545"
"1998","9961.21"
"1999","9969.452"
"2000","9978.32"
"2001","9994.604"
"2002","10024.59"
"2003","10054.35"
"2004","10058.35"
"2005","10026.75"
"2006","9979.979"
"2007","9940.625"
"2008","9921.467"
"2009","9930.648"
"2010","9957.64"
"2011","9965.001"
"2012","9923.669"
"2013","9859.261"
"2014","9813.976"
"2015","9801.437"
"2016","9804.562"
"2017","9808.1"
"2018","9809.07"
"2019","9807.261"
"2020","9802.696"
"2021","9795.586"
"2022","9785.777"
"2023","9772.194"
"2024","9753.06"
"2025","9721.304"
"2026","9667.084"
"2027","9592.044"
"2028","9517.53"
"2029","9467.857"
"2030","9472.898"
"2031","9562.539"
"2032","9700.989"
"2033","9775.916"
"2034","9713.163"
"2035","9600.911"
"2036","9558.575"
"2037","9589.875"
"2038","9608.521"
"2039","9568.445"
"2040","9525.593"
"2041","9539.815"
"2042","9576.598"
"2043","9555.039"
"2044","9457.598"
"2045","9362.893"
"2046","9339.719"
"2047","9368.073"
"2048","9401.53"
"2049","9412.971"
"2050","9393.606"
"2051","9342.373"
"2052","9278.326"
"2053","9224.009"
"2054","9200.028"
"2055","9225.524"
"2056","9289.14"
"2057","9328.165"
"2058","9291.063"
"2059","9214.425"
"2060","9162.685"
"2061","9156.131"
"2062","9170.951"
"2063","9185.596"
"2064","9190.998"
"2065","9181.297"
"2066","9160.323"
"2067","9137.504"
"2068","9121.617"
"2069","9120.259"
"2070","9134.566"
"2071","9133.842"
"2072","9080.136"
"2073","8990.088"
"2074","8929.937"
"2075","8939.342"
"2076","8984.7"
"2077","9024.482"
"2078","9048.448"
"2079","9061.624"
"2080","9064.965"
"2081","9053.764"
"2082","9026.031"
"2083","8992.11"
"2084","8964.319"
"2085","8940.245"
"2086","8907.076"
"2087","8871.137"
"2088","8876.169"
"2089","8953.749"
"2090","9039.922"
"2091","9040.229"
"2092","8947.579"
"2093","8840.585"
"2094","8775.934"
"2095","8742.087"
"2096","8719.209"
"2097","8711.058"
"2098","8732.127"
"2099","8771.018"
"2100","8783.25"
"2101","8743.521"
"2102","8701.275"
"2103","8715.19"
"2104","8764.991"
"2105","8782.532"
"2106","8743.33"
"2107","8693.008"
"2108","8672.071"
"2109","8671.1"
"2110","8667.507"
"2111","8645.582"
"2112","8594.841"
"2113","8522.38"
"2114","8467.833"
"2115","8461.74"
"2116","8468.957"
"2117","8437.146"
"2118","8382.635"
"2119","8378.896"
"2120","8444.924"
"2121","8481.865"
"2122","8403.505"
"2123","8283.155"
"2124","8245.312"
"2125","8298.943"
"2126","8348.668"
"2127","8337.284"
"2128","8301.625"
"2129","8284.993"
"2130","8292.017"
"2131","8312.089"
"2132","8319.524"
"2133","8274.786"
"2134","8175.509"
"2135","8104.569"
"2136","8136.163"
"2137","8219.955"
"2138","8262.222"
"2139","8232.118"
"2140","8156.103"
"2141","8065.07"
"2142","7994.818"
"2143","7974.388"
"2144","7990.154"
"2145","8013.884"
"2146","8024.591"
"2147","8007.516"
"2148","7957.417"
"2149","7887.557"
"2150","7812.578"
"2151","7742.828"
"2152","7688.228"
"2153","7671.069"
"2154","7722.373"
"2155","7825.291"
"2156","7880.333"
"2157","7813.8"
"2158","7695.968"
"2159","7627.161"
"2160","7616.153"
"2161","7614.185"
"2162","7596.868"
"2163","7575.907"
"2164","7563.787"
"2165","7566.29"
"2166","7584.622"
"2167","7592.889"
"2168","7553.439"
"2169","7487.774"
"2170","7484.059"
"2171","7575.721"
"2172","7647.891"
"2173","7590.144"
"2174","7465.061"
"2175","7395.067"
"2176","7391.468"
"2177","7371.256"
"2178","7309.964"
"2179","7297.201"
"2180","7394.303"
"2181","7487.364"
"2182","7433.502"
"2183","7289.616"
"2184","7231.65"
"2185","7306.835"
"2186","7392.264"
"2187","7392.701"
"2188","7325.419"
"2189","7228.29"
"2190","7143.095"
"2191","7110.685"
"2192","7121.886"
"2193","7123.682"
"2194","7090.924"
"2195","7052.75"
"2196","7032.959"
"2197","7009.198"
"2198","6951.144"
"2199","6866.998"
"2200","6786.368"
"2201","6726.773"
"2202","6691.385"
"2203","6683.496"
"2204","6708.621"
"2205","6764.276"
"2206","6803.319"
"2207","6770.052"
"2208","6695.305"
"2209","6669.403"
"2210","6709.797"
"2211","6729.017"
"2212","6670.917"
"2213","6595.108"
"2214","6572.216"
"2215","6606.186"
"2216","6672.909"
"2217","6723.34"
"2218","6689.34"
"2219","6565.805"
"2220","6448.478"
"2221","6410.116"
"2222","6418.805"
"2223","6424.315"
"2224","6397.934"
"2225","6322.736"
"2226","6227.672"
"2227","6179.991"
"2228","6204.838"
"2229","6256.353"
"2230","6290.333"
"2231","6290.111"
"2232","6247.658"
"2233","6176.221"
"2234","6097.995"
"2235","6033.038"
"2236","5999.319"
"2237","5995.577"
"2238","5990.759"
"2239","5959.973"
"2240","5905.139"
"2241","5834.777"
"2242","5766.835"
"2243","5722.678"
"2244","5719.65"
"2245","5770.761"
"2246","5829.018"
"2247","5766.204"
"2248","5538.051"
"2249","5331.343"
"2250","5321.757"
"2251","5438.283"
"2252","5538.394"
"2253","5556.5"
"2254","5475.201"
"2255","5324.877"
"2256","5187.557"
"2257","5111.562"
"2258","5071.841"
"2259","5039.373"
"2260","5003.789"
"2261","4958.642"
"2262","4893.946"
"2263","4800.642"
"2264","4712.153"
"2265","4695.48"
"2266","4741.352"
"2267","4727.85"
"2268","4596.193"
"2269","4478.359"
"2270","4493.296"
"2271","4537.879"
"2272","4459.779"
"2273","4304.677"
"2274","4224.075"
"2275","4222.269"
"2276","4158.011"
"2277","3988.651"
"2278","3851.265"
"2279","3842.184"
"2280","3878.085"
"2281","3858.567"
"2282","3782.057"
"2283","3680.468"
"2284","3572.358"
"2285","3468.236"
"2286","3383.184"
"2287","3336.951"
"2288","3327.269"
"2289","3312.328"
"2290","3261.263"
"2291","3190.111"
"2292","3117.256"
"2293","3023.469"
"2294","2883.296"
"2295","2742.903"
"2296","2686.305"
"2297","2686.234"
"2298","2606.31"
"2299","2410.798"
"2300","2235.848"
