,"Scan 01166"
"400","7415.62"
"401","7453.715"
"402","7490.806"
"403","7514.75"
"404","7526.878"
"405","7532.841"
"406","7538.242"
"407","7547.655"
"408","7557.548"
"409","7560.514"
"410","7549.165"
"411","7517.257"
"412","7472.676"
"413","7433.104"
"414","7416.297"
"415","7439.022"
"416","7498.79"
"417","7574.345"
"418","7643.797"
"419","7685.713"
"420","7691.344"
"421","7668.968"
"422","7628.015"
"423","7577.833"
"424","7527.145"
"425","7483.578"
"426","7454.59"
"427","7447.574"
"428","7464.47"
"429","7493.659"
"430","7521.521"
"431","7534.525"
"432","7524.274"
"433","7499.475"
"434","7472.377"
"435","7455.156"
"436","7456.56"
"437","7470.193"
"438","7485.423"
"439","7491.7"
"440","7480.84"
"441","7458.491"
"442","7435.339"
"443","7422.009"
"444","7427.503"
"445","7448.698"
"446","7476.831"
"447","7503.163"
"448","7519.651"
"449","7524.764"
"450","7520.725"
"451","7509.795"
"452","7494.258"
"453","7476.917"
"454","7460.937"
"455","7449.467"
"456","7445.339"
"457","7446.223"
"458","7445.512"
"459","7436.511"
"460","7412.988"
"461","7378.049"
"462","7343.877"
"463","7322.95"
"464","7327.227"
"465","7355.91"
"466","7393.969"
"467","7425.713"
"468","7435.858"
"469","7420.524"
"470","7390.237"
"471","7356.385"
"472","7330.152"
"473","7316.519"
"474","7311.743"
"475","7311.438"
"476","7311.304"
"477","7310.143"
"478","7311.552"
"479","7319.52"
"480","7337.948"
"481","7365.785"
"482","7393.718"
"483","7411.697"
"484","7409.813"
"485","7385.506"
"486","7349.271"
"487","7312.889"
"488","7288.02"
"489","7280.669"
"490","7286.356"
"491","7299.478"
"492","7314.471"
"493","7326.656"
"494","7333.021"
"495","7330.762"
"496","7317.102"
"497","7290.709"
"498","7253.063"
"499","7205.958"
"500","7151.197"
"501","7093.011"
"502","7040.363"
"503","7002.722"
"504","6989.423"
"505","7001.191"
"506","7022.309"
"507","7035.286"
"508","7022.845"
"509","6979.187"
"510","6919.686"
"511","6861.926"
"512","6823.281"
"513","6810.921"
"514","6814.134"
"515","6820.441"
"516","6817.539"
"517","6800.778"
"518","6778.109"
"519","6758.622"
"520","6751.245"
"521","6758.645"
"522","6773.951"
"523","6789.523"
"524","6797.852"
"525","6795.218"
"526","6783.154"
"527","6763.579"
"528","6738.398"
"529","6709.587"
"530","6679.202"
"531","6649.298"
"532","6621.867"
"533","6597.517"
"534","6575.325"
"535","6554.299"
"536","6533.58"
"537","6515.169"
"538","6503.812"
"539","6504.343"
"540","6521.103"
"541","6550.482"
"542","6582.298"
"543","6606.222"
"544","6612.78"
"545","6603.066"
"546","6585.579"
"547","6568.919"
"548","6560.987"
"549","6562.807"
"550","6571.407"
"551","6583.777"
"552","6596.872"
"553","6607.249"
"554","6611.295"
"555","6605.408"
"556","6587.146"
"557","6561.13"
"558","6534.655"
"559","6514.98"
"560","6507.753"
"561","6511.092"
"562","6520.886"
"563","6533.046"
"564","6543.718"
"565","6549.858"
"566","6548.609"
"567","6537.138"
"568","6515.666"
"569","6492.752"
"570","6478.33"
"571","6482.232"
"572","6506.692"
"573","6538.388"
"574","6562.148"
"575","6563.057"
"576","6537.111"
"577","6497.018"
"578","6456.847"
"579","6430.33"
"580","6422.755"
"581","6429.789"
"582","6446.587"
"583","6468.358"
"584","6490.762"
"585","6509.855"
"586","6521.713"
"587","6522.925"
"588","6515.388"
"589","6504.225"
"590","6494.585"
"591","6490.717"
"592","6490.624"
"593","6489.645"
"594","6483.126"
"595","6468.157"
"596","6449.937"
"597","6436.015"
"598","6433.91"
"599","6448.372"
"600","6475.611"
"601","6510.209"
"602","6546.766"
"603","6579.623"
"604","6602.579"
"605","6609.378"
"606","6593.958"
"607","6557.592"
"608","6511.695"
"609","6468.391"
"610","6439.361"
"611","6428.278"
"612","6431.393"
"613","6444.69"
"614","6464.096"
"615","6484.731"
"616","6501.234"
"617","6508.26"
"618","6501.804"
"619","6486.301"
"620","6469.455"
"621","6458.95"
"622","6460.054"
"623","6468.874"
"624","6479.359"
"625","6485.49"
"626","6483.575"
"627","6475.263"
"628","6462.943"
"629","6449.002"
"630","6435.998"
"631","6426.738"
"632","6424.041"
"633","6430.476"
"634","6444.238"
"635","6459.663"
"636","6470.981"
"637","6473.258"
"638","6469.117"
"639","6465.212"
"640","6468.213"
"641","6482.988"
"642","6505.486"
"643","6528.911"
"644","6546.484"
"645","6553.666"
"646","6552.073"
"647","6544.38"
"648","6533.246"
"649","6521.324"
"650","6511.259"
"651","6505.683"
"652","6507.099"
"653","6515.487"
"654","6528.509"
"655","6543.743"
"656","6558.692"
"657","6570.075"
"658","6574.203"
"659","6567.394"
"660","6548.404"
"661","6527.037"
"662","6516.211"
"663","6528.779"
"664","6568.625"
"665","6618.328"
"666","6657.413"
"667","6665.891"
"668","6640.576"
"669","6600"
"670","6564.089"
"671","6551.335"
"672","6561.833"
"673","6582.615"
"674","6600.472"
"675","6604.36"
"676","6596.182"
"677","6582.674"
"678","6570.56"
"679","6565.156"
"680","6567.652"
"681","6578.471"
"682","6598"
"683","6624.295"
"684","6651.919"
"685","6675.154"
"686","6688.563"
"687","6690.813"
"688","6683.81"
"689","6669.543"
"690","6650.193"
"691","6629.208"
"692","6610.536"
"693","6598.119"
"694","6594.415"
"695","6597.476"
"696","6604.539"
"697","6612.872"
"698","6621.45"
"699","6631.718"
"700","6645.311"
"701","6663.585"
"702","6684.045"
"703","6701.409"
"704","6710.332"
"705","6706.977"
"706","6695.86"
"707","6684.385"
"708","6679.938"
"709","6686.362"
"710","6698.73"
"711","6710.786"
"712","6716.421"
"713","6713.829"
"714","6706.241"
"715","6697.169"
"716","6689.933"
"717","6686.029"
"718","6685.938"
"719","6690.124"
"720","6699.257"
"721","6714.778"
"722","6738.326"
"723","6771.467"
"724","6810.604"
"725","6843.219"
"726","6855.936"
"727","6836.546"
"728","6790.894"
"729","6739.185"
"730","6701.993"
"731","6695.798"
"732","6714.04"
"733","6742.048"
"734","6765.191"
"735","6775.18"
"736","6778.437"
"737","6783.453"
"738","6798.296"
"739","6821.113"
"740","6839.891"
"741","6842.182"
"742","6818.363"
"743","6779.566"
"744","6746.224"
"745","6738.768"
"746","6768.037"
"747","6817.488"
"748","6865.739"
"749","6891.901"
"750","6890.238"
"751","6873.186"
"752","6854.242"
"753","6845.671"
"754","6849.269"
"755","6861.452"
"756","6878.598"
"757","6897.681"
"758","6917.56"
"759","6937.476"
"760","6956.667"
"761","6974.153"
"762","6988.678"
"763","6998.979"
"764","7003.978"
"765","7004.383"
"766","7001.85"
"767","6998.038"
"768","6995.03"
"769","6996.248"
"770","7005.384"
"771","7025.968"
"772","7055.799"
"773","7085.474"
"774","7105.137"
"775","7106.542"
"776","7095.07"
"777","7083.007"
"778","7082.676"
"779","7101.45"
"780","7132.15"
"781","7164.932"
"782","7190.225"
"783","7206.013"
"784","7218.826"
"785","7235.636"
"786","7261.995"
"787","7293.205"
"788","7320.087"
"789","7333.455"
"790","7328.415"
"791","7310.625"
"792","7287.322"
"793","7265.647"
"794","7250.737"
"795","7245.867"
"796","7254.235"
"797","7277.498"
"798","7308.724"
"799","7338.026"
"800","7355.581"
"801","7357.718"
"802","7352.393"
"803","7348.851"
"804","7355.642"
"805","7372.241"
"806","7391.693"
"807","7406.915"
"808","7412.751"
"809","7411.612"
"810","7407.751"
"811","7405.392"
"812","7407.224"
"813","7413.874"
"814","7425.825"
"815","7443.149"
"816","7462.578"
"817","7479.196"
"818","7488.091"
"819","7486.625"
"820","7477.99"
"821","7466.289"
"822","7455.628"
"823","7450.155"
"824","7454.073"
"825","7471.57"
"826","7504.603"
"827","7544.115"
"828","7577.684"
"829","7593.033"
"830","7586.302"
"831","7566.906"
"832","7545.419"
"833","7531.637"
"834","7527.983"
"835","7532.822"
"836","7544.478"
"837","7561.634"
"838","7583.964"
"839","7611.315"
"840","7643.295"
"841","7674.817"
"842","7696.461"
"843","7698.65"
"844","7675.3"
"845","7637.168"
"846","7600.075"
"847","7579.646"
"848","7581.589"
"849","7596.842"
"850","7615.148"
"851","7627.505"
"852","7635.355"
"853","7645.338"
"854","7664.119"
"855","7695.017"
"856","7733.428"
"857","7773.604"
"858","7809.831"
"859","7836.972"
"860","7850.328"
"861","7845.212"
"862","7821.246"
"863","7794.241"
"864","7783.808"
"865","7808.852"
"866","7867.22"
"867","7932.532"
"868","7977.075"
"869","7978.736"
"870","7948.125"
"871","7907.722"
"872","7879.854"
"873","7875.525"
"874","7886.807"
"875","7903.977"
"876","7918.307"
"877","7929.979"
"878","7943.901"
"879","7965.016"
"880","7994.893"
"881","8027.089"
"882","8053.988"
"883","8068.39"
"884","8068.95"
"885","8058.646"
"886","8040.551"
"887","8018.945"
"888","8002.141"
"889","7999.301"
"890","8019.147"
"891","8060.507"
"892","8112.39"
"893","8163.387"
"894","8203.596"
"895","8230.144"
"896","8242.199"
"897","8239.07"
"898","8225.925"
"899","8215.514"
"900","8221.092"
"901","8252.249"
"902","8295.73"
"903","8329.48"
"904","8331.668"
"905","8297.926"
"906","8252.77"
"907","8223.424"
"908","8233.098"
"909","8271.966"
"910","8313.975"
"911","8333.046"
"912","8317.078"
"913","8282.844"
"914","8250.682"
"915","8239.375"
"916","8251.024"
"917","8277.64"
"918","8311.092"
"919","8343.623"
"920","8368.413"
"921","8378.79"
"922","8369.01"
"923","8346.005"
"924","8325.875"
"925","8324.923"
"926","8352.895"
"927","8399.745"
"928","8451.697"
"929","8495.335"
"930","8523.487"
"931","8534.227"
"932","8525.789"
"933","8499.76"
"934","8469.563"
"935","8451.232"
"936","8459.973"
"937","8493.475"
"938","8532.76"
"939","8558.182"
"940","8555.431"
"941","8531.633"
"942","8499.299"
"943","8470.759"
"944","8453.718"
"945","8450.998"
"946","8465.199"
"947","8496.425"
"948","8533.687"
"949","8562.903"
"950","8570.377"
"951","8553.577"
"952","8522.678"
"953","8488.554"
"954","8460.948"
"955","8444.19"
"956","8440.979"
"957","8453.834"
"958","8479.203"
"959","8506.247"
"960","8523.683"
"961","8523.113"
"962","8510.747"
"963","8497.407"
"964","8493.74"
"965","8504.198"
"966","8525.513"
"967","8553.927"
"968","8585.038"
"969","8611.033"
"970","8623.005"
"971","8612.333"
"972","8581.168"
"973","8545.217"
"974","8521.062"
"975","8520.993"
"976","8534.915"
"977","8545.456"
"978","8535.669"
"979","8503.994"
"980","8468.097"
"981","8446.859"
"982","8455.062"
"983","8486.464"
"984","8528.15"
"985","8567.354"
"986","8596.895"
"987","8616.363"
"988","8625.759"
"989","8625.551"
"990","8618.493"
"991","8608.032"
"992","8597.613"
"993","8590.413"
"994","8589.298"
"995","8597.123"
"996","8614.986"
"997","8635.969"
"998","8650.863"
"999","8650.826"
"1000","8637.088"
"1001","8621.791"
"1002","8617.636"
"1003","8633.915"
"1004","8665.603"
"1005","8703.923"
"1006","8740.101"
"1007","8767.819"
"1008","8786.957"
"1009","8798.347"
"1010","8802.85"
"1011","8801.581"
"1012","8795.81"
"1013","8786.824"
"1014","8777.475"
"1015","8773.704"
"1016","8781.822"
"1017","8806.535"
"1018","8840.481"
"1019","8870.803"
"1020","8884.813"
"1021","8881.182"
"1022","8875.56"
"1023","8884.994"
"1024","8921.787"
"1025","8972.788"
"1026","9016.345"
"1027","9031.476"
"1028","9015.992"
"1029","8988.396"
"1030","8968.277"
"1031","8970.348"
"1032","8991.291"
"1033","9023.626"
"1034","9059.871"
"1035","9092.413"
"1036","9113.566"
"1037","9115.646"
"1038","9097.795"
"1039","9075.988"
"1040","9068.772"
"1041","9091.908"
"1042","9135.865"
"1043","9177.655"
"1044","9194.384"
"1045","9179.067"
"1046","9150.58"
"1047","9130.172"
"1048","9135.371"
"1049","9163.32"
"1050","9204.24"
"1051","9248.385"
"1052","9286.965"
"1053","9312.219"
"1054","9316.422"
"1055","9296.257"
"1056","9262.712"
"1057","9229.674"
"1058","9210.381"
"1059","9210.293"
"1060","9229.798"
"1061","9269.139"
"1062","9322.396"
"1063","9371.936"
"1064","9398.795"
"1065","9388.446"
"1066","9353.789"
"1067","9318.19"
"1068","9304.516"
"1069","9320.407"
"1070","9356.598"
"1071","9402.919"
"1072","9449.855"
"1073","9490.012"
"1074","9516.429"
"1075","9522.93"
"1076","9512.202"
"1077","9492.526"
"1078","9472.254"
"1079","9457.862"
"1080","9452.54"
"1081","9459.154"
"1082","9478.979"
"1083","9504.854"
"1084","9526.803"
"1085","9535.31"
"1086","9530.345"
"1087","9520.76"
"1088","9515.737"
"1089","9519.844"
"1090","9525.716"
"1091","9524.09"
"1092","9507.282"
"1093","9480.249"
"1094","9453.992"
"1095","9439.367"
"1096","9439.556"
"1097","9447.961"
"1098","9457.356"
"1099","9461.965"
"1100","9461.186"
"1101","9455.56"
"1102","9445.743"
"1103","9433.72"
"1104","9422.303"
"1105","9414.32"
"1106","9412.749"
"1107","9420.805"
"1108","9441.723"
"1109","9475.769"
"1110","9509.98"
"1111","9527.727"
"1112","9514.103"
"1113","9478.897"
"1114","9450.253"
"1115","9456.563"
"1116","9504.41"
"1117","9559.736"
"1118","9584.02"
"1119","9549.179"
"1120","9480.306"
"1121","9419.365"
"1122","9406.024"
"1123","9442.003"
"1124","9498.164"
"1125","9544.546"
"1126","9563.984"
"1127","9564.772"
"1128","9558.23"
"1129","9554.145"
"1130","9554.19"
"1131","9557.362"
"1132","9562.557"
"1133","9567.063"
"1134","9566.861"
"1135","9557.922"
"1136","9541.067"
"1137","9526.58"
"1138","9525.848"
"1139","9547.014"
"1140","9582.009"
"1141","9617.681"
"1142","9641.497"
"1143","9650.284"
"1144","9647.982"
"1145","9638.71"
"1146","9625.367"
"1147","9608.732"
"1148","9589.368"
"1149","9569.227"
"1150","9556.234"
"1151","9559.943"
"1152","9588.601"
"1153","9635.067"
"1154","9682.173"
"1155","9712.797"
"1156","9721.382"
"1157","9719.201"
"1158","9718.873"
"1159","9729.467"
"1160","9747.94"
"1161","9768.686"
"1162","9786.286"
"1163","9797.129"
"1164","9798.513"
"1165","9787.954"
"1166","9769.069"
"1167","9752.297"
"1168","9748.425"
"1169","9762.135"
"1170","9783.018"
"1171","9798.374"
"1172","9798.67"
"1173","9792.927"
"1174","9796.889"
"1175","9824.845"
"1176","9867.974"
"1177","9899.123"
"1178","9890.945"
"1179","9840.559"
"1180","9785.914"
"1181","9768.861"
"1182","9816.004"
"1183","9897.552"
"1184","9970.687"
"1185","9997.568"
"1186","9983.861"
"1187","9957.592"
"1188","9946.255"
"1189","9958.701"
"1190","9984.031"
"1191","10010.42"
"1192","10030.49"
"1193","10046.56"
"1194","10062.25"
"1195","10079.57"
"1196","10093.05"
"1197","10095.01"
"1198","10079.08"
"1199","10053.52"
"1200","10035.7"
"1201","10042.65"
"1202","10075.16"
"1203","10114.1"
"1204","10139.14"
"1205","10139.21"
"1206","10126"
"1207","10114.62"
"1208","10117.17"
"1209","10130.28"
"1210","10145.55"
"1211","10154.92"
"1212","10154.42"
"1213","10142.67"
"1214","10118.59"
"1215","10089.4"
"1216","10072.57"
"1217","10086.18"
"1218","10135.79"
"1219","10197.26"
"1220","10242.18"
"1221","10249.24"
"1222","10231.52"
"1223","10212.43"
"1224","10213.09"
"1225","10231.61"
"1226","10252.65"
"1227","10261.23"
"1228","10256.58"
"1229","10253.24"
"1230","10266.42"
"1231","10299.67"
"1232","10333.5"
"1233","10345.72"
"1234","10323.68"
"1235","10290.89"
"1236","10279.44"
"1237","10315.19"
"1238","10377.29"
"1239","10423.78"
"1240","10415.55"
"1241","10362.72"
"1242","10315.53"
"1243","10324.65"
"1244","10400.64"
"1245","10496.62"
"1246","10561.3"
"1247","10564.14"
"1248","10527.91"
"1249","10483.81"
"1250","10458.53"
"1251","10457.19"
"1252","10478.54"
"1253","10520.23"
"1254","10570.35"
"1255","10611.82"
"1256","10628.45"
"1257","10621.82"
"1258","10609.73"
"1259","10610.37"
"1260","10628.56"
"1261","10648.58"
"1262","10652.95"
"1263","10632.95"
"1264","10602.95"
"1265","10581.1"
"1266","10581.9"
"1267","10602.96"
"1268","10636.92"
"1269","10676.11"
"1270","10710.16"
"1271","10727.31"
"1272","10716.86"
"1273","10685.92"
"1274","10656.2"
"1275","10649.44"
"1276","10671.12"
"1277","10705.14"
"1278","10733.96"
"1279","10747.24"
"1280","10750.12"
"1281","10749.7"
"1282","10751.47"
"1283","10755.02"
"1284","10758.64"
"1285","10760.84"
"1286","10761.5"
"1287","10760.98"
"1288","10759.39"
"1289","10754.09"
"1290","10740.82"
"1291","10715.73"
"1292","10684.27"
"1293","10660.4"
"1294","10658.24"
"1295","10683.54"
"1296","10730.25"
"1297","10791.45"
"1298","10859.84"
"1299","10927.3"
"1300","10985.62"
"1301","11026.46"
"1302","11041.22"
"1303","11021.2"
"1304","10963.07"
"1305","10892.14"
"1306","10843.35"
"1307","10846.76"
"1308","10890.6"
"1309","10941.73"
"1310","10968.62"
"1311","10965.88"
"1312","10947.9"
"1313","10929.3"
"1314","10917.67"
"1315","10912.86"
"1316","10914.31"
"1317","10920.81"
"1318","10930.07"
"1319","10939.68"
"1320","10947.4"
"1321","10951.23"
"1322","10949.25"
"1323","10941.25"
"1324","10932.92"
"1325","10931.23"
"1326","10940.98"
"1327","10956.25"
"1328","10967.81"
"1329","10968.48"
"1330","10966.53"
"1331","10977.19"
"1332","11013.04"
"1333","11056.9"
"1334","11072.82"
"1335","11027.27"
"1336","10935.36"
"1337","10854.25"
"1338","10840.91"
"1339","10902.01"
"1340","10985.27"
"1341","11035.54"
"1342","11031.34"
"1343","11004.4"
"1344","10991.1"
"1345","11010.55"
"1346","11044.91"
"1347","11071.6"
"1348","11075.14"
"1349","11060.73"
"1350","11037.3"
"1351","11012.59"
"1352","10989.5"
"1353","10969.72"
"1354","10955.91"
"1355","10955.7"
"1356","10978.4"
"1357","11029.47"
"1358","11086.56"
"1359","11115.03"
"1360","11085.04"
"1361","11015.59"
"1362","10953.56"
"1363","10943.07"
"1364","10984.54"
"1365","11046.49"
"1366","11097.48"
"1367","11122.17"
"1368","11119.96"
"1369","11091.08"
"1370","11043.08"
"1371","10992.02"
"1372","10954.23"
"1373","10938.09"
"1374","10940.65"
"1375","10958.07"
"1376","10985.92"
"1377","11018.73"
"1378","11050.96"
"1379","11078.28"
"1380","11099"
"1381","11111.81"
"1382","11115.24"
"1383","11107.46"
"1384","11086.61"
"1385","11053.81"
"1386","11020.01"
"1387","10998.12"
"1388","10996.86"
"1389","11008.33"
"1390","11020.53"
"1391","11024.87"
"1392","11029.05"
"1393","11045.62"
"1394","11082.38"
"1395","11120.16"
"1396","11130.17"
"1397","11091"
"1398","11031.36"
"1399","11000.81"
"1400","11040.25"
"1401","11119.83"
"1402","11175.55"
"1403","11151.15"
"1404","11066.79"
"1405","10984.95"
"1406","10963.07"
"1407","10996.01"
"1408","11039.3"
"1409","11050.83"
"1410","11028.2"
"1411","10997.03"
"1412","10982.25"
"1413","10988.52"
"1414","11004.56"
"1415","11019.05"
"1416","11028"
"1417","11033.71"
"1418","11038.63"
"1419","11043.46"
"1420","11047.2"
"1421","11048.95"
"1422","11051.47"
"1423","11061.31"
"1424","11085.01"
"1425","11123.4"
"1426","11171.06"
"1427","11222.13"
"1428","11268.63"
"1429","11299.99"
"1430","11305.9"
"1431","11289.29"
"1432","11269.75"
"1433","11267.64"
"1434","11290.16"
"1435","11327.23"
"1436","11367.63"
"1437","11402.01"
"1438","11423.61"
"1439","11426.02"
"1440","11411.93"
"1441","11396.89"
"1442","11397.18"
"1443","11416.1"
"1444","11438.07"
"1445","11446.22"
"1446","11436.88"
"1447","11425.92"
"1448","11430.55"
"1449","11454.21"
"1450","11479.79"
"1451","11488.65"
"1452","11472.63"
"1453","11439.22"
"1454","11397.15"
"1455","11353.67"
"1456","11313.79"
"1457","11282.3"
"1458","11261.89"
"1459","11252.16"
"1460","11252.41"
"1461","11258.15"
"1462","11259.55"
"1463","11246.52"
"1464","11215.23"
"1465","11170.58"
"1466","11118.17"
"1467","11065.61"
"1468","11023.26"
"1469","11001.36"
"1470","10999.51"
"1471","11003.86"
"1472","10999.88"
"1473","10980.17"
"1474","10945.85"
"1475","10898.8"
"1476","10847.8"
"1477","10809.4"
"1478","10799.92"
"1479","10819.69"
"1480","10852.32"
"1481","10880.71"
"1482","10890.29"
"1483","10868.9"
"1484","10806.08"
"1485","10721.5"
"1486","10661.48"
"1487","10669.87"
"1488","10735.05"
"1489","10800.76"
"1490","10813.18"
"1491","10770.71"
"1492","10709.69"
"1493","10665.03"
"1494","10645.14"
"1495","10641.2"
"1496","10644.64"
"1497","10652.34"
"1498","10664.32"
"1499","10680.02"
"1500","10693.72"
"1501","10697.14"
"1502","10683.98"
"1503","10662.58"
"1504","10647.63"
"1505","10651.16"
"1506","10668.81"
"1507","10690.1"
"1508","10705.18"
"1509","10707.35"
"1510","10690.91"
"1511","10654.66"
"1512","10616.37"
"1513","10598.81"
"1514","10616.87"
"1515","10658"
"1516","10703.67"
"1517","10737.43"
"1518","10748.83"
"1519","10728.53"
"1520","10676.27"
"1521","10613.07"
"1522","10562.98"
"1523","10540.52"
"1524","10542.03"
"1525","10561.75"
"1526","10590.95"
"1527","10616.25"
"1528","10624.23"
"1529","10614.24"
"1530","10601.93"
"1531","10603.13"
"1532","10613.5"
"1533","10608.03"
"1534","10562.93"
"1535","10490.83"
"1536","10434.22"
"1537","10432.36"
"1538","10475.32"
"1539","10521.06"
"1540","10531.69"
"1541","10510.22"
"1542","10480.51"
"1543","10463.36"
"1544","10458.86"
"1545","10458.94"
"1546","10457.19"
"1547","10455.17"
"1548","10456.84"
"1549","10463.85"
"1550","10469.86"
"1551","10466.77"
"1552","10451.97"
"1553","10437.3"
"1554","10436.82"
"1555","10455.61"
"1556","10481.14"
"1557","10498.99"
"1558","10500.18"
"1559","10483.74"
"1560","10449.59"
"1561","10404.97"
"1562","10365.13"
"1563","10344.55"
"1564","10339.24"
"1565","10330.27"
"1566","10300.56"
"1567","10256.26"
"1568","10217.27"
"1569","10201.11"
"1570","10207.6"
"1571","10229.05"
"1572","10257.53"
"1573","10284.18"
"1574","10299.86"
"1575","10301.36"
"1576","10304.71"
"1577","10329.8"
"1578","10376.24"
"1579","10397.93"
"1580","10343.35"
"1581","10213.05"
"1582","10089.47"
"1583","10059.46"
"1584","10131.4"
"1585","10227.23"
"1586","10269.17"
"1587","10251.84"
"1588","10225.55"
"1589","10236.01"
"1590","10274.32"
"1591","10302.73"
"1592","10290.3"
"1593","10246.64"
"1594","10195.7"
"1595","10157.74"
"1596","10139.48"
"1597","10144.53"
"1598","10171.96"
"1599","10210.1"
"1600","10245.74"
"1601","10269.18"
"1602","10276.17"
"1603","10263.25"
"1604","10235.41"
"1605","10206.34"
"1606","10189.27"
"1607","10185.84"
"1608","10189.74"
"1609","10196.13"
"1610","10211.97"
"1611","10249.52"
"1612","10313.21"
"1613","10372.92"
"1614","10389"
"1615","10342.07"
"1616","10267.59"
"1617","10209.91"
"1618","10190.61"
"1619","10192.85"
"1620","10196.58"
"1621","10194.59"
"1622","10193.41"
"1623","10199.37"
"1624","10207.98"
"1625","10207.42"
"1626","10189.1"
"1627","10167.51"
"1628","10166.75"
"1629","10201.43"
"1630","10248.8"
"1631","10277.01"
"1632","10269.36"
"1633","10243.9"
"1634","10223.28"
"1635","10217.14"
"1636","10217.24"
"1637","10214.17"
"1638","10201.8"
"1639","10176.68"
"1640","10137.69"
"1641","10102.19"
"1642","10096.88"
"1643","10139.06"
"1644","10202.15"
"1645","10246.9"
"1646","10252.88"
"1647","10248.12"
"1648","10267.86"
"1649","10320.88"
"1650","10376.77"
"1651","10403.48"
"1652","10397.92"
"1653","10382.2"
"1654","10376.59"
"1655","10378.53"
"1656","10373.97"
"1657","10353.19"
"1658","10325.71"
"1659","10306.39"
"1660","10301.88"
"1661","10299.48"
"1662","10283.97"
"1663","10250.42"
"1664","10207.55"
"1665","10164.93"
"1666","10131.02"
"1667","10113.41"
"1668","10117.13"
"1669","10130.01"
"1670","10132.82"
"1671","10113.29"
"1672","10082.92"
"1673","10058.21"
"1674","10046.39"
"1675","10038.17"
"1676","10022.88"
"1677","9998.44"
"1678","9971.141"
"1679","9947.367"
"1680","9931.126"
"1681","9925.162"
"1682","9931.732"
"1683","9951.006"
"1684","9982.537"
"1685","10018.21"
"1686","10033.23"
"1687","10001.63"
"1688","9927.534"
"1689","9849.439"
"1690","9804.522"
"1691","9795.258"
"1692","9803.19"
"1693","9811.929"
"1694","9816.624"
"1695","9815.92"
"1696","9810.243"
"1697","9804.196"
"1698","9802.808"
"1699","9805.704"
"1700","9806.099"
"1701","9797.759"
"1702","9784.504"
"1703","9776.283"
"1704","9779.485"
"1705","9783.235"
"1706","9771.581"
"1707","9738.725"
"1708","9701.341"
"1709","9678.662"
"1710","9676.655"
"1711","9686.725"
"1712","9699.867"
"1713","9710.414"
"1714","9714.513"
"1715","9708.823"
"1716","9692.087"
"1717","9663.615"
"1718","9627.535"
"1719","9596.956"
"1720","9585.291"
"1721","9592.363"
"1722","9605.668"
"1723","9614.202"
"1724","9620.906"
"1725","9634.752"
"1726","9659.299"
"1727","9681.469"
"1728","9685.357"
"1729","9671.532"
"1730","9663.663"
"1731","9684.202"
"1732","9719.321"
"1733","9730.994"
"1734","9693.011"
"1735","9638.084"
"1736","9616.385"
"1737","9649.845"
"1738","9702.21"
"1739","9731.402"
"1740","9724.848"
"1741","9697.96"
"1742","9666.786"
"1743","9643.807"
"1744","9639.964"
"1745","9657.109"
"1746","9670.907"
"1747","9653.088"
"1748","9604.379"
"1749","9562.143"
"1750","9561.431"
"1751","9590.45"
"1752","9610.701"
"1753","9596.142"
"1754","9569.429"
"1755","9564.417"
"1756","9589.775"
"1757","9614.229"
"1758","9605.689"
"1759","9568.571"
"1760","9532.909"
"1761","9523.106"
"1762","9534.455"
"1763","9553.762"
"1764","9571.604"
"1765","9585.626"
"1766","9594.212"
"1767","9595.168"
"1768","9585.835"
"1769","9566.719"
"1770","9555.396"
"1771","9575.034"
"1772","9626.461"
"1773","9664.043"
"1774","9639.674"
"1775","9567.416"
"1776","9515.686"
"1777","9537.465"
"1778","9585.898"
"1779","9578.733"
"1780","9484.798"
"1781","9383.446"
"1782","9364.185"
"1783","9433.274"
"1784","9523.079"
"1785","9572.773"
"1786","9575.9"
"1787","9545.282"
"1788","9498.283"
"1789","9461.717"
"1790","9461.622"
"1791","9488.771"
"1792","9504.029"
"1793","9477.933"
"1794","9437.436"
"1795","9427.846"
"1796","9463.847"
"1797","9501.371"
"1798","9493.866"
"1799","9457.184"
"1800","9454.66"
"1801","9529.202"
"1802","9624.832"
"1803","9658.142"
"1804","9602.955"
"1805","9527.144"
"1806","9501.046"
"1807","9521.216"
"1808","9536.92"
"1809","9511.85"
"1810","9465.618"
"1811","9430.279"
"1812","9421.625"
"1813","9433.864"
"1814","9458.31"
"1815","9474.536"
"1816","9456.192"
"1817","9395.604"
"1818","9336.843"
"1819","9330.967"
"1820","9382.83"
"1821","9450.571"
"1822","9494.202"
"1823","9497.818"
"1824","9454.482"
"1825","9374.822"
"1826","9304.045"
"1827","9287.596"
"1828","9317.269"
"1829","9345.924"
"1830","9340.298"
"1831","9325.766"
"1832","9341.373"
"1833","9388.625"
"1834","9418.517"
"1835","9387.056"
"1836","9320.421"
"1837","9278.711"
"1838","9296.645"
"1839","9344.988"
"1840","9385.885"
"1841","9404.234"
"1842","9404.786"
"1843","9393.11"
"1844","9375.385"
"1845","9357.934"
"1846","9344.087"
"1847","9332.62"
"1848","9322.673"
"1849","9320.141"
"1850","9334.477"
"1851","9367.821"
"1852","9402.928"
"1853","9420.046"
"1854","9412.692"
"1855","9386.183"
"1856","9349.008"
"1857","9322.347"
"1858","9330.583"
"1859","9371.859"
"1860","9406.421"
"1861","9397.577"
"1862","9358.22"
"1863","9325.296"
"1864","9322.543"
"1865","9342.467"
"1866","9373.151"
"1867","9403.141"
"1868","9421.33"
"1869","9419.544"
"1870","9400.708"
"1871","9370.505"
"1872","9338.974"
"1873","9321.216"
"1874","9329.703"
"1875","9359.199"
"1876","9397.803"
"1877","9429.701"
"1878","9432.351"
"1879","9386.961"
"1880","9317.737"
"1881","9272.901"
"1882","9276.784"
"1883","9291.797"
"1884","9273.489"
"1885","9225.086"
"1886","9187.952"
"1887","9191.72"
"1888","9217.762"
"1889","9237"
"1890","9245.677"
"1891","9268.121"
"1892","9320.803"
"1893","9369.8"
"1894","9365.008"
"1895","9299.336"
"1896","9230.297"
"1897","9212.758"
"1898","9239.786"
"1899","9276.137"
"1900","9297.48"
"1901","9301.655"
"1902","9290.313"
"1903","9277.662"
"1904","9285.496"
"1905","9321.108"
"1906","9353.631"
"1907","9348.597"
"1908","9310.979"
"1909","9276.073"
"1910","9265.994"
"1911","9255.889"
"1912","9212.978"
"1913","9146.275"
"1914","9104.485"
"1915","9124.389"
"1916","9185.574"
"1917","9252.851"
"1918","9300.437"
"1919","9313.329"
"1920","9283.245"
"1921","9233.537"
"1922","9197.295"
"1923","9188.747"
"1924","9196.772"
"1925","9208.315"
"1926","9209.628"
"1927","9186.906"
"1928","9140.762"
"1929","9093.983"
"1930","9068.752"
"1931","9069.084"
"1932","9091.133"
"1933","9126.565"
"1934","9159.441"
"1935","9175.307"
"1936","9178.085"
"1937","9180.409"
"1938","9188.932"
"1939","9198.927"
"1940","9204.64"
"1941","9202.526"
"1942","9190.197"
"1943","9171.27"
"1944","9161.3"
"1945","9174.893"
"1946","9204.281"
"1947","9229.588"
"1948","9234.04"
"1949","9207.631"
"1950","9144.389"
"1951","9068.999"
"1952","9023.029"
"1953","9026.786"
"1954","9055.598"
"1955","9081.741"
"1956","9102.78"
"1957","9130.116"
"1958","9160.75"
"1959","9161.789"
"1960","9103.06"
"1961","9013.569"
"1962","8953.85"
"1963","8953.682"
"1964","8981.534"
"1965","9000.4"
"1966","8988.779"
"1967","8933.272"
"1968","8851.7"
"1969","8819.139"
"1970","8900.779"
"1971","9036.006"
"1972","9106.324"
"1973","9063.927"
"1974","8980.223"
"1975","8927.1"
"1976","8900.607"
"1977","8865.582"
"1978","8812.434"
"1979","8769.873"
"1980","8765.371"
"1981","8800.237"
"1982","8865.998"
"1983","8943.619"
"1984","9000.415"
"1985","9008.635"
"1986","8969.726"
"1987","8894.566"
"1988","8806.46"
"1989","8742.367"
"1990","8729.426"
"1991","8752.089"
"1992","8784.283"
"1993","8804.826"
"1994","8796.974"
"1995","8756.59"
"1996","8719.384"
"1997","8726.092"
"1998","8774.66"
"1999","8831.506"
"2000","8865.563"
"2001","8854.129"
"2002","8781.091"
"2003","8684.534"
"2004","8633.634"
"2005","8652.736"
"2006","8679.604"
"2007","8654.009"
"2008","8602.334"
"2009","8588.252"
"2010","8630.616"
"2011","8683.205"
"2012","8701.36"
"2013","8675.5"
"2014","8608.349"
"2015","8530.197"
"2016","8500.901"
"2017","8553.826"
"2018","8620.706"
"2019","8615.811"
"2020","8541.274"
"2021","8467.652"
"2022","8445.206"
"2023","8468.601"
"2024","8520.874"
"2025","8556.335"
"2026","8514.134"
"2027","8390.756"
"2028","8281.198"
"2029","8272.739"
"2030","8346.908"
"2031","8446.404"
"2032","8523.613"
"2033","8542.353"
"2034","8484.633"
"2035","8399.411"
"2036","8348.588"
"2037","8346.392"
"2038","8369.938"
"2039","8401.937"
"2040","8440.913"
"2041","8485.243"
"2042","8512.816"
"2043","8491.708"
"2044","8420.596"
"2045","8344.448"
"2046","8302.573"
"2047","8286.807"
"2048","8275.358"
"2049","8267.053"
"2050","8280.27"
"2051","8322.203"
"2052","8365.684"
"2053","8379.319"
"2054","8351.982"
"2055","8284.559"
"2056","8197.127"
"2057","8141.836"
"2058","8160.058"
"2059","8217.399"
"2060","8255.612"
"2061","8256.483"
"2062","8241.799"
"2063","8225.198"
"2064","8191.176"
"2065","8124.178"
"2066","8061.939"
"2067","8072.074"
"2068","8158.023"
"2069","8218.274"
"2070","8169.931"
"2071","8073.113"
"2072","8028.566"
"2073","8053.563"
"2074","8089.477"
"2075","8092.637"
"2076","8065.194"
"2077","8016.817"
"2078","7959.28"
"2079","7905.583"
"2080","7874.815"
"2081","7894.266"
"2082","7973.477"
"2083","8049.625"
"2084","8048.161"
"2085","7979.77"
"2086","7916.018"
"2087","7898.218"
"2088","7906.389"
"2089","7916.625"
"2090","7923.036"
"2091","7926.333"
"2092","7931.123"
"2093","7945.809"
"2094","7973.629"
"2095","8003.662"
"2096","8023.298"
"2097","8025.469"
"2098","8005.699"
"2099","7957.186"
"2100","7870.142"
"2101","7754.084"
"2102","7686.417"
"2103","7747.248"
"2104","7881.822"
"2105","7953.661"
"2106","7907.168"
"2107","7816.517"
"2108","7751.648"
"2109","7713.061"
"2110","7683.463"
"2111","7661.241"
"2112","7656.199"
"2113","7664.49"
"2114","7656.374"
"2115","7609.035"
"2116","7550.34"
"2117","7522.404"
"2118","7531.134"
"2119","7552.184"
"2120","7566.794"
"2121","7570"
"2122","7560.239"
"2123","7545.713"
"2124","7537.86"
"2125","7542.863"
"2126","7562.102"
"2127","7585.83"
"2128","7579.913"
"2129","7517.924"
"2130","7440.8"
"2131","7411.338"
"2132","7421.055"
"2133","7395.302"
"2134","7301.324"
"2135","7206.965"
"2136","7180.626"
"2137","7209.347"
"2138","7250.635"
"2139","7278.468"
"2140","7281.884"
"2141","7255.582"
"2142","7205.42"
"2143","7141.52"
"2144","7089.529"
"2145","7078.973"
"2146","7110.191"
"2147","7158.783"
"2148","7203.229"
"2149","7229.385"
"2150","7225.518"
"2151","7187.946"
"2152","7117.528"
"2153","7044.401"
"2154","7020.267"
"2155","7058.186"
"2156","7103.78"
"2157","7108.813"
"2158","7079.667"
"2159","7037.492"
"2160","7007.789"
"2161","7017.957"
"2162","7051.619"
"2163","7030.017"
"2164","6910.045"
"2165","6784.383"
"2166","6759.46"
"2167","6813.802"
"2168","6863.11"
"2169","6882.3"
"2170","6913.595"
"2171","6972.461"
"2172","6997.241"
"2173","6932.378"
"2174","6835.587"
"2175","6802.889"
"2176","6840.933"
"2177","6880.335"
"2178","6878.687"
"2179","6848.245"
"2180","6807.546"
"2181","6776.502"
"2182","6770.478"
"2183","6751.041"
"2184","6649.348"
"2185","6497.453"
"2186","6459.365"
"2187","6608.781"
"2188","6735.581"
"2189","6628.286"
"2190","6409.23"
"2191","6327.463"
"2192","6425.121"
"2193","6561.887"
"2194","6633.539"
"2195","6614.417"
"2196","6506.305"
"2197","6389.001"
"2198","6351.594"
"2199","6375.589"
"2200","6382.98"
"2201","6337.349"
"2202","6251.527"
"2203","6156.276"
"2204","6118.845"
"2205","6186.685"
"2206","6270.4"
"2207","6245.887"
"2208","6139.84"
"2209","6083.416"
"2210","6117.936"
"2211","6154.419"
"2212","6125.774"
"2213","6058.721"
"2214","5994.642"
"2215","5958.407"
"2216","5966.175"
"2217","5998.235"
"2218","6006.473"
"2219","5974.109"
"2220","5935.404"
"2221","5921.734"
"2222","5940.021"
"2223","5984.924"
"2224","5999.83"
"2225","5912.158"
"2226","5757.26"
"2227","5661.166"
"2228","5685.795"
"2229","5783.221"
"2230","5887.666"
"2231","5908.799"
"2232","5774.278"
"2233","5573.864"
"2234","5459.539"
"2235","5469.187"
"2236","5546.507"
"2237","5625.68"
"2238","5630.691"
"2239","5532.544"
"2240","5448.202"
"2241","5489.961"
"2242","5566.557"
"2243","5520.637"
"2244","5368.924"
"2245","5254.346"
"2246","5233.917"
"2247","5243.682"
"2248","5238.335"
"2249","5243.024"
"2250","5275.723"
"2251","5260.881"
"2252","5109.336"
"2253","4906.526"
"2254","4837.977"
"2255","4928.218"
"2256","5023.26"
"2257","5026.716"
"2258","4976.828"
"2259","4910.951"
"2260","4801.296"
"2261","4621.58"
"2262","4474.508"
"2263","4510.185"
"2264","4682.772"
"2265","4786.842"
"2266","4734.517"
"2267","4616.685"
"2268","4510.634"
"2269","4419.851"
"2270","4335.808"
"2271","4249.894"
"2272","4155.693"
"2273","4068.766"
"2274","4016.153"
"2275","4002.007"
"2276","4007.552"
"2277","4002.08"
"2278","3936.269"
"2279","3791.363"
"2280","3648.02"
"2281","3588.198"
"2282","3592.306"
"2283","3605.218"
"2284","3574.403"
"2285","3452.479"
"2286","3283.185"
"2287","3204.686"
"2288","3249.858"
"2289","3256.246"
"2290","3113.6"
"2291","2936.969"
"2292","2856.633"
"2293","2842.772"
"2294","2814.67"
"2295","2740.768"
"2296","2620.09"
"2297","2481.486"
"2298","2382.3"
"2299","2337.64"
"2300","2291.673"
