,"Scan 01156"
"400","8974.849"
"401","8941.223"
"402","8902.495"
"403","8868.535"
"404","8845.898"
"405","8840.048"
"406","8856.398"
"407","8898.429"
"408","8954.177"
"409","9004.298"
"410","9029.537"
"411","9012.518"
"412","8958.533"
"413","8888.616"
"414","8823.963"
"415","8784.916"
"416","8775.958"
"417","8786.133"
"418","8803.907"
"419","8817.995"
"420","8823.768"
"421","8825.545"
"422","8828.249"
"423","8836.724"
"424","8851.526"
"425","8865.354"
"426","8870.11"
"427","8857.767"
"428","8823.947"
"429","8773.344"
"430","8712"
"431","8645.922"
"432","8582.353"
"433","8532.832"
"434","8509.735"
"435","8525.354"
"436","8586.129"
"437","8672.337"
"438","8756.99"
"439","8813.293"
"440","8819.453"
"441","8782.641"
"442","8720.62"
"443","8651.053"
"444","8590.106"
"445","8543.209"
"446","8510.748"
"447","8493.083"
"448","8490.315"
"449","8499.938"
"450","8517.947"
"451","8540.355"
"452","8563.265"
"453","8583.828"
"454","8599.934"
"455","8609.489"
"456","8610.496"
"457","8602.17"
"458","8584.744"
"459","8558.486"
"460","8523.783"
"461","8483.822"
"462","8444.522"
"463","8411.864"
"464","8391.604"
"465","8383.663"
"466","8381.482"
"467","8378.195"
"468","8367.137"
"469","8347.535"
"470","8326.055"
"471","8309.799"
"472","8305.698"
"473","8314.259"
"474","8326.963"
"475","8334.66"
"476","8328.381"
"477","8306.872"
"478","8280.794"
"479","8261.772"
"480","8261.245"
"481","8281.869"
"482","8311.654"
"483","8337.28"
"484","8345.594"
"485","8331.167"
"486","8302.288"
"487","8268.611"
"488","8239.684"
"489","8219.9"
"490","8204.084"
"491","8186.039"
"492","8159.645"
"493","8123.278"
"494","8083.925"
"495","8049.516"
"496","8027.888"
"497","8020.835"
"498","8018.4"
"499","8009.321"
"500","7982.455"
"501","7933.773"
"502","7873.043"
"503","7811.573"
"504","7760.557"
"505","7725.776"
"506","7702.714"
"507","7685.708"
"508","7669.15"
"509","7648.7"
"510","7622.355"
"511","7588.382"
"512","7545.092"
"513","7494.344"
"514","7444.243"
"515","7403.485"
"516","7380.638"
"517","7378.119"
"518","7388.228"
"519","7402.358"
"520","7411.992"
"521","7411.127"
"522","7397.566"
"523","7369.447"
"524","7325.063"
"525","7269.337"
"526","7216.406"
"527","7181.006"
"528","7177.406"
"529","7205.526"
"530","7247.438"
"531","7284.184"
"532","7297.423"
"533","7283.375"
"534","7254.288"
"535","7223.182"
"536","7202.53"
"537","7194.325"
"538","7190.489"
"539","7182.573"
"540","7162.602"
"541","7129.878"
"542","7089.726"
"543","7047.625"
"544","7008.994"
"545","6978.789"
"546","6961.641"
"547","6962.147"
"548","6984.124"
"549","7023.541"
"550","7071.819"
"551","7120.364"
"552","7160.833"
"553","7186.633"
"554","7192.022"
"555","7171.286"
"556","7121.395"
"557","7055.728"
"558","6993.861"
"559","6955.28"
"560","6954.225"
"561","6980.307"
"562","7015.884"
"563","7043.397"
"564","7050.561"
"565","7043.982"
"566","7034.507"
"567","7032.927"
"568","7044.832"
"569","7061.706"
"570","7072.683"
"571","7066.998"
"572","7041.075"
"573","7006.032"
"574","6974.741"
"575","6959.836"
"576","6963.367"
"577","6971.163"
"578","6967.745"
"579","6938.178"
"580","6881.94"
"581","6814.959"
"582","6753.988"
"583","6714.973"
"584","6701"
"585","6704.351"
"586","6717"
"587","6731.451"
"588","6745.553"
"589","6760.416"
"590","6777.191"
"591","6796.552"
"592","6815.813"
"593","6830.862"
"594","6837.598"
"595","6833.355"
"596","6822.15"
"597","6809.941"
"598","6802.655"
"599","6804.406"
"600","6813.694"
"601","6827.951"
"602","6844.614"
"603","6861.651"
"604","6878.096"
"605","6893.116"
"606","6905.87"
"607","6914.722"
"608","6916.942"
"609","6909.728"
"610","6890.542"
"611","6861.953"
"612","6831.252"
"613","6805.889"
"614","6792.635"
"615","6791.178"
"616","6796.881"
"617","6805.061"
"618","6811.327"
"619","6813.046"
"620","6808.273"
"621","6795.075"
"622","6773.347"
"623","6749.947"
"624","6733.367"
"625","6732.044"
"626","6748.447"
"627","6771.338"
"628","6787.593"
"629","6784.379"
"630","6760.203"
"631","6729.658"
"632","6708.517"
"633","6711.562"
"634","6736.333"
"635","6765.197"
"636","6780.064"
"637","6765.592"
"638","6731.089"
"639","6699.04"
"640","6691.968"
"641","6725.378"
"642","6780.05"
"643","6826.045"
"644","6833.539"
"645","6786.927"
"646","6709.865"
"647","6632.681"
"648","6585.335"
"649","6580.588"
"650","6604.026"
"651","6638.876"
"652","6668.931"
"653","6688.475"
"654","6701.426"
"655","6712.055"
"656","6723.992"
"657","6735.211"
"658","6740.713"
"659","6735.486"
"660","6716.617"
"661","6690.668"
"662","6666.884"
"663","6654.463"
"664","6657.313"
"665","6666.765"
"666","6672.353"
"667","6663.908"
"668","6641.902"
"669","6620.567"
"670","6615.01"
"671","6638.949"
"672","6688.132"
"673","6745.546"
"674","6793.958"
"675","6818.509"
"676","6818.535"
"677","6798.671"
"678","6763.555"
"679","6719.475"
"680","6677.655"
"681","6650.197"
"682","6649.005"
"683","6676.341"
"684","6719.959"
"685","6766.445"
"686","6802.961"
"687","6825.138"
"688","6835.292"
"689","6835.909"
"690","6829.36"
"691","6817.28"
"692","6801.006"
"693","6781.875"
"694","6762.019"
"695","6745.96"
"696","6738.664"
"697","6744.968"
"698","6764.104"
"699","6787.145"
"700","6804.538"
"701","6807.426"
"702","6796.251"
"703","6778.223"
"704","6760.684"
"705","6750.439"
"706","6751.33"
"707","6766.169"
"708","6797.748"
"709","6843.298"
"710","6886.251"
"711","6907.96"
"712","6890.44"
"713","6835.213"
"714","6766.684"
"715","6710.504"
"716","6689.659"
"717","6701.684"
"718","6729.904"
"719","6757.52"
"720","6772.114"
"721","6778.477"
"722","6785.635"
"723","6802.513"
"724","6831.413"
"725","6863.233"
"726","6887.753"
"727","6895.374"
"728","6886.037"
"729","6867.265"
"730","6846.786"
"731","6831.605"
"732","6824.773"
"733","6827.922"
"734","6842.684"
"735","6868.479"
"736","6899.617"
"737","6929.684"
"738","6952.423"
"739","6965.031"
"740","6968.226"
"741","6962.888"
"742","6950.371"
"743","6935.499"
"744","6924.655"
"745","6924.217"
"746","6936.046"
"747","6949.108"
"748","6950.096"
"749","6926.225"
"750","6881.257"
"751","6838.791"
"752","6823.572"
"753","6856.487"
"754","6925.218"
"755","7000.411"
"756","7052.623"
"757","7062.355"
"758","7041.783"
"759","7009.361"
"760","6983.264"
"761","6971.813"
"762","6970.689"
"763","6974.745"
"764","6979.415"
"765","6985.393"
"766","6996.181"
"767","7015.295"
"768","7043.225"
"769","7070.668"
"770","7086.364"
"771","7079.444"
"772","7052.529"
"773","7025.217"
"774","7018.158"
"775","7048.92"
"776","7108.882"
"777","7176.15"
"778","7228.761"
"779","7251.733"
"780","7250.626"
"781","7234.757"
"782","7213.417"
"783","7195.25"
"784","7188.188"
"785","7200.111"
"786","7236.584"
"787","7286.522"
"788","7331.544"
"789","7353.275"
"790","7342.568"
"791","7312.946"
"792","7281.34"
"793","7264.079"
"794","7265.456"
"795","7278.553"
"796","7296.026"
"797","7311.506"
"798","7323.992"
"799","7334.335"
"800","7343.398"
"801","7352.872"
"802","7366.02"
"803","7386.279"
"804","7416.378"
"805","7449.739"
"806","7473.183"
"807","7473.401"
"808","7443.166"
"809","7399.047"
"810","7363.437"
"811","7358.301"
"812","7388.355"
"813","7435.002"
"814","7478.013"
"815","7499.428"
"816","7499.981"
"817","7489.576"
"818","7478.164"
"819","7472.084"
"820","7468.437"
"821","7462.869"
"822","7451.4"
"823","7437.124"
"824","7429.504"
"825","7438.216"
"826","7469.551"
"827","7513.153"
"828","7553.58"
"829","7575.541"
"830","7572.798"
"831","7553.382"
"832","7526.568"
"833","7501.299"
"834","7483.36"
"835","7476.795"
"836","7485.62"
"837","7510.577"
"838","7543.383"
"839","7574.225"
"840","7593.612"
"841","7598.558"
"842","7592.068"
"843","7577.38"
"844","7558.347"
"845","7541.831"
"846","7535.602"
"847","7547.289"
"848","7577.3"
"849","7615.295"
"850","7650.066"
"851","7671.641"
"852","7680.387"
"853","7681.82"
"854","7681.479"
"855","7683.367"
"856","7687.846"
"857","7694.753"
"858","7703.827"
"859","7713.379"
"860","7720.616"
"861","7722.718"
"862","7718.843"
"863","7715.585"
"864","7721.281"
"865","7743.893"
"866","7780.006"
"867","7813.124"
"868","7826.034"
"869","7806.402"
"870","7770.438"
"871","7744.701"
"872","7755.492"
"873","7809.652"
"874","7881.532"
"875","7942.403"
"876","7966.666"
"877","7956.913"
"878","7930.676"
"879","7905.599"
"880","7893.271"
"881","7890.864"
"882","7893.442"
"883","7896.32"
"884","7898.304"
"885","7900.789"
"886","7905.225"
"887","7913.147"
"888","7926.369"
"889","7946.764"
"890","7976.064"
"891","8012.749"
"892","8052.078"
"893","8089.174"
"894","8119.485"
"895","8139.975"
"896","8148.047"
"897","8141.232"
"898","8121.914"
"899","8098.763"
"900","8080.871"
"901","8075.961"
"902","8083.237"
"903","8098.618"
"904","8118.018"
"905","8137.303"
"906","8152.26"
"907","8158.674"
"908","8153.179"
"909","8139.438"
"910","8124.573"
"911","8115.709"
"912","8117.64"
"913","8130.339"
"914","8153.186"
"915","8185.147"
"916","8220.847"
"917","8252.27"
"918","8271.378"
"919","8273.67"
"920","8263.6"
"921","8247.01"
"922","8229.799"
"923","8218.588"
"924","8220.525"
"925","8242.766"
"926","8287.641"
"927","8342.902"
"928","8393.558"
"929","8425.295"
"930","8435.571"
"931","8431.729"
"932","8421.41"
"933","8410.313"
"934","8397.244"
"935","8379.487"
"936","8354.624"
"937","8326.479"
"938","8304.823"
"939","8299.659"
"940","8317.142"
"941","8347.922"
"942","8378.767"
"943","8396.787"
"944","8397.96"
"945","8387.596"
"946","8371.457"
"947","8355.191"
"948","8343.984"
"949","8342.891"
"950","8356.618"
"951","8379.841"
"952","8395.797"
"953","8387.102"
"954","8342.881"
"955","8283.577"
"956","8239.034"
"957","8238.316"
"958","8284.376"
"959","8348.749"
"960","8401.097"
"961","8417.101"
"962","8402.925"
"963","8374.358"
"964","8347.003"
"965","8329.537"
"966","8322.014"
"967","8323.952"
"968","8334.192"
"969","8348.053"
"970","8359.715"
"971","8363.516"
"972","8359.597"
"973","8355.418"
"974","8358.908"
"975","8375.183"
"976","8394.679"
"977","8403.069"
"978","8386.493"
"979","8348.102"
"980","8312.301"
"981","8304.85"
"982","8343.854"
"983","8408.37"
"984","8465.014"
"985","8481.136"
"986","8449.142"
"987","8391.885"
"988","8334.06"
"989","8296.683"
"990","8282.73"
"991","8289.687"
"992","8314.925"
"993","8352.499"
"994","8392.619"
"995","8425.271"
"996","8443.104"
"997","8450.926"
"998","8457.021"
"999","8469.451"
"1000","8490.131"
"1001","8514.305"
"1002","8536.879"
"1003","8554.061"
"1004","8567.479"
"1005","8580.195"
"1006","8595.266"
"1007","8613.001"
"1008","8626.818"
"1009","8629.063"
"1010","8613.22"
"1011","8584.521"
"1012","8555.148"
"1013","8537.344"
"1014","8538.143"
"1015","8554.376"
"1016","8581.674"
"1017","8615.188"
"1018","8646.516"
"1019","8665.623"
"1020","8662.628"
"1021","8636.488"
"1022","8599.361"
"1023","8564.504"
"1024","8543.393"
"1025","8537.98"
"1026","8547.041"
"1027","8569.244"
"1028","8600.438"
"1029","8633.356"
"1030","8660.581"
"1031","8677.109"
"1032","8686.939"
"1033","8696.137"
"1034","8710.434"
"1035","8730.246"
"1036","8751.831"
"1037","8771.336"
"1038","8785.847"
"1039","8794.77"
"1040","8797.867"
"1041","8795.661"
"1042","8795.578"
"1043","8808.723"
"1044","8846.049"
"1045","8906.149"
"1046","8967.505"
"1047","9006.748"
"1048","9005.974"
"1049","8977.195"
"1050","8942.575"
"1051","8923.731"
"1052","8927.929"
"1053","8947.398"
"1054","8973.65"
"1055","8999.496"
"1056","9021.992"
"1057","9039.046"
"1058","9048.887"
"1059","9053.53"
"1060","9057.465"
"1061","9065.185"
"1062","9076.885"
"1063","9084.574"
"1064","9079.341"
"1065","9055.144"
"1066","9023.658"
"1067","9003.33"
"1068","9012.1"
"1069","9052.975"
"1070","9112.372"
"1071","9175.83"
"1072","9230.803"
"1073","9271.088"
"1074","9291.777"
"1075","9288.659"
"1076","9265.413"
"1077","9230.696"
"1078","9193.211"
"1079","9158.484"
"1080","9126.472"
"1081","9096.565"
"1082","9069.685"
"1083","9054.861"
"1084","9063.818"
"1085","9107.38"
"1086","9177.758"
"1087","9249.746"
"1088","9297.461"
"1089","9305.277"
"1090","9284.006"
"1091","9248.664"
"1092","9213.733"
"1093","9189.27"
"1094","9183.217"
"1095","9203.188"
"1096","9244.696"
"1097","9287.818"
"1098","9311.619"
"1099","9300.662"
"1100","9259.012"
"1101","9195.034"
"1102","9117.86"
"1103","9045.118"
"1104","8999.732"
"1105","9004.393"
"1106","9059.956"
"1107","9132.231"
"1108","9183.848"
"1109","9187.642"
"1110","9161.865"
"1111","9137.379"
"1112","9142.742"
"1113","9173.441"
"1114","9200.4"
"1115","9194.111"
"1116","9144.238"
"1117","9076.164"
"1118","9019.191"
"1119","8997.201"
"1120","9006.44"
"1121","9034.393"
"1122","9068.807"
"1123","9101.952"
"1124","9129.783"
"1125","9148.377"
"1126","9157.109"
"1127","9161.919"
"1128","9169.528"
"1129","9184.313"
"1130","9198.221"
"1131","9199.1"
"1132","9175.63"
"1133","9130.478"
"1134","9077.765"
"1135","9031.932"
"1136","9003.57"
"1137","8995.772"
"1138","9010.772"
"1139","9048.1"
"1140","9093.802"
"1141","9129.692"
"1142","9138.964"
"1143","9125.348"
"1144","9108.191"
"1145","9107.124"
"1146","9129.771"
"1147","9162.704"
"1148","9190.347"
"1149","9201.552"
"1150","9204.321"
"1151","9211.85"
"1152","9236.188"
"1153","9275.771"
"1154","9320.176"
"1155","9358.848"
"1156","9382.73"
"1157","9384.945"
"1158","9358.781"
"1159","9304.264"
"1160","9244.379"
"1161","9207.016"
"1162","9216.173"
"1163","9262.325"
"1164","9318.841"
"1165","9359.551"
"1166","9375.737"
"1167","9378.203"
"1168","9378.778"
"1169","9384.422"
"1170","9390.079"
"1171","9388.87"
"1172","9375.781"
"1173","9356.731"
"1174","9341.608"
"1175","9339.501"
"1176","9346.915"
"1177","9350.378"
"1178","9336.293"
"1179","9303.309"
"1180","9270.512"
"1181","9258.943"
"1182","9282.398"
"1183","9327.891"
"1184","9376.242"
"1185","9409.836"
"1186","9424.739"
"1187","9424.041"
"1188","9410.975"
"1189","9390.914"
"1190","9371.486"
"1191","9360.426"
"1192","9363.035"
"1193","9379.347"
"1194","9408.698"
"1195","9449.171"
"1196","9492.951"
"1197","9530.467"
"1198","9552.758"
"1199","9557.697"
"1200","9547.389"
"1201","9524.185"
"1202","9496.475"
"1203","9480.044"
"1204","9491.116"
"1205","9533.65"
"1206","9581.563"
"1207","9604.231"
"1208","9580.029"
"1209","9534.007"
"1210","9506.272"
"1211","9532.986"
"1212","9603.835"
"1213","9678.436"
"1214","9716.686"
"1215","9706.578"
"1216","9670.719"
"1217","9633.833"
"1218","9613.772"
"1219","9612.047"
"1220","9627.798"
"1221","9658.375"
"1222","9692.531"
"1223","9716.444"
"1224","9717.842"
"1225","9700.308"
"1226","9676.669"
"1227","9659.553"
"1228","9652.759"
"1229","9650.599"
"1230","9646.95"
"1231","9640.549"
"1232","9639.716"
"1233","9653.914"
"1234","9689.111"
"1235","9738.074"
"1236","9790.445"
"1237","9836.215"
"1238","9868.088"
"1239","9879.986"
"1240","9866.866"
"1241","9840.53"
"1242","9826.525"
"1243","9850.31"
"1244","9912.499"
"1245","9978.105"
"1246","10009.4"
"1247","9986.587"
"1248","9935.92"
"1249","9890.935"
"1250","9878.9"
"1251","9897.195"
"1252","9934.313"
"1253","9978.343"
"1254","10013.79"
"1255","10023.23"
"1256","9990.716"
"1257","9929.371"
"1258","9878.892"
"1259","9879.428"
"1260","9939.463"
"1261","10018.8"
"1262","10073.09"
"1263","10076.75"
"1264","10053.66"
"1265","10035.77"
"1266","10047.08"
"1267","10074.58"
"1268","10094.5"
"1269","10086.45"
"1270","10058.91"
"1271","10034.73"
"1272","10035.37"
"1273","10056.34"
"1274","10071.87"
"1275","10056.19"
"1276","10009.23"
"1277","9964.939"
"1278","9959.486"
"1279","10005.5"
"1280","10065.15"
"1281","10094.05"
"1282","10063.3"
"1283","9999.229"
"1284","9940.41"
"1285","9919.623"
"1286","9934.612"
"1287","9970.158"
"1288","10011.61"
"1289","10050.62"
"1290","10082.58"
"1291","10103.07"
"1292","10111.22"
"1293","10109.33"
"1294","10099.9"
"1295","10088.36"
"1296","10084.27"
"1297","10097.46"
"1298","10132.41"
"1299","10181.93"
"1300","10237.34"
"1301","10288.96"
"1302","10323.75"
"1303","10327.99"
"1304","10293.49"
"1305","10241.8"
"1306","10204.44"
"1307","10208.82"
"1308","10247.15"
"1309","10293.63"
"1310","10323.53"
"1311","10329.86"
"1312","10319.04"
"1313","10297.87"
"1314","10274.08"
"1315","10256.43"
"1316","10253.6"
"1317","10263.17"
"1318","10265.18"
"1319","10238.2"
"1320","10177.99"
"1321","10120.03"
"1322","10105.38"
"1323","10156.87"
"1324","10235.61"
"1325","10289.61"
"1326","10277.92"
"1327","10214.84"
"1328","10131.9"
"1329","10059.04"
"1330","10014.47"
"1331","10011.14"
"1332","10059.51"
"1333","10142.54"
"1334","10225.89"
"1335","10276.47"
"1336","10288.66"
"1337","10280.64"
"1338","10271.08"
"1339","10270.01"
"1340","10277.32"
"1341","10292.27"
"1342","10310.57"
"1343","10322.26"
"1344","10316.93"
"1345","10290.95"
"1346","10255.12"
"1347","10222.11"
"1348","10200.35"
"1349","10185.95"
"1350","10172.79"
"1351","10157.92"
"1352","10150.95"
"1353","10164.61"
"1354","10206.65"
"1355","10258.15"
"1356","10291.27"
"1357","10282.72"
"1358","10242.22"
"1359","10194.1"
"1360","10160.94"
"1361","10147.52"
"1362","10148.43"
"1363","10158.27"
"1364","10173.68"
"1365","10192.81"
"1366","10213.67"
"1367","10231.4"
"1368","10238.46"
"1369","10227.47"
"1370","10199.14"
"1371","10163.43"
"1372","10130.76"
"1373","10107.18"
"1374","10092.58"
"1375","10086.34"
"1376","10085.57"
"1377","10083.36"
"1378","10072.4"
"1379","10051.5"
"1380","10032.53"
"1381","10029.1"
"1382","10048.2"
"1383","10079.33"
"1384","10109.09"
"1385","10127.58"
"1386","10136.07"
"1387","10138.13"
"1388","10137.77"
"1389","10140.78"
"1390","10153.38"
"1391","10178.49"
"1392","10203.27"
"1393","10210.17"
"1394","10185.65"
"1395","10138.84"
"1396","10086.93"
"1397","10046.15"
"1398","10026"
"1399","10033.17"
"1400","10071.79"
"1401","10125.23"
"1402","10166.8"
"1403","10173.07"
"1404","10152.16"
"1405","10129.67"
"1406","10128.9"
"1407","10144.71"
"1408","10154.08"
"1409","10135.99"
"1410","10099.76"
"1411","10076.14"
"1412","10093.95"
"1413","10145.02"
"1414","10192.06"
"1415","10199.05"
"1416","10167.32"
"1417","10130.65"
"1418","10122.46"
"1419","10145.92"
"1420","10175.42"
"1421","10185.13"
"1422","10170.6"
"1423","10149.47"
"1424","10140.04"
"1425","10150.56"
"1426","10178.18"
"1427","10219.41"
"1428","10270.35"
"1429","10326.57"
"1430","10383.62"
"1431","10438.15"
"1432","10488.2"
"1433","10531.85"
"1434","10565.34"
"1435","10582.5"
"1436","10577.3"
"1437","10556.78"
"1438","10545.89"
"1439","10570.4"
"1440","10630.57"
"1441","10690.45"
"1442","10711.85"
"1443","10684.65"
"1444","10639.56"
"1445","10610.21"
"1446","10612.55"
"1447","10636.3"
"1448","10669.04"
"1449","10697.45"
"1450","10706.83"
"1451","10682.63"
"1452","10626.2"
"1453","10562.57"
"1454","10518.44"
"1455","10505"
"1456","10510.3"
"1457","10520.6"
"1458","10523.74"
"1459","10509.98"
"1460","10470"
"1461","10407.52"
"1462","10344.89"
"1463","10305.41"
"1464","10291.95"
"1465","10279.03"
"1466","10239.73"
"1467","10171.68"
"1468","10105.16"
"1469","10071.99"
"1470","10076.23"
"1471","10086.83"
"1472","10071.18"
"1473","10020.37"
"1474","9953.86"
"1475","9892.613"
"1476","9851.827"
"1477","9840.218"
"1478","9865.262"
"1479","9911.948"
"1480","9941.732"
"1481","9916.848"
"1482","9841.287"
"1483","9759.432"
"1484","9715.579"
"1485","9720.855"
"1486","9757.008"
"1487","9804.89"
"1488","9847.797"
"1489","9870.97"
"1490","9861.001"
"1491","9822.292"
"1492","9772.186"
"1493","9727.535"
"1494","9695.877"
"1495","9678.697"
"1496","9676.582"
"1497","9682.087"
"1498","9683.164"
"1499","9669.638"
"1500","9647.784"
"1501","9632.146"
"1502","9634.765"
"1503","9649.229"
"1504","9661.089"
"1505","9658.607"
"1506","9646.687"
"1507","9636.435"
"1508","9636.083"
"1509","9639.235"
"1510","9634.877"
"1511","9614.959"
"1512","9583.922"
"1513","9549.498"
"1514","9520.058"
"1515","9506.153"
"1516","9518.811"
"1517","9558.597"
"1518","9596.152"
"1519","9596.858"
"1520","9548.72"
"1521","9492.763"
"1522","9477.375"
"1523","9519.263"
"1524","9574.45"
"1525","9592.594"
"1526","9555.106"
"1527","9492.99"
"1528","9441.104"
"1529","9416.281"
"1530","9412.511"
"1531","9422.49"
"1532","9443.661"
"1533","9478.312"
"1534","9528.237"
"1535","9583.52"
"1536","9624.597"
"1537","9632.971"
"1538","9606.224"
"1539","9552.43"
"1540","9481.207"
"1541","9413.862"
"1542","9377.679"
"1543","9392.954"
"1544","9434.933"
"1545","9461.136"
"1546","9439.3"
"1547","9386.003"
"1548","9332.347"
"1549","9301.625"
"1550","9289.55"
"1551","9285.754"
"1552","9285.059"
"1553","9295.822"
"1554","9328.482"
"1555","9380.139"
"1556","9421.95"
"1557","9422.573"
"1558","9377.081"
"1559","9318.93"
"1560","9283.522"
"1561","9276.484"
"1562","9271.142"
"1563","9240.92"
"1564","9187.449"
"1565","9135.056"
"1566","9106.449"
"1567","9100.638"
"1568","9102.633"
"1569","9099.164"
"1570","9090.208"
"1571","9081.349"
"1572","9077.214"
"1573","9077.69"
"1574","9081.261"
"1575","9087.61"
"1576","9100.355"
"1577","9123.876"
"1578","9154.678"
"1579","9171.553"
"1580","9151.206"
"1581","9092.839"
"1582","9031.008"
"1583","9002.449"
"1584","9017.513"
"1585","9057.489"
"1586","9102.501"
"1587","9137.967"
"1588","9153.38"
"1589","9140.698"
"1590","9113.174"
"1591","9095.329"
"1592","9105.568"
"1593","9126.822"
"1594","9129.487"
"1595","9094.865"
"1596","9044.319"
"1597","9008.359"
"1598","9007.988"
"1599","9041.646"
"1600","9104.323"
"1601","9180.192"
"1602","9236.533"
"1603","9240.323"
"1604","9188.271"
"1605","9107.978"
"1606","9027.812"
"1607","8967.128"
"1608","8939.09"
"1609","8953.933"
"1610","9001.239"
"1611","9061.419"
"1612","9114.724"
"1613","9141.049"
"1614","9120.201"
"1615","9051.662"
"1616","8988.046"
"1617","8990.315"
"1618","9075.349"
"1619","9185.681"
"1620","9258.169"
"1621","9270.026"
"1622","9241.64"
"1623","9194.759"
"1624","9141.473"
"1625","9087.353"
"1626","9038.769"
"1627","9008.308"
"1628","9011.152"
"1629","9053.297"
"1630","9104.681"
"1631","9126.481"
"1632","9102.586"
"1633","9068.952"
"1634","9068.046"
"1635","9106.092"
"1636","9139.234"
"1637","9122.995"
"1638","9066.008"
"1639","9021.662"
"1640","9038.025"
"1641","9105.623"
"1642","9185.948"
"1643","9246.033"
"1644","9279.669"
"1645","9288.367"
"1646","9278.894"
"1647","9271.512"
"1648","9288.31"
"1649","9332.769"
"1650","9380.812"
"1651","9407.207"
"1652","9406.835"
"1653","9392.081"
"1654","9375.388"
"1655","9364.671"
"1656","9365.574"
"1657","9380.115"
"1658","9394.407"
"1659","9390.198"
"1660","9357.894"
"1661","9308.355"
"1662","9255.396"
"1663","9211.946"
"1664","9189.775"
"1665","9198.801"
"1666","9223.374"
"1667","9228.738"
"1668","9188.027"
"1669","9130.421"
"1670","9108.127"
"1671","9151.65"
"1672","9217.3"
"1673","9245.913"
"1674","9211.201"
"1675","9145.773"
"1676","9087.394"
"1677","9051.377"
"1678","9031.055"
"1679","9018.482"
"1680","9002.658"
"1681","8970.936"
"1682","8918.536"
"1683","8874.836"
"1684","8878.327"
"1685","8935.183"
"1686","8981.407"
"1687","8946.145"
"1688","8830.606"
"1689","8718.259"
"1690","8688.852"
"1691","8733.452"
"1692","8789.612"
"1693","8805.539"
"1694","8785.02"
"1695","8748.608"
"1696","8710.489"
"1697","8669.938"
"1698","8624.364"
"1699","8579.151"
"1700","8549.147"
"1701","8547.887"
"1702","8568.653"
"1703","8592.383"
"1704","8603.423"
"1705","8603.198"
"1706","8598.159"
"1707","8591.122"
"1708","8576.828"
"1709","8549.435"
"1710","8516.725"
"1711","8501.437"
"1712","8522.419"
"1713","8554.614"
"1714","8548.973"
"1715","8476.935"
"1716","8394.218"
"1717","8377.44"
"1718","8447.132"
"1719","8519.297"
"1720","8503.537"
"1721","8409.669"
"1722","8338.359"
"1723","8374.73"
"1724","8469.159"
"1725","8513.705"
"1726","8446.501"
"1727","8347.408"
"1728","8321.755"
"1729","8398.261"
"1730","8498.226"
"1731","8540.409"
"1732","8512.21"
"1733","8446.771"
"1734","8377.129"
"1735","8331.5"
"1736","8336.548"
"1737","8392.821"
"1738","8447.156"
"1739","8442.628"
"1740","8384.572"
"1741","8337.371"
"1742","8357.172"
"1743","8424.739"
"1744","8488.37"
"1745","8512.481"
"1746","8508.357"
"1747","8495.407"
"1748","8483.086"
"1749","8468.255"
"1750","8447.832"
"1751","8427.254"
"1752","8416.826"
"1753","8422.31"
"1754","8431.924"
"1755","8429.867"
"1756","8410.665"
"1757","8385.212"
"1758","8365.338"
"1759","8355.832"
"1760","8356.539"
"1761","8366.592"
"1762","8382.246"
"1763","8398.905"
"1764","8411.224"
"1765","8412.464"
"1766","8396.186"
"1767","8363.376"
"1768","8321.025"
"1769","8276.963"
"1770","8242.449"
"1771","8229.885"
"1772","8246.023"
"1773","8285.864"
"1774","8342.359"
"1775","8398.09"
"1776","8426.563"
"1777","8406.379"
"1778","8347.396"
"1779","8270.663"
"1780","8200.381"
"1781","8167.446"
"1782","8201.151"
"1783","8283.13"
"1784","8352.694"
"1785","8358.759"
"1786","8314.146"
"1787","8254.302"
"1788","8206.201"
"1789","8178.878"
"1790","8178.212"
"1791","8194.193"
"1792","8203.34"
"1793","8188.583"
"1794","8169.231"
"1795","8176.426"
"1796","8221.661"
"1797","8278.739"
"1798","8318.465"
"1799","8331.141"
"1800","8321.902"
"1801","8295.833"
"1802","8256.058"
"1803","8205.292"
"1804","8156.297"
"1805","8138.297"
"1806","8177.736"
"1807","8250.778"
"1808","8301.346"
"1809","8287.238"
"1810","8219.396"
"1811","8121.233"
"1812","8028.271"
"1813","7992.047"
"1814","8053.979"
"1815","8159.287"
"1816","8204.642"
"1817","8137.821"
"1818","8048.979"
"1819","8048.437"
"1820","8143.444"
"1821","8237.024"
"1822","8245.076"
"1823","8188.818"
"1824","8128.104"
"1825","8096.822"
"1826","8077.424"
"1827","8048.331"
"1828","8015.666"
"1829","8005.658"
"1830","8034.909"
"1831","8079.977"
"1832","8107.853"
"1833","8102.312"
"1834","8069.721"
"1835","8019.516"
"1836","7972.864"
"1837","7956.613"
"1838","7984.183"
"1839","8035.399"
"1840","8085.593"
"1841","8123.066"
"1842","8147.443"
"1843","8158.477"
"1844","8154.757"
"1845","8134.663"
"1846","8103.5"
"1847","8077.065"
"1848","8070.46"
"1849","8084.203"
"1850","8111.094"
"1851","8141.879"
"1852","8162.115"
"1853","8157.095"
"1854","8123.803"
"1855","8069.621"
"1856","8007.125"
"1857","7971.08"
"1858","8001.861"
"1859","8095.371"
"1860","8183.271"
"1861","8201.908"
"1862","8167.618"
"1863","8135.532"
"1864","8140.012"
"1865","8166.332"
"1866","8192.79"
"1867","8198.187"
"1868","8161.689"
"1869","8076.201"
"1870","7986.37"
"1871","7947.854"
"1872","7976.561"
"1873","8042.061"
"1874","8112.127"
"1875","8160.028"
"1876","8161.323"
"1877","8118.726"
"1878","8082.01"
"1879","8098.968"
"1880","8151.891"
"1881","8186.518"
"1882","8172.705"
"1883","8143.217"
"1884","8138.014"
"1885","8152.491"
"1886","8146.392"
"1887","8093.756"
"1888","8026.215"
"1889","7987.937"
"1890","7994.161"
"1891","8028.032"
"1892","8069.379"
"1893","8089.445"
"1894","8057.227"
"1895","7980.322"
"1896","7924.277"
"1897","7947.699"
"1898","8018.904"
"1899","8064.942"
"1900","8046.75"
"1901","7993.521"
"1902","7941.819"
"1903","7919.413"
"1904","7948.76"
"1905","8028.867"
"1906","8097.736"
"1907","8088.624"
"1908","8013.367"
"1909","7944.24"
"1910","7934.799"
"1911","7970.206"
"1912","8021.626"
"1913","8067.979"
"1914","8095.541"
"1915","8092.08"
"1916","8050.632"
"1917","7966.846"
"1918","7873.382"
"1919","7845.177"
"1920","7933.364"
"1921","8054.271"
"1922","8083.159"
"1923","7990.97"
"1924","7877.162"
"1925","7834.902"
"1926","7862.331"
"1927","7921.771"
"1928","7975.77"
"1929","7987.418"
"1930","7931.604"
"1931","7866.837"
"1932","7886.813"
"1933","8005.48"
"1934","8099.272"
"1935","8052.062"
"1936","7917.905"
"1937","7831.652"
"1938","7859.118"
"1939","7935.203"
"1940","7986.821"
"1941","7998.872"
"1942","7986.067"
"1943","7959.722"
"1944","7923.82"
"1945","7882.475"
"1946","7848.867"
"1947","7840.963"
"1948","7854.356"
"1949","7838.242"
"1950","7746.435"
"1951","7632.88"
"1952","7606.604"
"1953","7705.05"
"1954","7814.511"
"1955","7817.403"
"1956","7742.397"
"1957","7698.444"
"1958","7730.898"
"1959","7752.37"
"1960","7675.119"
"1961","7559.608"
"1962","7544.999"
"1963","7672.296"
"1964","7787.399"
"1965","7737.327"
"1966","7577.29"
"1967","7467.262"
"1968","7487.289"
"1969","7568.46"
"1970","7632.431"
"1971","7653.462"
"1972","7630.509"
"1973","7580.23"
"1974","7548.673"
"1975","7573.741"
"1976","7617.692"
"1977","7611.981"
"1978","7536.607"
"1979","7444.146"
"1980","7384.155"
"1981","7352.806"
"1982","7327.563"
"1983","7312.875"
"1984","7348.175"
"1985","7456.072"
"1986","7564.634"
"1987","7575.897"
"1988","7479.581"
"1989","7361.89"
"1990","7297.144"
"1991","7291.055"
"1992","7331.658"
"1993","7397.655"
"1994","7459.221"
"1995","7487.604"
"1996","7458.823"
"1997","7354.758"
"1998","7227.106"
"1999","7178.937"
"2000","7251.661"
"2001","7329.664"
"2002","7289.461"
"2003","7174.558"
"2004","7124.556"
"2005","7197.972"
"2006","7295.694"
"2007","7317.235"
"2008","7283.086"
"2009","7266.107"
"2010","7293.301"
"2011","7324.997"
"2012","7322.692"
"2013","7281.453"
"2014","7208.117"
"2015","7135.446"
"2016","7124.002"
"2017","7206.094"
"2018","7306.34"
"2019","7330.386"
"2020","7270.056"
"2021","7184.302"
"2022","7118.309"
"2023","7078.122"
"2024","7063.314"
"2025","7068.763"
"2026","7086.636"
"2027","7100.106"
"2028","7077.041"
"2029","6995.654"
"2030","6905.401"
"2031","6880.167"
"2032","6930.57"
"2033","6993.395"
"2034","7020.63"
"2035","7038.454"
"2036","7086.631"
"2037","7142.758"
"2038","7136.114"
"2039","7040.573"
"2040","6939.721"
"2041","6920.895"
"2042","6965.248"
"2043","7001.219"
"2044","6996.83"
"2045","6980.515"
"2046","6981.227"
"2047","7005.417"
"2048","7051.622"
"2049","7097.033"
"2050","7098.611"
"2051","7036.316"
"2052","6958.585"
"2053","6920.027"
"2054","6912.416"
"2055","6891.347"
"2056","6837.308"
"2057","6773.629"
"2058","6724.453"
"2059","6695.65"
"2060","6686.999"
"2061","6698.893"
"2062","6732.343"
"2063","6777.276"
"2064","6791.076"
"2065","6734.77"
"2066","6666.786"
"2067","6700.32"
"2068","6843.208"
"2069","6930.85"
"2070","6831.294"
"2071","6657.812"
"2072","6592.429"
"2073","6655.84"
"2074","6722.084"
"2075","6707.081"
"2076","6648.664"
"2077","6599.965"
"2078","6579.972"
"2079","6590.663"
"2080","6622.848"
"2081","6652.382"
"2082","6662.336"
"2083","6668.656"
"2084","6693.112"
"2085","6726.186"
"2086","6736.066"
"2087","6709.229"
"2088","6668.52"
"2089","6634.976"
"2090","6594.804"
"2091","6523.542"
"2092","6437.488"
"2093","6392.908"
"2094","6424.276"
"2095","6503.467"
"2096","6591.722"
"2097","6648.496"
"2098","6633.462"
"2099","6551.366"
"2100","6464.387"
"2101","6425.956"
"2102","6445.207"
"2103","6517.592"
"2104","6594.619"
"2105","6601.756"
"2106","6532.125"
"2107","6486.284"
"2108","6539.645"
"2109","6615.326"
"2110","6602.282"
"2111","6496.66"
"2112","6373.352"
"2113","6286.346"
"2114","6247.028"
"2115","6255.391"
"2116","6276.456"
"2117","6267.628"
"2118","6249.739"
"2119","6296.389"
"2120","6425.377"
"2121","6534.195"
"2122","6526.67"
"2123","6432.066"
"2124","6323.37"
"2125","6251.421"
"2126","6246.852"
"2127","6302.236"
"2128","6326.84"
"2129","6241.562"
"2130","6108.109"
"2131","6036.747"
"2132","6047.939"
"2133","6078.647"
"2134","6089.071"
"2135","6099.354"
"2136","6128.923"
"2137","6143.012"
"2138","6089.774"
"2139","5980.34"
"2140","5883.088"
"2141","5845.885"
"2142","5867.214"
"2143","5931.676"
"2144","5982.224"
"2145","5952.35"
"2146","5868.678"
"2147","5836.451"
"2148","5903.331"
"2149","5997.75"
"2150","6047.206"
"2151","6045.992"
"2152","6009.493"
"2153","5956.559"
"2154","5908.479"
"2155","5872.494"
"2156","5831.523"
"2157","5774.562"
"2158","5726.412"
"2159","5718.755"
"2160","5753.541"
"2161","5813.493"
"2162","5864"
"2163","5846.274"
"2164","5735.847"
"2165","5629.593"
"2166","5633.625"
"2167","5713.22"
"2168","5764.794"
"2169","5760.141"
"2170","5756.642"
"2171","5785.048"
"2172","5796.682"
"2173","5742.167"
"2174","5645.471"
"2175","5557.613"
"2176","5511.896"
"2177","5526.129"
"2178","5582.314"
"2179","5597.14"
"2180","5508.144"
"2181","5373.874"
"2182","5280.912"
"2183","5265.136"
"2184","5330.416"
"2185","5438.907"
"2186","5499.073"
"2187","5458.221"
"2188","5385.42"
"2189","5355.961"
"2190","5340.258"
"2191","5270.915"
"2192","5181.353"
"2193","5193.134"
"2194","5335.746"
"2195","5463.145"
"2196","5458.25"
"2197","5402.083"
"2198","5411.932"
"2199","5460.651"
"2200","5442.481"
"2201","5346.083"
"2202","5270.884"
"2203","5270.874"
"2204","5274.552"
"2205","5214.984"
"2206","5151.282"
"2207","5174.055"
"2208","5230.298"
"2209","5168.739"
"2210","4982.9"
"2211","4874.093"
"2212","4967.554"
"2213","5117.948"
"2214","5158.032"
"2215","5101.317"
"2216","5031.214"
"2217","4999.833"
"2218","5033.166"
"2219","5104.11"
"2220","5102.662"
"2221","4969.86"
"2222","4837.297"
"2223","4847.115"
"2224","4940.556"
"2225","4978.33"
"2226","4922.932"
"2227","4823.367"
"2228","4726.895"
"2229","4673.291"
"2230","4686.559"
"2231","4740.716"
"2232","4799.352"
"2233","4825.818"
"2234","4786.096"
"2235","4693.534"
"2236","4600.235"
"2237","4544.898"
"2238","4543.437"
"2239","4594.037"
"2240","4646.949"
"2241","4651.413"
"2242","4608.186"
"2243","4538.632"
"2244","4475.169"
"2245","4457.443"
"2246","4485.254"
"2247","4503.99"
"2248","4486.138"
"2249","4484.044"
"2250","4537.777"
"2251","4559.717"
"2252","4437.744"
"2253","4234.745"
"2254","4115.237"
"2255","4119.944"
"2256","4151.855"
"2257","4145.543"
"2258","4113.565"
"2259","4067.354"
"2260","3978.468"
"2261","3820.159"
"2262","3650.884"
"2263","3563.05"
"2264","3563.658"
"2265","3589.43"
"2266","3593.4"
"2267","3555.667"
"2268","3486.393"
"2269","3469.453"
"2270","3564.651"
"2271","3650.787"
"2272","3572.595"
"2273","3396.759"
"2274","3308.423"
"2275","3323.572"
"2276","3290.84"
"2277","3162.813"
"2278","3082.554"
"2279","3136.483"
"2280","3179.656"
"2281","3063.777"
"2282","2873.823"
"2283","2764.258"
"2284","2749.484"
"2285","2758.797"
"2286","2759.634"
"2287","2760.686"
"2288","2760.013"
"2289","2733.347"
"2290","2669.387"
"2291","2604.261"
"2292","2565.462"
"2293","2480.787"
"2294","2263.841"
"2295","2042.887"
"2296","2061.869"
"2297","2282.025"
"2298","2386.096"
"2299","2242.837"
"2300","2044.245"
