,"Scan 01159"
"400","9701.968"
"401","9670.519"
"402","9635.515"
"403","9601.376"
"404","9575.918"
"405","9568.02"
"406","9586.484"
"407","9637.906"
"408","9711.399"
"409","9787.709"
"410","9847.661"
"411","9873.672"
"412","9867.016"
"413","9842.065"
"414","9813.362"
"415","9794.838"
"416","9789.108"
"417","9787.776"
"418","9782.037"
"419","9763.299"
"420","9729.462"
"421","9687.118"
"422","9643.436"
"423","9605.51"
"424","9578.511"
"425","9564.102"
"426","9563.556"
"427","9578.135"
"428","9605.382"
"429","9633.588"
"430","9649.688"
"431","9640.712"
"432","9599.681"
"433","9539.649"
"434","9477.818"
"435","9431.265"
"436","9413.086"
"437","9418.772"
"438","9438.895"
"439","9464.086"
"440","9486.35"
"441","9505.55"
"442","9524.442"
"443","9545.758"
"444","9571.402"
"445","9596.94"
"446","9614.996"
"447","9618.226"
"448","9600.354"
"449","9565.472"
"450","9523.652"
"451","9484.965"
"452","9458.687"
"453","9444.424"
"454","9435.02"
"455","9423.22"
"456","9402.227"
"457","9372.157"
"458","9338.879"
"459","9308.397"
"460","9286.512"
"461","9275.168"
"462","9272.58"
"463","9276.813"
"464","9285.91"
"465","9296.744"
"466","9304.89"
"467","9305.876"
"468","9295.401"
"469","9274.102"
"470","9248.851"
"471","9226.901"
"472","9215.316"
"473","9215.214"
"474","9219.312"
"475","9219.739"
"476","9208.806"
"477","9186.492"
"478","9164.638"
"479","9156.035"
"480","9173.238"
"481","9216.63"
"482","9266.291"
"483","9300.467"
"484","9297.711"
"485","9252.412"
"486","9187.073"
"487","9126.975"
"488","9097.105"
"489","9107.75"
"490","9141.852"
"491","9179.459"
"492","9200.817"
"493","9195.069"
"494","9168.387"
"495","9128.838"
"496","9084.43"
"497","9041.256"
"498","9001.737"
"499","8967.853"
"500","8941.542"
"501","8922.011"
"502","8903.113"
"503","8878.119"
"504","8840.376"
"505","8787.406"
"506","8724.693"
"507","8658.583"
"508","8595.376"
"509","8539.494"
"510","8491.939"
"511","8453.332"
"512","8424.271"
"513","8403.406"
"514","8385.947"
"515","8366.783"
"516","8340.903"
"517","8308.321"
"518","8277.343"
"519","8257.003"
"520","8256.148"
"521","8275.154"
"522","8301.496"
"523","8321.634"
"524","8322.331"
"525","8301.008"
"526","8269.851"
"527","8242.075"
"528","8230.48"
"529","8235.345"
"530","8241.365"
"531","8232.341"
"532","8192.79"
"533","8125.051"
"534","8051.101"
"535","7993.817"
"536","7974.99"
"537","7995.248"
"538","8034.885"
"539","8073.456"
"540","8091.569"
"541","8085.794"
"542","8065.896"
"543","8042"
"544","8023.659"
"545","8013.652"
"546","8010.016"
"547","8010.69"
"548","8013.775"
"549","8018.824"
"550","8026.25"
"551","8036.472"
"552","8049.417"
"553","8061.14"
"554","8065.862"
"555","8057.818"
"556","8032.85"
"557","7996.521"
"558","7958.081"
"559","7926.737"
"560","7910.17"
"561","7908.987"
"562","7921.688"
"563","7946.785"
"564","7981.239"
"565","8016.387"
"566","8042.329"
"567","8049.214"
"568","8032.643"
"569","8003.013"
"570","7973.187"
"571","7955.91"
"572","7956.408"
"573","7964.537"
"574","7968.32"
"575","7955.996"
"576","7925.821"
"577","7891.377"
"578","7867.502"
"579","7868.49"
"580","7894.62"
"581","7930.182"
"582","7958.658"
"583","7964.424"
"584","7946.215"
"585","7914.829"
"586","7881.393"
"587","7856.21"
"588","7841.104"
"589","7832.741"
"590","7827.726"
"591","7823.184"
"592","7819.825"
"593","7819.885"
"594","7825.603"
"595","7838.483"
"596","7856.636"
"597","7877.191"
"598","7897.288"
"599","7914.685"
"600","7929.053"
"601","7940.43"
"602","7948.849"
"603","7953.743"
"604","7953.302"
"605","7945.563"
"606","7928.636"
"607","7903.144"
"608","7873.203"
"609","7843.167"
"610","7817.384"
"611","7800.381"
"612","7796.849"
"613","7811.465"
"614","7847.649"
"615","7895.27"
"616","7935.936"
"617","7951.196"
"618","7926.984"
"619","7876.653"
"620","7824.197"
"621","7793.555"
"622","7800.275"
"623","7828.166"
"624","7853.547"
"625","7852.875"
"626","7815.862"
"627","7762.64"
"628","7717.532"
"629","7704.415"
"630","7729.741"
"631","7775.279"
"632","7820.983"
"633","7847.742"
"634","7852.639"
"635","7846.984"
"636","7842.541"
"637","7849.794"
"638","7867.816"
"639","7889.587"
"640","7908.05"
"641","7917.221"
"642","7916.37"
"643","7906.401"
"644","7888.208"
"645","7863.578"
"646","7836.743"
"647","7812.351"
"648","7794.991"
"649","7786.613"
"650","7785.005"
"651","7787.594"
"652","7791.797"
"653","7794.807"
"654","7793.595"
"655","7785.143"
"656","7767.445"
"657","7747.554"
"658","7737.271"
"659","7748.407"
"660","7788.868"
"661","7848.907"
"662","7913.778"
"663","7968.798"
"664","8003.688"
"665","8018.581"
"666","8015.139"
"667","7995.059"
"668","7962.041"
"669","7922.363"
"670","7882.464"
"671","7848.657"
"672","7825.946"
"673","7818.386"
"674","7830.008"
"675","7862.492"
"676","7903.363"
"677","7934.881"
"678","7939.348"
"679","7908.683"
"680","7863.153"
"681","7828.198"
"682","7828.854"
"683","7870.724"
"684","7930.198"
"685","7981.305"
"686","7999.737"
"687","7986.22"
"688","7961.205"
"689","7945.621"
"690","7956.538"
"691","7986.212"
"692","8017.037"
"693","8031.432"
"694","8018.814"
"695","7989.503"
"696","7957.7"
"697","7937.408"
"698","7934.42"
"699","7942.613"
"700","7954.928"
"701","7964.499"
"702","7966.8"
"703","7959.014"
"704","7938.367"
"705","7904.197"
"706","7867.611"
"707","7843.779"
"708","7847.821"
"709","7884.781"
"710","7934.696"
"711","7973.832"
"712","7979.176"
"713","7948.954"
"714","7906.283"
"715","7875.661"
"716","7878.698"
"717","7909.527"
"718","7946.934"
"719","7969.572"
"720","7962.99"
"721","7939.815"
"722","7919.332"
"723","7920.61"
"724","7948.583"
"725","7983.818"
"726","8004.514"
"727","7990.459"
"728","7946.046"
"729","7895.235"
"730","7862.489"
"731","7867.824"
"732","7906.218"
"733","7963.831"
"734","8026.845"
"735","8083.386"
"736","8126.075"
"737","8148.167"
"738","8143.374"
"739","8115.926"
"740","8080.821"
"741","8053.523"
"742","8047.297"
"743","8059.301"
"744","8079.483"
"745","8097.776"
"746","8106.634"
"747","8105.696"
"748","8095.873"
"749","8078.223"
"750","8058.483"
"751","8048.017"
"752","8058.498"
"753","8099.05"
"754","8156.755"
"755","8207.394"
"756","8226.691"
"757","8201.649"
"758","8155.178"
"759","8117.317"
"760","8117.432"
"761","8160.977"
"762","8222.707"
"763","8275.399"
"764","8294.935"
"765","8285.276"
"766","8265.379"
"767","8254.307"
"768","8263.701"
"769","8281.316"
"770","8290.115"
"771","8273.591"
"772","8233.545"
"773","8194.795"
"774","8183.604"
"775","8222.091"
"776","8297.24"
"777","8378.235"
"778","8434.166"
"779","8446.028"
"780","8429.866"
"781","8408.13"
"782","8402.714"
"783","8420.051"
"784","8449.117"
"785","8477.965"
"786","8496.071"
"787","8503.113"
"788","8503.257"
"789","8500.666"
"790","8498.244"
"791","8495.783"
"792","8492.606"
"793","8488.22"
"794","8485.869"
"795","8492.277"
"796","8514.297"
"797","8555.849"
"798","8604.578"
"799","8642.529"
"800","8651.873"
"801","8627.782"
"802","8590.009"
"803","8561.021"
"804","8561.581"
"805","8590.113"
"806","8629.216"
"807","8661.174"
"808","8672.661"
"809","8667.556"
"810","8653.952"
"811","8639.906"
"812","8632.187"
"813","8635.831"
"814","8655.748"
"815","8695.178"
"816","8743.643"
"817","8783.921"
"818","8798.789"
"819","8780.468"
"820","8745.329"
"821","8713.539"
"822","8704.321"
"823","8719.192"
"824","8743.724"
"825","8762.929"
"826","8765.348"
"827","8756.763"
"828","8748.232"
"829","8750.688"
"830","8767.489"
"831","8790.061"
"832","8808.775"
"833","8814.995"
"834","8809.371"
"835","8797.668"
"836","8785.702"
"837","8778.204"
"838","8776.915"
"839","8783.07"
"840","8797.687"
"841","8817.468"
"842","8835.138"
"843","8843.274"
"844","8836.82"
"845","8822.104"
"846","8808.867"
"847","8806.725"
"848","8818.209"
"849","8835.311"
"850","8849.172"
"851","8852.424"
"852","8850.194"
"853","8853.817"
"854","8874.645"
"855","8916.592"
"856","8965.985"
"857","9006.603"
"858","9023.271"
"859","9016.54"
"860","8999.116"
"861","8984.016"
"862","8981.493"
"863","8991.431"
"864","9011.27"
"865","9038.353"
"866","9066.917"
"867","9087.621"
"868","9090.933"
"869","9070.528"
"870","9038.856"
"871","9015.173"
"872","9018.555"
"873","9054.914"
"874","9108.173"
"875","9160.163"
"876","9194.427"
"877","9209.887"
"878","9213.607"
"879","9212.724"
"880","9212.095"
"881","9211.177"
"882","9208.627"
"883","9203.324"
"884","9197.131"
"885","9194.121"
"886","9198.419"
"887","9212.2"
"888","9231.095"
"889","9249.362"
"890","9261.646"
"891","9271.398"
"892","9290.814"
"893","9332.465"
"894","9402.765"
"895","9479.586"
"896","9532.533"
"897","9531.931"
"898","9476.133"
"899","9399.827"
"900","9340.123"
"901","9328.164"
"902","9357.893"
"903","9408.927"
"904","9460.945"
"905","9499.782"
"906","9521.468"
"907","9522.98"
"908","9503.027"
"909","9474.519"
"910","9457.339"
"911","9471.332"
"912","9523.146"
"913","9592.161"
"914","9654.372"
"915","9687.901"
"916","9693.503"
"917","9685.62"
"918","9678.875"
"919","9680.614"
"920","9679.804"
"921","9662.549"
"922","9616.766"
"923","9555.002"
"924","9507.629"
"925","9505.402"
"926","9564.223"
"927","9655.073"
"928","9740.482"
"929","9784.694"
"930","9781.48"
"931","9749.408"
"932","9707.818"
"933","9672.879"
"934","9649.538"
"935","9640.272"
"936","9647.38"
"937","9669.49"
"938","9701.728"
"939","9739.078"
"940","9776.621"
"941","9809.806"
"942","9834.179"
"943","9845.366"
"944","9841.178"
"945","9821.713"
"946","9787.186"
"947","9739.971"
"948","9692.073"
"949","9658.18"
"950","9652.513"
"951","9675.53"
"952","9712.015"
"953","9745.9"
"954","9763.73"
"955","9764.618"
"956","9751.456"
"957","9727.208"
"958","9697.462"
"959","9670.947"
"960","9656.585"
"961","9660.705"
"962","9676.521"
"963","9693.104"
"964","9699.798"
"965","9695.793"
"966","9692.518"
"967","9702.175"
"968","9733.045"
"969","9772.985"
"970","9803.238"
"971","9805.539"
"972","9779.771"
"973","9748.691"
"974","9736.525"
"975","9760.766"
"976","9803.799"
"977","9836.611"
"978","9830.905"
"979","9784.736"
"980","9729.084"
"981","9697.018"
"982","9713.868"
"983","9765.429"
"984","9824.921"
"985","9866.033"
"986","9879.151"
"987","9874.923"
"988","9865.226"
"989","9860.298"
"990","9862.351"
"991","9871.153"
"992","9886.344"
"993","9903.481"
"994","9913.407"
"995","9906.694"
"996","9878.238"
"997","9842.724"
"998","9820.496"
"999","9831.196"
"1000","9875.429"
"1001","9933.153"
"1002","9983.282"
"1003","10009.17"
"1004","10012.78"
"1005","10000.98"
"1006","9980.644"
"1007","9959.155"
"1008","9945.193"
"1009","9947.646"
"1010","9973.852"
"1011","10015.09"
"1012","10053.14"
"1013","10069.77"
"1014","10057.69"
"1015","10031.23"
"1016","10007.25"
"1017","10000.54"
"1018","10010.3"
"1019","10028.58"
"1020","10047.5"
"1021","10062.54"
"1022","10074.31"
"1023","10083.8"
"1024","10092.15"
"1025","10101.17"
"1026","10112.91"
"1027","10129.38"
"1028","10151.96"
"1029","10181.37"
"1030","10218.24"
"1031","10261.23"
"1032","10301.5"
"1033","10328.48"
"1034","10332.33"
"1035","10314.25"
"1036","10284.15"
"1037","10252.14"
"1038","10226.84"
"1039","10213.08"
"1040","10215.17"
"1041","10236.8"
"1042","10276.38"
"1043","10329.47"
"1044","10391.55"
"1045","10453.32"
"1046","10497.69"
"1047","10506.87"
"1048","10469.35"
"1049","10408.15"
"1050","10358"
"1051","10352.42"
"1052","10394.12"
"1053","10453.44"
"1054","10499.22"
"1055","10510.78"
"1056","10501.51"
"1057","10491.68"
"1058","10499.9"
"1059","10524.67"
"1060","10551.38"
"1061","10565.25"
"1062","10559.95"
"1063","10545.13"
"1064","10532.25"
"1065","10531.22"
"1066","10542.18"
"1067","10561.59"
"1068","10585.84"
"1069","10610.45"
"1070","10629.98"
"1071","10638.92"
"1072","10634.4"
"1073","10622.13"
"1074","10609.64"
"1075","10603.8"
"1076","10604.34"
"1077","10606.45"
"1078","10605.3"
"1079","10599.79"
"1080","10595.36"
"1081","10598.08"
"1082","10612.64"
"1083","10636.12"
"1084","10663.1"
"1085","10688.28"
"1086","10708.92"
"1087","10724.68"
"1088","10735.29"
"1089","10739.59"
"1090","10734.07"
"1091","10714.85"
"1092","10679.42"
"1093","10636.3"
"1094","10599.3"
"1095","10582"
"1096","10587.84"
"1097","10607.33"
"1098","10630.16"
"1099","10648.8"
"1100","10665.67"
"1101","10685.4"
"1102","10711.75"
"1103","10738.84"
"1104","10754.84"
"1105","10747.94"
"1106","10718.25"
"1107","10684.9"
"1108","10668.75"
"1109","10684.31"
"1110","10717.74"
"1111","10747.39"
"1112","10753.07"
"1113","10736.21"
"1114","10714.29"
"1115","10705.11"
"1116","10716.13"
"1117","10735.59"
"1118","10749.66"
"1119","10747.87"
"1120","10737.15"
"1121","10729.9"
"1122","10737.53"
"1123","10754.73"
"1124","10762.61"
"1125","10741.96"
"1126","10691.18"
"1127","10643.5"
"1128","10636.37"
"1129","10696.05"
"1130","10789.77"
"1131","10865.3"
"1132","10873.44"
"1133","10816.63"
"1134","10739.57"
"1135","10688.09"
"1136","10687.32"
"1137","10722.08"
"1138","10772.52"
"1139","10820.31"
"1140","10854.89"
"1141","10868.11"
"1142","10852.77"
"1143","10816.12"
"1144","10776.35"
"1145","10751.84"
"1146","10750.76"
"1147","10763.39"
"1148","10778.19"
"1149","10786.6"
"1150","10792.94"
"1151","10805"
"1152","10829.7"
"1153","10863.27"
"1154","10895.06"
"1155","10914.37"
"1156","10917.38"
"1157","10910.18"
"1158","10899.71"
"1159","10893.2"
"1160","10899.11"
"1161","10926.15"
"1162","10980.58"
"1163","11047.53"
"1164","11101.39"
"1165","11117.28"
"1166","11094.22"
"1167","11057.98"
"1168","11035.71"
"1169","11041.41"
"1170","11056.55"
"1171","11057.66"
"1172","11027.3"
"1173","10983.23"
"1174","10955.97"
"1175","10973.84"
"1176","11029.82"
"1177","11088.89"
"1178","11115.56"
"1179","11099.31"
"1180","11071.33"
"1181","11066.76"
"1182","11107.37"
"1183","11165.43"
"1184","11201.77"
"1185","11182.89"
"1186","11124.66"
"1187","11068.37"
"1188","11054.18"
"1189","11088.21"
"1190","11140.47"
"1191","11179.29"
"1192","11188.29"
"1193","11184.3"
"1194","11188.58"
"1195","11217.22"
"1196","11262.05"
"1197","11307.73"
"1198","11339.67"
"1199","11352.18"
"1200","11345.06"
"1201","11318.42"
"1202","11280.37"
"1203","11248.82"
"1204","11242.27"
"1205","11268.05"
"1206","11306.08"
"1207","11332.16"
"1208","11327.91"
"1209","11305.19"
"1210","11285.61"
"1211","11288.9"
"1212","11312.71"
"1213","11340.36"
"1214","11355.29"
"1215","11352.63"
"1216","11341.98"
"1217","11333.76"
"1218","11333.87"
"1219","11337.29"
"1220","11337.42"
"1221","11330.09"
"1222","11322.74"
"1223","11326.29"
"1224","11350"
"1225","11386.02"
"1226","11416.52"
"1227","11424.24"
"1228","11410.12"
"1229","11394.64"
"1230","11399.19"
"1231","11434.1"
"1232","11487.91"
"1233","11546.55"
"1234","11597.58"
"1235","11634.57"
"1236","11652.53"
"1237","11647.5"
"1238","11623.32"
"1239","11587.33"
"1240","11547.09"
"1241","11513.03"
"1242","11497.93"
"1243","11514.37"
"1244","11561.37"
"1245","11618.44"
"1246","11663.62"
"1247","11681.77"
"1248","11675.38"
"1249","11649.71"
"1250","11611.71"
"1251","11576.33"
"1252","11560.94"
"1253","11580.15"
"1254","11623.9"
"1255","11668.88"
"1256","11692.78"
"1257","11694.76"
"1258","11693.64"
"1259","11708.67"
"1260","11743.48"
"1261","11777.6"
"1262","11788.52"
"1263","11765.14"
"1264","11726.46"
"1265","11696.37"
"1266","11693.65"
"1267","11713.01"
"1268","11742.16"
"1269","11769.61"
"1270","11790.27"
"1271","11802.33"
"1272","11804.21"
"1273","11798.53"
"1274","11791.3"
"1275","11788.56"
"1276","11792.45"
"1277","11799.97"
"1278","11807.8"
"1279","11813.56"
"1280","11817"
"1281","11818.12"
"1282","11817.26"
"1283","11815.96"
"1284","11816"
"1285","11818.84"
"1286","11823.93"
"1287","11829.98"
"1288","11835.34"
"1289","11834.91"
"1290","11821.52"
"1291","11788.68"
"1292","11744.47"
"1293","11710.28"
"1294","11707.72"
"1295","11742.54"
"1296","11798.33"
"1297","11857"
"1298","11906.44"
"1299","11947.5"
"1300","11982.72"
"1301","12011.11"
"1302","12019.61"
"1303","11992.61"
"1304","11921.44"
"1305","11834.81"
"1306","11773.91"
"1307","11774.33"
"1308","11823.41"
"1309","11883.78"
"1310","11919.99"
"1311","11926.89"
"1312","11922.25"
"1313","11923.9"
"1314","11935.71"
"1315","11946.25"
"1316","11943.45"
"1317","11924.3"
"1318","11900.21"
"1319","11883.86"
"1320","11883.16"
"1321","11895.06"
"1322","11914.99"
"1323","11937.98"
"1324","11957.71"
"1325","11967.59"
"1326","11963.09"
"1327","11949.89"
"1328","11936.91"
"1329","11931.95"
"1330","11934.77"
"1331","11941.5"
"1332","11948.93"
"1333","11961.44"
"1334","11988.15"
"1335","12037.57"
"1336","12105.43"
"1337","12176.43"
"1338","12235.18"
"1339","12275.18"
"1340","12300.36"
"1341","12315.2"
"1342","12322.66"
"1343","12323.28"
"1344","12317.4"
"1345","12306.18"
"1346","12292.56"
"1347","12279.68"
"1348","12268.65"
"1349","12254.55"
"1350","12231.39"
"1351","12195.88"
"1352","12155.46"
"1353","12120.18"
"1354","12098.93"
"1355","12094.11"
"1356","12105.96"
"1357","12132.84"
"1358","12159.54"
"1359","12164.86"
"1360","12130.82"
"1361","12071.93"
"1362","12021.34"
"1363","12009.85"
"1364","12032.91"
"1365","12060.11"
"1366","12061.92"
"1367","12038.29"
"1368","12016.26"
"1369","12023.03"
"1370","12059.1"
"1371","12094.36"
"1372","12097.52"
"1373","12063"
"1374","12021.78"
"1375","12007.41"
"1376","12031.15"
"1377","12065.05"
"1378","12077.3"
"1379","12054.27"
"1380","12021.65"
"1381","12010.23"
"1382","12035.27"
"1383","12070.9"
"1384","12084.5"
"1385","12058.74"
"1386","12025.93"
"1387","12028.4"
"1388","12091.54"
"1389","12173.81"
"1390","12217.12"
"1391","12179.32"
"1392","12094.26"
"1393","12018.39"
"1394","11997.89"
"1395","12020.26"
"1396","12052.23"
"1397","12065.07"
"1398","12061.29"
"1399","12056.42"
"1400","12062.98"
"1401","12069.05"
"1402","12050.88"
"1403","11988.8"
"1404","11902.7"
"1405","11834.4"
"1406","11822.11"
"1407","11860.55"
"1408","11917.09"
"1409","11960.32"
"1410","11981.22"
"1411","11986.5"
"1412","11983.19"
"1413","11977.28"
"1414","11973.98"
"1415","11978.25"
"1416","11990.76"
"1417","12008.49"
"1418","12028.08"
"1419","12041.69"
"1420","12037.24"
"1421","12003.41"
"1422","11951.49"
"1423","11916.06"
"1424","11931.61"
"1425","11998.87"
"1426","12081.17"
"1427","12140.59"
"1428","12161.1"
"1429","12152.62"
"1430","12126.64"
"1431","12095.94"
"1432","12074.94"
"1433","12077.84"
"1434","12104.64"
"1435","12136.69"
"1436","12154.32"
"1437","12150.42"
"1438","12135.11"
"1439","12119.78"
"1440","12116.65"
"1441","12139.12"
"1442","12200.22"
"1443","12290.78"
"1444","12369.19"
"1445","12391.93"
"1446","12349.4"
"1447","12282.36"
"1448","12235.2"
"1449","12230.16"
"1450","12256.29"
"1451","12299.82"
"1452","12342.41"
"1453","12358.89"
"1454","12323.97"
"1455","12237.29"
"1456","12135.53"
"1457","12057.95"
"1458","12022.45"
"1459","12015.71"
"1460","12022.01"
"1461","12030.78"
"1462","12038.76"
"1463","12043.23"
"1464","12039.99"
"1465","12022.82"
"1466","11985.64"
"1467","11934.41"
"1468","11891.12"
"1469","11878.21"
"1470","11894.1"
"1471","11906.76"
"1472","11883.01"
"1473","11816.6"
"1474","11733.49"
"1475","11661.31"
"1476","11619.59"
"1477","11618.77"
"1478","11667.64"
"1479","11745.91"
"1480","11802.82"
"1481","11788.74"
"1482","11710.04"
"1483","11627.31"
"1484","11600.54"
"1485","11636.73"
"1486","11695.86"
"1487","11737.88"
"1488","11748.65"
"1489","11734.89"
"1490","11704.19"
"1491","11667.38"
"1492","11637.69"
"1493","11627.08"
"1494","11632.36"
"1495","11640.44"
"1496","11638.78"
"1497","11621.88"
"1498","11588.28"
"1499","11539.17"
"1500","11497.66"
"1501","11497.86"
"1502","11564.85"
"1503","11658.17"
"1504","11708.78"
"1505","11662.49"
"1506","11555.55"
"1507","11457.97"
"1508","11425.72"
"1509","11443.28"
"1510","11472.58"
"1511","11482.91"
"1512","11474.73"
"1513","11456.68"
"1514","11438.12"
"1515","11430.88"
"1516","11447.28"
"1517","11489.35"
"1518","11529.52"
"1519","11535.04"
"1520","11491.77"
"1521","11429.32"
"1522","11383.4"
"1523","11373.25"
"1524","11386.53"
"1525","11407.35"
"1526","11424.03"
"1527","11431.38"
"1528","11425.01"
"1529","11409.43"
"1530","11400.38"
"1531","11413.72"
"1532","11449.87"
"1533","11493.47"
"1534","11528.92"
"1535","11549.32"
"1536","11554.93"
"1537","11546.39"
"1538","11526.48"
"1539","11499.42"
"1540","11469.25"
"1541","11438.44"
"1542","11408.61"
"1543","11381.9"
"1544","11363.74"
"1545","11360.81"
"1546","11375.73"
"1547","11391.6"
"1548","11385.75"
"1549","11345.49"
"1550","11293.5"
"1551","11260.24"
"1552","11262.32"
"1553","11280.11"
"1554","11288.19"
"1555","11275.79"
"1556","11260.46"
"1557","11262.68"
"1558","11282.61"
"1559","11290.89"
"1560","11257.2"
"1561","11187.14"
"1562","11125.4"
"1563","11115.79"
"1564","11156.1"
"1565","11207.09"
"1566","11231.57"
"1567","11224.78"
"1568","11201.14"
"1569","11173.91"
"1570","11146.64"
"1571","11118.74"
"1572","11089.58"
"1573","11058.46"
"1574","11024.61"
"1575","10990.74"
"1576","10970.78"
"1577","10980.9"
"1578","11022.22"
"1579","11062.05"
"1580","11063.5"
"1581","11020.6"
"1582","10975.92"
"1583","10975"
"1584","11026.2"
"1585","11096.94"
"1586","11153.63"
"1587","11179.59"
"1588","11171.17"
"1589","11127.45"
"1590","11068.84"
"1591","11027.09"
"1592","11026.7"
"1593","11050.25"
"1594","11065.53"
"1595","11051.26"
"1596","11026.35"
"1597","11018.87"
"1598","11041.54"
"1599","11070.74"
"1600","11077.86"
"1601","11052.18"
"1602","11010.96"
"1603","10973.63"
"1604","10952.67"
"1605","10953.41"
"1606","10979.34"
"1607","11015.24"
"1608","11032.98"
"1609","11010.89"
"1610","10976.32"
"1611","10978.45"
"1612","11048.68"
"1613","11139.25"
"1614","11180.57"
"1615","11133.33"
"1616","11040.13"
"1617","10957.03"
"1618","10920.77"
"1619","10935.49"
"1620","11001.28"
"1621","11094.13"
"1622","11164.24"
"1623","11165.03"
"1624","11106.2"
"1625","11035.56"
"1626","10997.05"
"1627","11002.99"
"1628","11052.61"
"1629","11135.78"
"1630","11206.07"
"1631","11208.24"
"1632","11123.59"
"1633","11017.19"
"1634","10964.66"
"1635","10986.75"
"1636","11028.34"
"1637","11032.17"
"1638","11000.73"
"1639","10986.79"
"1640","11036.32"
"1641","11123.53"
"1642","11186.39"
"1643","11177.94"
"1644","11122.2"
"1645","11063.64"
"1646","11031.16"
"1647","11013.38"
"1648","10992.79"
"1649","10965.35"
"1650","10946.95"
"1651","10954.3"
"1652","10988.82"
"1653","11038.68"
"1654","11090.95"
"1655","11127.5"
"1656","11127.53"
"1657","11081.25"
"1658","11027.25"
"1659","11017.39"
"1660","11071.24"
"1661","11132.1"
"1662","11133.51"
"1663","11062.61"
"1664","10977.28"
"1665","10936.53"
"1666","10945.22"
"1667","10967.8"
"1668","10972.39"
"1669","10958.61"
"1670","10938.98"
"1671","10924.95"
"1672","10924.06"
"1673","10942.84"
"1674","10972.52"
"1675","10976.91"
"1676","10919.32"
"1677","10815.58"
"1678","10732.98"
"1679","10731.52"
"1680","10785.06"
"1681","10821.73"
"1682","10790.14"
"1683","10729.77"
"1684","10704.51"
"1685","10739.21"
"1686","10773.89"
"1687","10739.74"
"1688","10637.67"
"1689","10548.21"
"1690","10547.16"
"1691","10612.64"
"1692","10663.79"
"1693","10639.09"
"1694","10575.19"
"1695","10538.28"
"1696","10559.9"
"1697","10590.7"
"1698","10571.35"
"1699","10494.59"
"1700","10414.81"
"1701","10385"
"1702","10403.49"
"1703","10435.29"
"1704","10451.23"
"1705","10452.29"
"1706","10448.3"
"1707","10446.46"
"1708","10448.08"
"1709","10453.67"
"1710","10463.98"
"1711","10479.93"
"1712","10501.22"
"1713","10515.83"
"1714","10505.31"
"1715","10458.96"
"1716","10397.84"
"1717","10350.98"
"1718","10332.71"
"1719","10329.95"
"1720","10327.47"
"1721","10326.01"
"1722","10340.87"
"1723","10382.21"
"1724","10420.28"
"1725","10408.02"
"1726","10325.33"
"1727","10234.83"
"1728","10213.7"
"1729","10279.37"
"1730","10365.51"
"1731","10404.49"
"1732","10390.61"
"1733","10359.41"
"1734","10341.39"
"1735","10338.95"
"1736","10346.08"
"1737","10356.34"
"1738","10362.47"
"1739","10357.43"
"1740","10341.98"
"1741","10324.2"
"1742","10311.96"
"1743","10309.19"
"1744","10318.14"
"1745","10336.45"
"1746","10348.63"
"1747","10337.32"
"1748","10303.87"
"1749","10273.33"
"1750","10269.23"
"1751","10284.98"
"1752","10296.75"
"1753","10285.91"
"1754","10254.18"
"1755","10208.27"
"1756","10160.18"
"1757","10130.33"
"1758","10137.83"
"1759","10174.05"
"1760","10210.89"
"1761","10226.15"
"1762","10227.27"
"1763","10230.29"
"1764","10241.56"
"1765","10249.34"
"1766","10240.72"
"1767","10216.87"
"1768","10190.34"
"1769","10172.61"
"1770","10167.68"
"1771","10176.99"
"1772","10197.99"
"1773","10219.86"
"1774","10231.43"
"1775","10234.31"
"1776","10241.3"
"1777","10259.5"
"1778","10261.03"
"1779","10205.75"
"1780","10092.13"
"1781","10002.08"
"1782","10023.19"
"1783","10141.35"
"1784","10252.19"
"1785","10266.95"
"1786","10205.09"
"1787","10124.36"
"1788","10067.46"
"1789","10045.24"
"1790","10063.47"
"1791","10109.33"
"1792","10154.22"
"1793","10174.62"
"1794","10176.69"
"1795","10176.34"
"1796","10182.77"
"1797","10192.38"
"1798","10200.06"
"1799","10200.42"
"1800","10187.79"
"1801","10160.09"
"1802","10131.56"
"1803","10120.91"
"1804","10131.8"
"1805","10143.23"
"1806","10134.18"
"1807","10110.63"
"1808","10095.83"
"1809","10106.41"
"1810","10133.65"
"1811","10162.98"
"1812","10179.93"
"1813","10170.12"
"1814","10122.43"
"1815","10053.48"
"1816","9993.892"
"1817","9966.824"
"1818","9974.34"
"1819","10014.45"
"1820","10074.54"
"1821","10131.18"
"1822","10163.91"
"1823","10172.74"
"1824","10165.25"
"1825","10144.83"
"1826","10106.66"
"1827","10046.58"
"1828","9982.19"
"1829","9946.947"
"1830","9962.345"
"1831","10000.92"
"1832","10023.65"
"1833","10017.19"
"1834","10002.79"
"1835","10001.11"
"1836","10008.28"
"1837","10008.51"
"1838","9993.167"
"1839","9971.521"
"1840","9955.45"
"1841","9953.395"
"1842","9970.808"
"1843","10009.03"
"1844","10050.48"
"1845","10072.28"
"1846","10067.38"
"1847","10052.8"
"1848","10046.29"
"1849","10053.47"
"1850","10073.56"
"1851","10101.72"
"1852","10122.49"
"1853","10119.33"
"1854","10088.08"
"1855","10035.6"
"1856","9973.895"
"1857","9936.948"
"1858","9964.161"
"1859","10044.3"
"1860","10093.03"
"1861","10035.26"
"1862","9918.664"
"1863","9850.446"
"1864","9887.899"
"1865","9970.991"
"1866","10026.71"
"1867","10039.15"
"1868","10036.17"
"1869","10038.22"
"1870","10033.38"
"1871","10002.83"
"1872","9950.055"
"1873","9904.488"
"1874","9892.309"
"1875","9910.715"
"1876","9946.062"
"1877","9980.925"
"1878","9991.428"
"1879","9957.521"
"1880","9902.854"
"1881","9875.483"
"1882","9904.576"
"1883","9970.107"
"1884","10044.03"
"1885","10095.08"
"1886","10089.41"
"1887","10011.83"
"1888","9917.463"
"1889","9876.178"
"1890","9903.747"
"1891","9955.979"
"1892","9989.562"
"1893","9983.386"
"1894","9924.368"
"1895","9834.791"
"1896","9789.999"
"1897","9853.126"
"1898","9959.925"
"1899","9988.106"
"1900","9894.2"
"1901","9792.834"
"1902","9803.677"
"1903","9896.731"
"1904","9951.624"
"1905","9899.947"
"1906","9812.638"
"1907","9778.137"
"1908","9807.985"
"1909","9854.597"
"1910","9879.59"
"1911","9880.819"
"1912","9864.087"
"1913","9842.83"
"1914","9837.751"
"1915","9860.313"
"1916","9881.802"
"1917","9864.277"
"1918","9811.978"
"1919","9777.334"
"1920","9802.097"
"1921","9859.084"
"1922","9899.365"
"1923","9890.008"
"1924","9819.634"
"1925","9690.796"
"1926","9581.738"
"1927","9597.801"
"1928","9746.7"
"1929","9885.921"
"1930","9884.236"
"1931","9783.451"
"1932","9699.289"
"1933","9691.017"
"1934","9720.028"
"1935","9742.405"
"1936","9749.77"
"1937","9750.699"
"1938","9752.812"
"1939","9761.709"
"1940","9781.942"
"1941","9810.675"
"1942","9841.23"
"1943","9865.063"
"1944","9869.978"
"1945","9845.423"
"1946","9800.4"
"1947","9754.485"
"1948","9723.398"
"1949","9714.581"
"1950","9732.996"
"1951","9769.622"
"1952","9807.669"
"1953","9829.568"
"1954","9816.377"
"1955","9752.714"
"1956","9659.091"
"1957","9575.782"
"1958","9534.345"
"1959","9547.786"
"1960","9620.201"
"1961","9695.079"
"1962","9683.837"
"1963","9564.008"
"1964","9444.152"
"1965","9432.711"
"1966","9503.682"
"1967","9563.331"
"1968","9559.83"
"1969","9519.701"
"1970","9475.991"
"1971","9446.428"
"1972","9441.488"
"1973","9459.679"
"1974","9479.534"
"1975","9481.495"
"1976","9472.574"
"1977","9470.645"
"1978","9480.262"
"1979","9486.037"
"1980","9475.448"
"1981","9462.516"
"1982","9470.216"
"1983","9493.521"
"1984","9491.099"
"1985","9434.477"
"1986","9370.713"
"1987","9367.428"
"1988","9416.322"
"1989","9425.574"
"1990","9333.211"
"1991","9215.115"
"1992","9177.125"
"1993","9228.948"
"1994","9292.664"
"1995","9307.373"
"1996","9277.539"
"1997","9221.079"
"1998","9161.569"
"1999","9126.77"
"2000","9134.323"
"2001","9176.262"
"2002","9238.823"
"2003","9289.957"
"2004","9287.221"
"2005","9221.213"
"2006","9146.013"
"2007","9114.796"
"2008","9121.037"
"2009","9132.25"
"2010","9131.862"
"2011","9126.515"
"2012","9122.027"
"2013","9110.577"
"2014","9080.732"
"2015","9041.896"
"2016","9025.854"
"2017","9049.965"
"2018","9075.196"
"2019","9053.425"
"2020","8994.461"
"2021","8953.229"
"2022","8962.873"
"2023","8998.915"
"2024","9028.316"
"2025","9021.601"
"2026","8951.645"
"2027","8828.325"
"2028","8724.836"
"2029","8707.783"
"2030","8765.847"
"2031","8859.148"
"2032","8956.598"
"2033","9037.443"
"2034","9082.153"
"2035","9073.97"
"2036","8999.76"
"2037","8892.264"
"2038","8819.917"
"2039","8823.039"
"2040","8872.269"
"2041","8928.706"
"2042","8959.898"
"2043","8937.125"
"2044","8864.222"
"2045","8794.113"
"2046","8770.822"
"2047","8773.759"
"2048","8764.206"
"2049","8741.13"
"2050","8739.226"
"2051","8771.499"
"2052","8784.563"
"2053","8722.352"
"2054","8623.15"
"2055","8579.197"
"2056","8610.658"
"2057","8614.959"
"2058","8505.659"
"2059","8348.961"
"2060","8259.813"
"2061","8288.544"
"2062","8420.877"
"2063","8607.271"
"2064","8703.239"
"2065","8572.597"
"2066","8341.264"
"2067","8283.785"
"2068","8480.701"
"2069","8693.877"
"2070","8708.292"
"2071","8574.991"
"2072","8425.33"
"2073","8331.83"
"2074","8313.467"
"2075","8370.146"
"2076","8457.713"
"2077","8527.999"
"2078","8558.717"
"2079","8540.728"
"2080","8484.643"
"2081","8427.7"
"2082","8400.873"
"2083","8402.49"
"2084","8422.624"
"2085","8448.525"
"2086","8465.401"
"2087","8458.905"
"2088","8415.725"
"2089","8329.339"
"2090","8231.901"
"2091","8168.159"
"2092","8152.349"
"2093","8168.769"
"2094","8202.913"
"2095","8246.909"
"2096","8292.414"
"2097","8318.92"
"2098","8300.773"
"2099","8242.813"
"2100","8188.751"
"2101","8172.519"
"2102","8184.604"
"2103","8205.633"
"2104","8212.451"
"2105","8179.964"
"2106","8111.024"
"2107","8052.625"
"2108","8045.762"
"2109","8087.515"
"2110","8160.739"
"2111","8217.246"
"2112","8186.515"
"2113","8059.958"
"2114","7945.393"
"2115","7937.51"
"2116","7996.04"
"2117","8040.86"
"2118","8053.724"
"2119","8068"
"2120","8093.591"
"2121","8087.906"
"2122","8015.901"
"2123","7924.557"
"2124","7886.249"
"2125","7895.801"
"2126","7878.054"
"2127","7797.129"
"2128","7710.743"
"2129","7679.294"
"2130","7701.333"
"2131","7751.731"
"2132","7795.516"
"2133","7788.719"
"2134","7723.238"
"2135","7672.88"
"2136","7702.524"
"2137","7754.055"
"2138","7728.617"
"2139","7630.744"
"2140","7558.873"
"2141","7559.076"
"2142","7556.065"
"2143","7480.579"
"2144","7388.556"
"2145","7374.602"
"2146","7437.994"
"2147","7497.384"
"2148","7507.984"
"2149","7502.691"
"2150","7512.859"
"2151","7515.854"
"2152","7475.223"
"2153","7399.779"
"2154","7332.181"
"2155","7298.66"
"2156","7295.648"
"2157","7312.709"
"2158","7322.999"
"2159","7298.877"
"2160","7253.848"
"2161","7226.988"
"2162","7231.684"
"2163","7244.087"
"2164","7241.427"
"2165","7214.322"
"2166","7159.407"
"2167","7100.966"
"2168","7076.102"
"2169","7085.283"
"2170","7087.595"
"2171","7069.694"
"2172","7093.929"
"2173","7208.439"
"2174","7299.727"
"2175","7204.568"
"2176","6975.04"
"2177","6845.657"
"2178","6912.7"
"2179","7005.162"
"2180","6973.105"
"2181","6883.541"
"2182","6852.621"
"2183","6895.587"
"2184","6965.882"
"2185","7013.604"
"2186","6985.746"
"2187","6863.803"
"2188","6728.602"
"2189","6666.362"
"2190","6678.986"
"2191","6733.255"
"2192","6788.508"
"2193","6797.915"
"2194","6749.337"
"2195","6695.078"
"2196","6684.047"
"2197","6721.987"
"2198","6799.213"
"2199","6863.524"
"2200","6840.51"
"2201","6716.082"
"2202","6546.655"
"2203","6387.335"
"2204","6280.009"
"2205","6254.923"
"2206","6289.306"
"2207","6343.385"
"2208","6388.951"
"2209","6406.331"
"2210","6396.854"
"2211","6391.305"
"2212","6406.213"
"2213","6409.571"
"2214","6370.419"
"2215","6322.321"
"2216","6320.236"
"2217","6349.463"
"2218","6339.821"
"2219","6264.115"
"2220","6165.921"
"2221","6089.363"
"2222","6059.452"
"2223","6088.011"
"2224","6120.907"
"2225","6081.361"
"2226","5993.692"
"2227","5966.988"
"2228","6037.795"
"2229","6119.431"
"2230","6134.066"
"2231","6071.336"
"2232","5944.44"
"2233","5834.032"
"2234","5841.553"
"2235","5934.316"
"2236","5970.834"
"2237","5908.971"
"2238","5866.132"
"2239","5912.231"
"2240","5930.44"
"2241","5798.512"
"2242","5582.981"
"2243","5417.995"
"2244","5364.541"
"2245","5428.561"
"2246","5563.261"
"2247","5651.993"
"2248","5622.671"
"2249","5531.26"
"2250","5441.911"
"2251","5356.037"
"2252","5258.928"
"2253","5176.197"
"2254","5156.097"
"2255","5196.31"
"2256","5238.609"
"2257","5244.766"
"2258","5222.731"
"2259","5176.95"
"2260","5077.458"
"2261","4899.505"
"2262","4720.203"
"2263","4655.915"
"2264","4698.817"
"2265","4739.147"
"2266","4703.445"
"2267","4575.987"
"2268","4390.222"
"2269","4297.153"
"2270","4407.373"
"2271","4532.29"
"2272","4423.512"
"2273","4164.882"
"2274","4019.569"
"2275","4042.843"
"2276","4082.969"
"2277","4041.17"
"2278","3924.906"
"2279","3779.415"
"2280","3733.265"
"2281","3880.409"
"2282","4027.1"
"2283","3905.992"
"2284","3558.667"
"2285","3214.815"
"2286","3025.038"
"2287","3052.686"
"2288","3252.174"
"2289","3391.67"
"2290","3311.325"
"2291","3135.813"
"2292","3017.225"
"2293","2951.452"
"2294","2884.273"
"2295","2803.364"
"2296","2720.91"
"2297","2638.909"
"2298","2549.145"
"2299","2455.735"
"2300","2383.571"
