,"Scan 01146"
"400","11264.65"
"401","11270.05"
"402","11273.91"
"403","11274.33"
"404","11267.5"
"405","11249.04"
"406","11214.57"
"407","11161.3"
"408","11098.83"
"409","11042.73"
"410","11008.47"
"411","11010.07"
"412","11044.03"
"413","11094.7"
"414","11146.29"
"415","11183.56"
"416","11201.51"
"417","11205.05"
"418","11199.51"
"419","11190.12"
"420","11180.85"
"421","11173.97"
"422","11171.62"
"423","11175.89"
"424","11186.11"
"425","11196.47"
"426","11200.69"
"427","11192.51"
"428","11169.66"
"429","11139.66"
"430","11111.48"
"431","11094.06"
"432","11092.82"
"433","11101.56"
"434","11111.66"
"435","11114.56"
"436","11103.73"
"437","11081.53"
"438","11052.83"
"439","11022.47"
"440","10995.03"
"441","10973.85"
"442","10961.78"
"443","10961.62"
"444","10975.19"
"445","10996.35"
"446","11015.31"
"447","11022.33"
"448","11008.96"
"449","10979.4"
"450","10945.13"
"451","10917.63"
"452","10907.51"
"453","10914.72"
"454","10931.75"
"455","10950.98"
"456","10965.1"
"457","10970.85"
"458","10968.41"
"459","10958.04"
"460","10940.07"
"461","10915.97"
"462","10888.39"
"463","10859.99"
"464","10833.34"
"465","10808.63"
"466","10783.45"
"467","10755.23"
"468","10721.57"
"469","10684.25"
"470","10650.44"
"471","10627.59"
"472","10622.98"
"473","10636.62"
"474","10658.4"
"475","10677.47"
"476","10683.17"
"477","10671.65"
"478","10649.6"
"479","10624.55"
"480","10603.96"
"481","10592.25"
"482","10588.78"
"483","10592.42"
"484","10602.04"
"485","10614.39"
"486","10622.47"
"487","10618.88"
"488","10596.39"
"489","10554.74"
"490","10506.7"
"491","10466.41"
"492","10447.83"
"493","10454.9"
"494","10472.29"
"495","10482.56"
"496","10468.48"
"497","10423.02"
"498","10359"
"499","10291.49"
"500","10235.39"
"501","10198.38"
"502","10174.11"
"503","10154.66"
"504","10132.17"
"505","10102.37"
"506","10067.75"
"507","10031.55"
"508","9996.991"
"509","9964.665"
"510","9930.372"
"511","9889.416"
"512","9837.198"
"513","9775.136"
"514","9715.253"
"515","9670.584"
"516","9653.945"
"517","9667.398"
"518","9695.303"
"519","9720.437"
"520","9725.853"
"521","9705.39"
"522","9669.277"
"523","9629.069"
"524","9596.102"
"525","9574.434"
"526","9558.045"
"527","9540.199"
"528","9514.387"
"529","9480.649"
"530","9447.207"
"531","9422.745"
"532","9415.604"
"533","9425.76"
"534","9443.958"
"535","9460.522"
"536","9466.029"
"537","9455.559"
"538","9428.526"
"539","9384.521"
"540","9323.573"
"541","9253.104"
"542","9186.637"
"543","9137.809"
"544","9119.129"
"545","9129.054"
"546","9156.217"
"547","9189.099"
"548","9216.998"
"549","9236.998"
"550","9250.727"
"551","9259.857"
"552","9265.907"
"553","9269.129"
"554","9269.191"
"555","9265.756"
"556","9258.598"
"557","9248.175"
"558","9235.208"
"559","9220.414"
"560","9204.705"
"561","9189.981"
"562","9178.414"
"563","9172.166"
"564","9171.696"
"565","9171.294"
"566","9163.876"
"567","9142.402"
"568","9104.398"
"569","9059.805"
"570","9020.622"
"571","8998.749"
"572","8998.851"
"573","9010.824"
"574","9022.804"
"575","9023.122"
"576","9008.701"
"577","8989.608"
"578","8976.998"
"579","8981.604"
"580","9003.349"
"581","9029.821"
"582","9047.984"
"583","9045.782"
"584","9027.193"
"585","9009.655"
"586","9010.962"
"587","9046.509"
"588","9106.548"
"589","9166.046"
"590","9199.859"
"591","9186.789"
"592","9132.771"
"593","9055.375"
"594","8972.139"
"595","8898.978"
"596","8844.491"
"597","8815.114"
"598","8817.253"
"599","8852.526"
"600","8907.727"
"601","8966.841"
"602","9013.94"
"603","9038.603"
"604","9041.683"
"605","9025.418"
"606","8992.105"
"607","8946.639"
"608","8897.529"
"609","8853.518"
"610","8823.074"
"611","8809.713"
"612","8812.357"
"613","8829.76"
"614","8860.146"
"615","8895.893"
"616","8925.829"
"617","8938.767"
"618","8925.989"
"619","8894.221"
"620","8856.185"
"621","8824.574"
"622","8808.004"
"623","8799.694"
"624","8789.229"
"625","8766.259"
"626","8727.736"
"627","8687.393"
"628","8661.257"
"629","8665.002"
"630","8699.264"
"631","8743.397"
"632","8775.205"
"633","8773.815"
"634","8741.667"
"635","8701.7"
"636","8677.467"
"637","8689.483"
"638","8731.028"
"639","8780.832"
"640","8817.556"
"641","8824.506"
"642","8807.831"
"643","8780.745"
"644","8756.422"
"645","8744.248"
"646","8743.194"
"647","8750.448"
"648","8763.203"
"649","8778.127"
"650","8791.064"
"651","8797.8"
"652","8794.369"
"653","8781.635"
"654","8764.902"
"655","8749.624"
"656","8740.607"
"657","8737.011"
"658","8735.015"
"659","8730.784"
"660","8721.964"
"661","8712.846"
"662","8709.605"
"663","8718.389"
"664","8740.607"
"665","8766.45"
"666","8784.493"
"667","8783.629"
"668","8763.895"
"669","8739.726"
"670","8726.488"
"671","8738.205"
"672","8771.757"
"673","8811.835"
"674","8842.925"
"675","8851.895"
"676","8839.919"
"677","8813.512"
"678","8779.171"
"679","8742.962"
"680","8709.674"
"681","8683.849"
"682","8669.973"
"683","8669.495"
"684","8679.314"
"685","8695.962"
"686","8715.932"
"687","8735.096"
"688","8748.83"
"689","8752.508"
"690","8743.04"
"691","8727.237"
"692","8715.838"
"693","8719.563"
"694","8742.946"
"695","8772.018"
"696","8789.391"
"697","8778.028"
"698","8736.664"
"699","8686.972"
"700","8652.38"
"701","8654.296"
"702","8686.802"
"703","8724.118"
"704","8740.06"
"705","8714.537"
"706","8661.238"
"707","8605.551"
"708","8572.794"
"709","8577.661"
"710","8608.525"
"711","8649.758"
"712","8686.062"
"713","8711.282"
"714","8729.997"
"715","8747.381"
"716","8767.938"
"717","8789.786"
"718","8807.458"
"719","8815.465"
"720","8810.15"
"721","8795.076"
"722","8775.573"
"723","8756.919"
"724","8740.933"
"725","8723.45"
"726","8699.736"
"727","8665.804"
"728","8629.502"
"729","8608.093"
"730","8619.069"
"731","8674.752"
"732","8758.242"
"733","8842.36"
"734","8900.018"
"735","8916.576"
"736","8906.3"
"737","8887.511"
"738","8877.958"
"739","8881.994"
"740","8890.269"
"741","8892.828"
"742","8881.523"
"743","8861.452"
"744","8843.648"
"745","8839.149"
"746","8853.065"
"747","8873.584"
"748","8885.906"
"749","8875.727"
"750","8844.49"
"751","8812.514"
"752","8801.203"
"753","8828.55"
"754","8883.108"
"755","8938.342"
"756","8967.632"
"757","8954.794"
"758","8916.872"
"759","8877.512"
"760","8859.944"
"761","8873.094"
"762","8907.524"
"763","8952.605"
"764","8997.747"
"765","9032.657"
"766","9047.211"
"767","9031.288"
"768","8981.467"
"769","8915.857"
"770","8856.869"
"771","8826.478"
"772","8831.749"
"773","8861.007"
"774","8901.391"
"775","8941.103"
"776","8977.254"
"777","9011.468"
"778","9045.404"
"779","9079.024"
"780","9107.279"
"781","9124.207"
"782","9124.115"
"783","9108.93"
"784","9089.181"
"785","9075.85"
"786","9078.426"
"787","9095.707"
"788","9121.816"
"789","9150.854"
"790","9177.387"
"791","9197.129"
"792","9205.965"
"793","9200.141"
"794","9183.063"
"795","9164.824"
"796","9155.763"
"797","9164.09"
"798","9186.243"
"799","9214.601"
"800","9241.566"
"801","9261.726"
"802","9273.804"
"803","9276.977"
"804","9270.478"
"805","9254.324"
"806","9229.075"
"807","9195.306"
"808","9155.89"
"809","9122.757"
"810","9110.044"
"811","9131.568"
"812","9188.111"
"813","9262.83"
"814","9337.651"
"815","9396.008"
"816","9433.646"
"817","9452.368"
"818","9454.014"
"819","9441.699"
"820","9421.792"
"821","9401.166"
"822","9386.37"
"823","9377.752"
"824","9370.088"
"825","9357.955"
"826","9337.579"
"827","9313.258"
"828","9291.748"
"829","9279.755"
"830","9280.379"
"831","9291.059"
"832","9308.728"
"833","9330.39"
"834","9353.699"
"835","9376.655"
"836","9397.272"
"837","9414.495"
"838","9429.836"
"839","9445.25"
"840","9462.426"
"841","9477.834"
"842","9483.135"
"843","9469.808"
"844","9432.862"
"845","9384.329"
"846","9341.346"
"847","9320.888"
"848","9331"
"849","9366.474"
"850","9421.021"
"851","9487.738"
"852","9554.595"
"853","9606.997"
"854","9630.372"
"855","9618.654"
"856","9585.923"
"857","9549.177"
"858","9524.646"
"859","9517.215"
"860","9522.979"
"861","9537.822"
"862","9557.582"
"863","9577.982"
"864","9594.714"
"865","9603.659"
"866","9606.312"
"867","9610.618"
"868","9624.884"
"869","9654.878"
"870","9691.541"
"871","9720.445"
"872","9727.3"
"873","9708.464"
"874","9678.08"
"875","9651.978"
"876","9644.5"
"877","9656.637"
"878","9682.3"
"879","9715.345"
"880","9749.757"
"881","9779.859"
"882","9800.014"
"883","9805.024"
"884","9795.848"
"885","9777.977"
"886","9757.013"
"887","9738"
"888","9724.124"
"889","9718.175"
"890","9722.939"
"891","9741.092"
"892","9775.195"
"893","9827.811"
"894","9898.246"
"895","9970.744"
"896","10025.18"
"897","10041.92"
"898","10020.85"
"899","9987.158"
"900","9967.694"
"901","9983.555"
"902","10019.89"
"903","10048.01"
"904","10039.5"
"905","9988.018"
"906","9923.699"
"907","9880.111"
"908","9886.302"
"909","9934.156"
"910","9997.311"
"911","10049.34"
"912","10075.21"
"913","10083.4"
"914","10085.32"
"915","10091.42"
"916","10102.08"
"917","10111.58"
"918","10114.15"
"919","10105.93"
"920","10088"
"921","10062.2"
"922","10030.79"
"923","10001.75"
"924","9987.179"
"925","9999.276"
"926","10043.28"
"927","10103.41"
"928","10159.92"
"929","10193.97"
"930","10201.97"
"931","10193.12"
"932","10177.06"
"933","10162.65"
"934","10156.14"
"935","10163.19"
"936","10188.95"
"937","10227.32"
"938","10261.55"
"939","10274.44"
"940","10254.94"
"941","10216.6"
"942","10179.16"
"943","10161.78"
"944","10168.83"
"945","10189.15"
"946","10210.8"
"947","10223.67"
"948","10225.7"
"949","10217.05"
"950","10197.95"
"951","10169.85"
"952","10135.58"
"953","10098.08"
"954","10061.16"
"955","10033.08"
"956","10023.4"
"957","10041.31"
"958","10083.49"
"959","10131.54"
"960","10166.19"
"961","10172.62"
"962","10158.68"
"963","10139.37"
"964","10129.43"
"965","10133.66"
"966","10144.46"
"967","10153.51"
"968","10154.26"
"969","10149.62"
"970","10145.58"
"971","10147.98"
"972","10157.2"
"973","10166.77"
"974","10169.81"
"975","10160.81"
"976","10141.61"
"977","10116.45"
"978","10089.6"
"979","10066.2"
"980","10052.56"
"981","10055.03"
"982","10077.67"
"983","10112.58"
"984","10148.09"
"985","10172.73"
"986","10181.15"
"987","10175.48"
"988","10158.32"
"989","10132.77"
"990","10104.37"
"991","10079.42"
"992","10064.16"
"993","10061.92"
"994","10072.74"
"995","10096.44"
"996","10132.12"
"997","10175.41"
"998","10220.97"
"999","10263.49"
"1000","10298.68"
"1001","10323.41"
"1002","10334.59"
"1003","10330.71"
"1004","10316.97"
"1005","10300.3"
"1006","10287.63"
"1007","10283.78"
"1008","10288.13"
"1009","10299.27"
"1010","10315.23"
"1011","10328.37"
"1012","10327.74"
"1013","10302.43"
"1014","10253.12"
"1015","10203.28"
"1016","10179.1"
"1017","10202.21"
"1018","10260.08"
"1019","10324.66"
"1020","10368.04"
"1021","10378.16"
"1022","10366.58"
"1023","10346.8"
"1024","10330.87"
"1025","10322.97"
"1026","10324.62"
"1027","10337.31"
"1028","10360.2"
"1029","10389.96"
"1030","10423.12"
"1031","10455.71"
"1032","10482.02"
"1033","10495.88"
"1034","10491.81"
"1035","10474.76"
"1036","10457.81"
"1037","10454.25"
"1038","10470.53"
"1039","10496.16"
"1040","10518.08"
"1041","10524.81"
"1042","10519.44"
"1043","10512.77"
"1044","10515.58"
"1045","10531.29"
"1046","10551.39"
"1047","10566.23"
"1048","10568.77"
"1049","10565.98"
"1050","10569.6"
"1051","10590.92"
"1052","10629.94"
"1053","10674.78"
"1054","10713.01"
"1055","10733.65"
"1056","10730.52"
"1057","10698.38"
"1058","10633.82"
"1059","10554.92"
"1060","10493.77"
"1061","10482.56"
"1062","10531.21"
"1063","10607.33"
"1064","10673.79"
"1065","10699.23"
"1066","10688.01"
"1067","10658.13"
"1068","10627.44"
"1069","10608.45"
"1070","10607.75"
"1071","10631.62"
"1072","10681.3"
"1073","10741.55"
"1074","10793.73"
"1075","10820.73"
"1076","10823.17"
"1077","10812.87"
"1078","10801.72"
"1079","10796.17"
"1080","10793.01"
"1081","10788.11"
"1082","10778.51"
"1083","10767.74"
"1084","10761.44"
"1085","10764.97"
"1086","10777.1"
"1087","10790.49"
"1088","10797.54"
"1089","10794.08"
"1090","10784.75"
"1091","10775.59"
"1092","10772.23"
"1093","10777.01"
"1094","10790.73"
"1095","10813.98"
"1096","10841.53"
"1097","10860.63"
"1098","10858.05"
"1099","10825.2"
"1100","10769.81"
"1101","10703.23"
"1102","10636.96"
"1103","10583.89"
"1104","10557.81"
"1105","10572.34"
"1106","10626.56"
"1107","10696.35"
"1108","10755.45"
"1109","10783.51"
"1110","10786.48"
"1111","10777.58"
"1112","10769.23"
"1113","10761.97"
"1114","10747.49"
"1115","10717.38"
"1116","10671.89"
"1117","10627.4"
"1118","10602.08"
"1119","10609.34"
"1120","10638.34"
"1121","10670.56"
"1122","10688.33"
"1123","10688.19"
"1124","10678.3"
"1125","10667.12"
"1126","10661.33"
"1127","10664.12"
"1128","10678.25"
"1129","10704.13"
"1130","10729.76"
"1131","10738.99"
"1132","10716.9"
"1133","10668.28"
"1134","10614.13"
"1135","10575.85"
"1136","10564.89"
"1137","10573.26"
"1138","10590.74"
"1139","10609.07"
"1140","10630.05"
"1141","10658.6"
"1142","10698.65"
"1143","10739.92"
"1144","10761.22"
"1145","10741.33"
"1146","10678.79"
"1147","10606.8"
"1148","10562.1"
"1149","10571.42"
"1150","10618.03"
"1151","10673.43"
"1152","10710.98"
"1153","10726.25"
"1154","10729.22"
"1155","10730.09"
"1156","10735.42"
"1157","10746.58"
"1158","10764.46"
"1159","10788.38"
"1160","10811.98"
"1161","10827.76"
"1162","10829.07"
"1163","10816.82"
"1164","10795.77"
"1165","10770.78"
"1166","10747.67"
"1167","10733.41"
"1168","10735.02"
"1169","10754.22"
"1170","10779.64"
"1171","10797.95"
"1172","10798.53"
"1173","10786.75"
"1174","10773.78"
"1175","10770.38"
"1176","10780.85"
"1177","10804.39"
"1178","10839.94"
"1179","10880.66"
"1180","10910.01"
"1181","10910.51"
"1182","10873.13"
"1183","10820.01"
"1184","10780.49"
"1185","10780.66"
"1186","10817.93"
"1187","10875"
"1188","10934.59"
"1189","10983.38"
"1190","11012.24"
"1191","11012.3"
"1192","10983.74"
"1193","10946.48"
"1194","10923.06"
"1195","10930.13"
"1196","10956.48"
"1197","10982.6"
"1198","10990.61"
"1199","10980.51"
"1200","10963.39"
"1201","10950.35"
"1202","10946.43"
"1203","10949.24"
"1204","10955.92"
"1205","10962.49"
"1206","10962.23"
"1207","10947.98"
"1208","10916.13"
"1209","10881.5"
"1210","10864.84"
"1211","10884.78"
"1212","10934.82"
"1213","10992.22"
"1214","11034.31"
"1215","11051.12"
"1216","11048.34"
"1217","11032.61"
"1218","11011.26"
"1219","10993.22"
"1220","10987.66"
"1221","11001.39"
"1222","11029.99"
"1223","11065.62"
"1224","11099.96"
"1225","11119.32"
"1226","11106.91"
"1227","11047.1"
"1228","10956.05"
"1229","10884.06"
"1230","10882.92"
"1231","10968.4"
"1232","11085.18"
"1233","11169.58"
"1234","11176.58"
"1235","11132.09"
"1236","11078.79"
"1237","11054.56"
"1238","11061.24"
"1239","11084.31"
"1240","11109.76"
"1241","11132.46"
"1242","11154.61"
"1243","11178.58"
"1244","11205.33"
"1245","11233.81"
"1246","11262.81"
"1247","11289.51"
"1248","11307.01"
"1249","11307.75"
"1250","11287.23"
"1251","11255.58"
"1252","11227.26"
"1253","11215.14"
"1254","11217.46"
"1255","11224.68"
"1256","11227.59"
"1257","11225.49"
"1258","11225.41"
"1259","11234.56"
"1260","11253.01"
"1261","11269.92"
"1262","11273.5"
"1263","11257.71"
"1264","11231.55"
"1265","11206.54"
"1266","11193.59"
"1267","11200.94"
"1268","11236.05"
"1269","11303.29"
"1270","11381.03"
"1271","11434.65"
"1272","11431.58"
"1273","11375.41"
"1274","11299.45"
"1275","11237.5"
"1276","11207.09"
"1277","11204.26"
"1278","11223.55"
"1279","11256.82"
"1280","11290.18"
"1281","11309.01"
"1282","11303.69"
"1283","11282.43"
"1284","11257.44"
"1285","11239.22"
"1286","11228"
"1287","11220.26"
"1288","11212.85"
"1289","11206.94"
"1290","11206.26"
"1291","11214.16"
"1292","11226.47"
"1293","11232.03"
"1294","11219.75"
"1295","11193.57"
"1296","11178.63"
"1297","11201.56"
"1298","11269.54"
"1299","11347.62"
"1300","11395.32"
"1301","11385.24"
"1302","11334.29"
"1303","11268.83"
"1304","11212.69"
"1305","11176.38"
"1306","11165.9"
"1307","11185.68"
"1308","11226.44"
"1309","11271.87"
"1310","11306.37"
"1311","11325.35"
"1312","11332.59"
"1313","11331.99"
"1314","11325.51"
"1315","11313.04"
"1316","11294.38"
"1317","11272.7"
"1318","11256.48"
"1319","11254.66"
"1320","11270.93"
"1321","11296.91"
"1322","11322.53"
"1323","11339.98"
"1324","11349.11"
"1325","11351.39"
"1326","11347.53"
"1327","11334.21"
"1328","11306.9"
"1329","11263.25"
"1330","11217.14"
"1331","11189.72"
"1332","11199.52"
"1333","11234.82"
"1334","11264.88"
"1335","11260.34"
"1336","11222.24"
"1337","11177.9"
"1338","11154.89"
"1339","11161.38"
"1340","11182.81"
"1341","11203.43"
"1342","11215.16"
"1343","11222.06"
"1344","11229.25"
"1345","11238.06"
"1346","11241.71"
"1347","11232.42"
"1348","11208.28"
"1349","11184.52"
"1350","11179.5"
"1351","11204.76"
"1352","11244.92"
"1353","11277.96"
"1354","11285.82"
"1355","11271.73"
"1356","11246"
"1357","11218.04"
"1358","11190.37"
"1359","11162.5"
"1360","11134.24"
"1361","11108.59"
"1362","11090.36"
"1363","11084.04"
"1364","11089.28"
"1365","11102.2"
"1366","11118.94"
"1367","11137.97"
"1368","11159.9"
"1369","11185.16"
"1370","11206.85"
"1371","11209.65"
"1372","11178.2"
"1373","11118.34"
"1374","11066.06"
"1375","11059.36"
"1376","11106.17"
"1377","11161.69"
"1378","11175.91"
"1379","11125.94"
"1380","11047.48"
"1381","10983.88"
"1382","10963.81"
"1383","10976.96"
"1384","11006.67"
"1385","11039.2"
"1386","11070.44"
"1387","11098.18"
"1388","11119.14"
"1389","11125.67"
"1390","11109.02"
"1391","11065.82"
"1392","11018.15"
"1393","10995.69"
"1394","11020.2"
"1395","11068.28"
"1396","11100.54"
"1397","11084.95"
"1398","11039.99"
"1399","11005.13"
"1400","11013.76"
"1401","11049.51"
"1402","11071.93"
"1403","11045.5"
"1404","10983.2"
"1405","10924.89"
"1406","10907"
"1407","10924.05"
"1408","10944.2"
"1409","10937.69"
"1410","10908.02"
"1411","10882.22"
"1412","10886.06"
"1413","10918.09"
"1414","10955.5"
"1415","10975.85"
"1416","10974.83"
"1417","10963.8"
"1418","10954.37"
"1419","10952.08"
"1420","10956.7"
"1421","10967.69"
"1422","10982.54"
"1423","10996.66"
"1424","11005.64"
"1425","11011.87"
"1426","11025.28"
"1427","11055.74"
"1428","11098.99"
"1429","11134"
"1430","11139.41"
"1431","11116.81"
"1432","11096.63"
"1433","11110.52"
"1434","11165.33"
"1435","11235.25"
"1436","11292.52"
"1437","11321.33"
"1438","11322.31"
"1439","11297.48"
"1440","11257.1"
"1441","11223.21"
"1442","11218.31"
"1443","11243.2"
"1444","11267"
"1445","11256.96"
"1446","11212.55"
"1447","11180.96"
"1448","11212.44"
"1449","11311.36"
"1450","11413.47"
"1451","11449.74"
"1452","11398.01"
"1453","11306.22"
"1454","11227.55"
"1455","11186.07"
"1456","11162.64"
"1457","11134.92"
"1458","11097.59"
"1459","11070.22"
"1460","11073.91"
"1461","11109.43"
"1462","11148.52"
"1463","11161.09"
"1464","11135.35"
"1465","11084.82"
"1466","11024.77"
"1467","10965.75"
"1468","10912.03"
"1469","10867.36"
"1470","10832.4"
"1471","10803.86"
"1472","10778.21"
"1473","10752.41"
"1474","10724.08"
"1475","10691.16"
"1476","10661.46"
"1477","10653.85"
"1478","10686.41"
"1479","10743.15"
"1480","10772.38"
"1481","10723.42"
"1482","10604.74"
"1483","10482.04"
"1484","10420.61"
"1485","10433.54"
"1486","10487.58"
"1487","10548.42"
"1488","10590.42"
"1489","10594.98"
"1490","10546.35"
"1491","10465.79"
"1492","10401.41"
"1493","10396.88"
"1494","10436.23"
"1495","10464.79"
"1496","10433.74"
"1497","10359.63"
"1498","10296.56"
"1499","10292.3"
"1500","10336.83"
"1501","10391.11"
"1502","10420.53"
"1503","10424.17"
"1504","10415.8"
"1505","10407.42"
"1506","10400.17"
"1507","10391.12"
"1508","10377.96"
"1509","10361.5"
"1510","10343.55"
"1511","10327.27"
"1512","10321.56"
"1513","10336.83"
"1514","10376.19"
"1515","10417.36"
"1516","10432.56"
"1517","10407.28"
"1518","10365.09"
"1519","10336.34"
"1520","10339.56"
"1521","10365.62"
"1522","10401.46"
"1523","10434.42"
"1524","10452.77"
"1525","10445.04"
"1526","10412.16"
"1527","10374.44"
"1528","10353.29"
"1529","10348.74"
"1530","10333.68"
"1531","10280.75"
"1532","10199.62"
"1533","10137.83"
"1534","10141.39"
"1535","10200.99"
"1536","10261.9"
"1537","10272.68"
"1538","10237.48"
"1539","10196.72"
"1540","10187.29"
"1541","10210.3"
"1542","10248.58"
"1543","10285.45"
"1544","10308.23"
"1545","10305.81"
"1546","10272.75"
"1547","10230.53"
"1548","10208.65"
"1549","10224.33"
"1550","10251.66"
"1551","10255.16"
"1552","10216.42"
"1553","10161.46"
"1554","10123.45"
"1555","10121.79"
"1556","10149.23"
"1557","10195.29"
"1558","10243.08"
"1559","10266.35"
"1560","10239.41"
"1561","10171.09"
"1562","10107.71"
"1563","10094.73"
"1564","10133.1"
"1565","10187.9"
"1566","10225.66"
"1567","10238.77"
"1568","10234.88"
"1569","10221.37"
"1570","10202.31"
"1571","10180.34"
"1572","10157.66"
"1573","10134.29"
"1574","10109.6"
"1575","10086.97"
"1576","10082.82"
"1577","10116.15"
"1578","10184.4"
"1579","10236.47"
"1580","10215.37"
"1581","10113.5"
"1582","10000.92"
"1583","9952.396"
"1584","9983.241"
"1585","10043.24"
"1586","10081.72"
"1587","10092.54"
"1588","10103.77"
"1589","10139.29"
"1590","10176.78"
"1591","10169.5"
"1592","10084.48"
"1593","9968.528"
"1594","9896.689"
"1595","9918.804"
"1596","9992.281"
"1597","10053.44"
"1598","10064.61"
"1599","10049.88"
"1600","10041.94"
"1601","10052.25"
"1602","10059.15"
"1603","10039.22"
"1604","9997.637"
"1605","9969.289"
"1606","9986.803"
"1607","10035.99"
"1608","10070.48"
"1609","10052.41"
"1610","10010.83"
"1611","10004.61"
"1612","10073.4"
"1613","10171.35"
"1614","10229.01"
"1615","10209.1"
"1616","10161.34"
"1617","10149.42"
"1618","10193.25"
"1619","10238.84"
"1620","10227.01"
"1621","10149.37"
"1622","10051.95"
"1623","9981.276"
"1624","9956.594"
"1625","9978.692"
"1626","10044.68"
"1627","10129.12"
"1628","10197.13"
"1629","10223.95"
"1630","10224.58"
"1631","10223.72"
"1632","10234.15"
"1633","10241.26"
"1634","10227.04"
"1635","10192.13"
"1636","10162.89"
"1637","10165.73"
"1638","10193.98"
"1639","10213.11"
"1640","10193.67"
"1641","10156.69"
"1642","10148.69"
"1643","10200.58"
"1644","10270.1"
"1645","10293.92"
"1646","10243.42"
"1647","10179.29"
"1648","10175.38"
"1649","10247.05"
"1650","10323.01"
"1651","10329.04"
"1652","10266.67"
"1653","10203.37"
"1654","10200.33"
"1655","10246.67"
"1656","10295.27"
"1657","10308.86"
"1658","10294.82"
"1659","10272.78"
"1660","10253.27"
"1661","10225.29"
"1662","10175.25"
"1663","10109.98"
"1664","10063.33"
"1665","10067.95"
"1666","10112.75"
"1667","10153.91"
"1668","10152.95"
"1669","10112.75"
"1670","10053.12"
"1671","9993.942"
"1672","9954.963"
"1673","9955.732"
"1674","9996.641"
"1675","10043.76"
"1676","10060.73"
"1677","10036.98"
"1678","9987.266"
"1679","9927.348"
"1680","9872.567"
"1681","9838.048"
"1682","9831.99"
"1683","9832.533"
"1684","9809.748"
"1685","9753.492"
"1686","9696.584"
"1687","9676.45"
"1688","9698.714"
"1689","9732.697"
"1690","9747.151"
"1691","9726.453"
"1692","9664.378"
"1693","9562.885"
"1694","9462.846"
"1695","9416.834"
"1696","9446.052"
"1697","9498.509"
"1698","9513.132"
"1699","9474.14"
"1700","9419.444"
"1701","9387.94"
"1702","9394.846"
"1703","9440.963"
"1704","9521.142"
"1705","9603.045"
"1706","9646.366"
"1707","9632.572"
"1708","9591.38"
"1709","9558.163"
"1710","9544.551"
"1711","9536.12"
"1712","9519.035"
"1713","9497.604"
"1714","9486.062"
"1715","9494.249"
"1716","9513.769"
"1717","9531.591"
"1718","9535.724"
"1719","9516.153"
"1720","9464.548"
"1721","9401.639"
"1722","9374.497"
"1723","9420.043"
"1724","9495.944"
"1725","9525.551"
"1726","9465.946"
"1727","9377.895"
"1728","9340.828"
"1729","9380.087"
"1730","9445.135"
"1731","9483.692"
"1732","9492.404"
"1733","9500.527"
"1734","9528.115"
"1735","9548.188"
"1736","9519.891"
"1737","9436.366"
"1738","9360.743"
"1739","9361.512"
"1740","9436.453"
"1741","9516.272"
"1742","9537.94"
"1743","9502.235"
"1744","9437.395"
"1745","9372.4"
"1746","9337.91"
"1747","9363.862"
"1748","9440.825"
"1749","9509.611"
"1750","9514.185"
"1751","9462.311"
"1752","9398.136"
"1753","9357.684"
"1754","9344.258"
"1755","9353.346"
"1756","9376.263"
"1757","9397.731"
"1758","9403.24"
"1759","9396.431"
"1760","9393.688"
"1761","9406.015"
"1762","9417.865"
"1763","9406.079"
"1764","9364.64"
"1765","9319.669"
"1766","9298.722"
"1767","9294.739"
"1768","9272.659"
"1769","9208.399"
"1770","9141.484"
"1771","9132.523"
"1772","9203.487"
"1773","9295.926"
"1774","9344.346"
"1775","9339.876"
"1776","9323.146"
"1777","9328.487"
"1778","9344.166"
"1779","9342.079"
"1780","9311.394"
"1781","9278.635"
"1782","9274.085"
"1783","9305.938"
"1784","9362.793"
"1785","9428.866"
"1786","9467.517"
"1787","9434.873"
"1788","9326.543"
"1789","9221.116"
"1790","9202.66"
"1791","9265.119"
"1792","9326.037"
"1793","9318.625"
"1794","9272.43"
"1795","9248.471"
"1796","9275.1"
"1797","9317.951"
"1798","9337.566"
"1799","9324.953"
"1800","9294.288"
"1801","9261.346"
"1802","9246.361"
"1803","9270.476"
"1804","9325.997"
"1805","9357.914"
"1806","9313.438"
"1807","9217.516"
"1808","9144.901"
"1809","9147.067"
"1810","9186.803"
"1811","9207.466"
"1812","9190.934"
"1813","9170.2"
"1814","9176.813"
"1815","9199.604"
"1816","9205.865"
"1817","9177.945"
"1818","9140.336"
"1819","9123.81"
"1820","9136.129"
"1821","9161.769"
"1822","9185.413"
"1823","9199.284"
"1824","9198.406"
"1825","9182.793"
"1826","9162.326"
"1827","9147.386"
"1828","9139.134"
"1829","9132.05"
"1830","9122.753"
"1831","9116.918"
"1832","9122.206"
"1833","9134.37"
"1834","9133.162"
"1835","9102.302"
"1836","9066.952"
"1837","9072.299"
"1838","9133.841"
"1839","9192.747"
"1840","9182.662"
"1841","9110.353"
"1842","9046.438"
"1843","9048.424"
"1844","9101.216"
"1845","9168.436"
"1846","9219.295"
"1847","9231.559"
"1848","9187.907"
"1849","9109.367"
"1850","9037.255"
"1851","9000.805"
"1852","8996.761"
"1853","9016.403"
"1854","9047.823"
"1855","9076.272"
"1856","9090.964"
"1857","9100.031"
"1858","9116.805"
"1859","9139.534"
"1860","9144.698"
"1861","9111.835"
"1862","9059.567"
"1863","9025.46"
"1864","9030.533"
"1865","9056.897"
"1866","9081.566"
"1867","9088.603"
"1868","9067.464"
"1869","9016.662"
"1870","8968.319"
"1871","8961.255"
"1872","8994.586"
"1873","9021.146"
"1874","9002.467"
"1875","8968.719"
"1876","8975.242"
"1877","9040.06"
"1878","9116.339"
"1879","9155.066"
"1880","9149.787"
"1881","9117.798"
"1882","9078.731"
"1883","9057.443"
"1884","9077.105"
"1885","9120.163"
"1886","9136.458"
"1887","9097.159"
"1888","9057.062"
"1889","9087.763"
"1890","9179.108"
"1891","9230.287"
"1892","9161.104"
"1893","9028.984"
"1894","8936.561"
"1895","8929.646"
"1896","8968.568"
"1897","9009.641"
"1898","9033.011"
"1899","9029.811"
"1900","9003.892"
"1901","8984.354"
"1902","9000.057"
"1903","9044.45"
"1904","9089.576"
"1905","9111.209"
"1906","9095.819"
"1907","9033.901"
"1908","8950.936"
"1909","8899.32"
"1910","8911.972"
"1911","8953.869"
"1912","8977.603"
"1913","8976.267"
"1914","8981.428"
"1915","9014.637"
"1916","9048.692"
"1917","9044.707"
"1918","8999.39"
"1919","8950.141"
"1920","8931.361"
"1921","8950.124"
"1922","9004.289"
"1923","9071.339"
"1924","9101.446"
"1925","9055.459"
"1926","8971.788"
"1927","8917.479"
"1928","8918.299"
"1929","8936.36"
"1930","8933.051"
"1931","8903.677"
"1932","8858.171"
"1933","8808.744"
"1934","8771.396"
"1935","8762.294"
"1936","8795.461"
"1937","8883.609"
"1938","9005.143"
"1939","9074.116"
"1940","9012.999"
"1941","8881.554"
"1942","8809.878"
"1943","8853.46"
"1944","8917.288"
"1945","8901.435"
"1946","8828.639"
"1947","8787.744"
"1948","8822.419"
"1949","8881.179"
"1950","8906.024"
"1951","8890.929"
"1952","8858.566"
"1953","8824.663"
"1954","8789.697"
"1955","8754.505"
"1956","8741.2"
"1957","8783.438"
"1958","8877.775"
"1959","8944.247"
"1960","8905.854"
"1961","8800.852"
"1962","8728.85"
"1963","8735.088"
"1964","8756.283"
"1965","8726.428"
"1966","8666.126"
"1967","8639.524"
"1968","8674.758"
"1969","8732.915"
"1970","8772.46"
"1971","8788.182"
"1972","8791.674"
"1973","8785.63"
"1974","8757.659"
"1975","8699.508"
"1976","8641.128"
"1977","8627.669"
"1978","8658.851"
"1979","8666.557"
"1980","8595.656"
"1981","8500.592"
"1982","8473.698"
"1983","8525.481"
"1984","8560.354"
"1985","8505.424"
"1986","8435.206"
"1987","8465.137"
"1988","8585.579"
"1989","8649.333"
"1990","8558.153"
"1991","8440.01"
"1992","8470.027"
"1993","8626.692"
"1994","8709.197"
"1995","8590.004"
"1996","8398.152"
"1997","8303.848"
"1998","8330.597"
"1999","8393.861"
"2000","8431.979"
"2001","8447.026"
"2002","8449.441"
"2003","8435.669"
"2004","8394.171"
"2005","8327.688"
"2006","8266.459"
"2007","8240.776"
"2008","8258.088"
"2009","8315.362"
"2010","8387.016"
"2011","8415.005"
"2012","8353.858"
"2013","8236.954"
"2014","8122.94"
"2015","8064.589"
"2016","8108.329"
"2017","8264.91"
"2018","8416.935"
"2019","8427.178"
"2020","8304.616"
"2021","8172.069"
"2022","8112.645"
"2023","8102.132"
"2024","8102.894"
"2025","8106.637"
"2026","8120.947"
"2027","8138.847"
"2028","8128.147"
"2029","8067.683"
"2030","8017.237"
"2031","8063.142"
"2032","8182.217"
"2033","8223.542"
"2034","8092.245"
"2035","7934.761"
"2036","7941.514"
"2037","8093.175"
"2038","8207.21"
"2039","8183.146"
"2040","8127.404"
"2041","8157.609"
"2042","8227.854"
"2043","8211.651"
"2044","8079.441"
"2045","7948.884"
"2046","7922.121"
"2047","7963.07"
"2048","7995.399"
"2049","7991.793"
"2050","7971.434"
"2051","7949.457"
"2052","7923.997"
"2053","7891.575"
"2054","7862.954"
"2055","7857.028"
"2056","7879.525"
"2057","7913.784"
"2058","7938.637"
"2059","7920.668"
"2060","7825.259"
"2061","7686.89"
"2062","7609.032"
"2063","7651.322"
"2064","7735.118"
"2065","7765.677"
"2066","7743.227"
"2067","7722.303"
"2068","7726.267"
"2069","7726.644"
"2070","7700.687"
"2071","7678.498"
"2072","7703.226"
"2073","7748.715"
"2074","7725.854"
"2075","7593.891"
"2076","7442.466"
"2077","7371.363"
"2078","7390.956"
"2079","7467.581"
"2080","7565.111"
"2081","7644.578"
"2082","7673.366"
"2083","7645.271"
"2084","7563.322"
"2085","7467.374"
"2086","7423.35"
"2087","7448.958"
"2088","7467.479"
"2089","7412.197"
"2090","7337.712"
"2091","7338.004"
"2092","7412.746"
"2093","7469.12"
"2094","7444.839"
"2095","7369.503"
"2096","7286.814"
"2097","7231.575"
"2098","7233.449"
"2099","7287.573"
"2100","7345.12"
"2101","7363.336"
"2102","7331.259"
"2103","7248.468"
"2104","7154.154"
"2105","7111.332"
"2106","7144.587"
"2107","7217.169"
"2108","7287.623"
"2109","7318.213"
"2110","7276.659"
"2111","7194.663"
"2112","7150.567"
"2113","7165.351"
"2114","7151.056"
"2115","7042.04"
"2116","6950.036"
"2117","7031.875"
"2118","7236.386"
"2119","7338.969"
"2120","7233.754"
"2121","7075.277"
"2122","7019.365"
"2123","7038.091"
"2124","7041.609"
"2125","7011.464"
"2126","6993.723"
"2127","7012.752"
"2128","7039.127"
"2129","7039.774"
"2130","7004.325"
"2131","6932.44"
"2132","6854.856"
"2133","6831.019"
"2134","6877.441"
"2135","6910.944"
"2136","6857.135"
"2137","6778.686"
"2138","6783.571"
"2139","6863.061"
"2140","6902.385"
"2141","6838.984"
"2142","6732.415"
"2143","6649.574"
"2144","6607.138"
"2145","6603.711"
"2146","6628.99"
"2147","6665.145"
"2148","6696.603"
"2149","6712.869"
"2150","6708.237"
"2151","6698.168"
"2152","6702.118"
"2153","6701.048"
"2154","6647.573"
"2155","6546.07"
"2156","6491.102"
"2157","6554.359"
"2158","6672.741"
"2159","6751.538"
"2160","6742.692"
"2161","6628.962"
"2162","6458.329"
"2163","6370.858"
"2164","6447.204"
"2165","6544.544"
"2166","6499.29"
"2167","6373.701"
"2168","6339.303"
"2169","6412.976"
"2170","6436.382"
"2171","6330.308"
"2172","6240.777"
"2173","6309.707"
"2174","6433.446"
"2175","6425.445"
"2176","6293.69"
"2177","6211.305"
"2178","6255.106"
"2179","6313.42"
"2180","6285.501"
"2181","6206.624"
"2182","6143.915"
"2183","6112.798"
"2184","6097.122"
"2185","6081.55"
"2186","6052.433"
"2187","6011.34"
"2188","6002.986"
"2189","6063.797"
"2190","6122.392"
"2191","6070.332"
"2192","5939.159"
"2193","5882.988"
"2194","5953.406"
"2195","6004.87"
"2196","5921.998"
"2197","5801.847"
"2198","5779.963"
"2199","5832.741"
"2200","5849.111"
"2201","5796.564"
"2202","5735.146"
"2203","5717.639"
"2204","5766.233"
"2205","5878.463"
"2206","5943.507"
"2207","5830.239"
"2208","5623.04"
"2209","5554.42"
"2210","5671.339"
"2211","5753.704"
"2212","5665.421"
"2213","5577.403"
"2214","5668.832"
"2215","5807.268"
"2216","5752.286"
"2217","5523.574"
"2218","5348.652"
"2219","5333.05"
"2220","5379.147"
"2221","5403.453"
"2222","5427.68"
"2223","5484.038"
"2224","5528.327"
"2225","5489.403"
"2226","5399.454"
"2227","5377.167"
"2228","5455.226"
"2229","5520.983"
"2230","5486.455"
"2231","5389.942"
"2232","5289.342"
"2233","5197.623"
"2234","5110.899"
"2235","5060.68"
"2236","5106.393"
"2237","5230.578"
"2238","5295.087"
"2239","5212.745"
"2240","5083.846"
"2241","5025.97"
"2242","5040.986"
"2243","5084.503"
"2244","5087.538"
"2245","4965.911"
"2246","4761.495"
"2247","4687.859"
"2248","4844.947"
"2249","5008.256"
"2250","4960.162"
"2251","4784.104"
"2252","4647.566"
"2253","4589.938"
"2254","4573.454"
"2255","4569.269"
"2256","4559.607"
"2257","4534.312"
"2258","4497.479"
"2259","4453.198"
"2260","4398.989"
"2261","4332.862"
"2262","4268.403"
"2263","4225.091"
"2264","4201.604"
"2265","4179.697"
"2266","4154.81"
"2267","4143.08"
"2268","4141.049"
"2269","4089.272"
"2270","3940.317"
"2271","3753.033"
"2272","3613.387"
"2273","3546.699"
"2274","3543.355"
"2275","3579.674"
"2276","3618.44"
"2277","3622.095"
"2278","3553.699"
"2279","3400.661"
"2280","3224.93"
"2281","3093.853"
"2282","3023.413"
"2283","3008.383"
"2284","3008.25"
"2285","2963.248"
"2286","2880.107"
"2287","2835.13"
"2288","2854.194"
"2289","2867.551"
"2290","2823.272"
"2291","2755.724"
"2292","2700.183"
"2293","2603.644"
"2294","2397.127"
"2295","2165.935"
"2296","2079.775"
"2297","2133.533"
"2298","2149.657"
"2299","2061.405"
"2300","1994.959"
