,"Scan 01115"
"400","11612.18"
"401","11610.09"
"402","11598.01"
"403","11570.31"
"404","11533.41"
"405","11497.56"
"406","11472.93"
"407","11467.96"
"408","11477.48"
"409","11489.83"
"410","11493.39"
"411","11477.68"
"412","11446.27"
"413","11412.48"
"414","11389.71"
"415","11390.75"
"416","11416.07"
"417","11454.2"
"418","11493.22"
"419","11521.5"
"420","11534.47"
"421","11537.11"
"422","11535.04"
"423","11533.8"
"424","11536.8"
"425","11543.53"
"426","11553.04"
"427","11564.4"
"428","11575.19"
"429","11579.31"
"430","11570.09"
"431","11540.94"
"432","11490.15"
"433","11432.39"
"434","11385.73"
"435","11368.11"
"436","11391.76"
"437","11443.64"
"438","11503.66"
"439","11551.84"
"440","11571.34"
"441","11563.15"
"442","11534.79"
"443","11493.76"
"444","11447.77"
"445","11406.68"
"446","11381.3"
"447","11382.38"
"448","11418.45"
"449","11476.19"
"450","11529.7"
"451","11553.12"
"452","11523.12"
"453","11447.81"
"454","11357.28"
"455","11281.89"
"456","11250.15"
"457","11262.42"
"458","11295.71"
"459","11326.42"
"460","11331.98"
"461","11308.82"
"462","11271.84"
"463","11236.59"
"464","11218.07"
"465","11217.17"
"466","11219.13"
"467","11208.41"
"468","11170.01"
"469","11104.53"
"470","11032.26"
"471","10974.64"
"472","10952.66"
"473","10970.89"
"474","11010.87"
"475","11052.49"
"476","11075.99"
"477","11073.25"
"478","11054.13"
"479","11030.03"
"480","11012.15"
"481","11005.43"
"482","11004.33"
"483","11002.35"
"484","10993.07"
"485","10974.15"
"486","10950.5"
"487","10927.72"
"488","10911.37"
"489","10904.1"
"490","10903.12"
"491","10905.07"
"492","10906.6"
"493","10903.86"
"494","10891.93"
"495","10865.81"
"496","10820.6"
"497","10756.6"
"498","10684.35"
"499","10615.5"
"500","10561.6"
"501","10528.1"
"502","10508.64"
"503","10495.57"
"504","10481.27"
"505","10459.73"
"506","10427.98"
"507","10383.42"
"508","10323.5"
"509","10251.05"
"510","10178.84"
"511","10120.66"
"512","10090.11"
"513","10091.23"
"514","10111.25"
"515","10135.79"
"516","10150.61"
"517","10147.02"
"518","10125.49"
"519","10087.3"
"520","10033.85"
"521","9971.019"
"522","9911.617"
"523","9868.961"
"524","9856.016"
"525","9872.877"
"526","9901.799"
"527","9923.811"
"528","9920.45"
"529","9887.985"
"530","9841.003"
"531","9795.163"
"532","9765.655"
"533","9756.575"
"534","9759.819"
"535","9766.684"
"536","9768.798"
"537","9763.929"
"538","9755.745"
"539","9748.134"
"540","9744.71"
"541","9744.756"
"542","9743.975"
"543","9737.979"
"544","9722.665"
"545","9697.386"
"546","9663.907"
"547","9624.034"
"548","9580.001"
"549","9538.465"
"550","9508.656"
"551","9499.784"
"552","9518.896"
"553","9556.072"
"554","9593.365"
"555","9612.859"
"556","9600.21"
"557","9562.599"
"558","9515.375"
"559","9473.82"
"560","9450.277"
"561","9443.377"
"562","9447.686"
"563","9457.802"
"564","9469.188"
"565","9480.373"
"566","9490.578"
"567","9499.036"
"568","9505.182"
"569","9508.989"
"570","9510.542"
"571","9509.905"
"572","9506.426"
"573","9497.965"
"574","9482.212"
"575","9456.924"
"576","9423.256"
"577","9387.568"
"578","9356.642"
"579","9337.033"
"580","9329.459"
"581","9327.983"
"582","9326.327"
"583","9318.663"
"584","9306.487"
"585","9297.446"
"586","9299.344"
"587","9318.892"
"588","9351.281"
"589","9384.699"
"590","9407.291"
"591","9409.263"
"592","9395.099"
"593","9375.395"
"594","9360.727"
"595","9359.051"
"596","9366.185"
"597","9374.43"
"598","9376.114"
"599","9366.105"
"600","9347.097"
"601","9323.295"
"602","9298.869"
"603","9276.729"
"604","9257.19"
"605","9240.239"
"606","9225.867"
"607","9213.581"
"608","9202.238"
"609","9190.654"
"610","9177.809"
"611","9165.997"
"612","9160.578"
"613","9167.019"
"614","9189.957"
"615","9225.363"
"616","9263.908"
"617","9296.217"
"618","9314.391"
"619","9319.634"
"620","9316.695"
"621","9310.32"
"622","9303.38"
"623","9291.669"
"624","9269.314"
"625","9230.486"
"626","9175.035"
"627","9115.873"
"628","9067.701"
"629","9044.932"
"630","9050.61"
"631","9071.671"
"632","9093.873"
"633","9103.636"
"634","9098.918"
"635","9087.8"
"636","9078.699"
"637","9079.154"
"638","9088.984"
"639","9103.896"
"640","9119.555"
"641","9131.762"
"642","9136.869"
"643","9131.403"
"644","9111.915"
"645","9078.926"
"646","9043.959"
"647","9020.391"
"648","9021.394"
"649","9049.32"
"650","9089.42"
"651","9125.485"
"652","9142.007"
"653","9136.754"
"654","9119.719"
"655","9101.313"
"656","9090.729"
"657","9086.451"
"658","9081.336"
"659","9068.212"
"660","9043.473"
"661","9019.684"
"662","9013.975"
"663","9043.386"
"664","9112.177"
"665","9194.254"
"666","9259.171"
"667","9277.208"
"668","9243.399"
"669","9184.798"
"670","9130.519"
"671","9107.647"
"672","9117.436"
"673","9142.77"
"674","9166.2"
"675","9172.843"
"676","9163.148"
"677","9143.3"
"678","9119.466"
"679","9097.117"
"680","9079.698"
"681","9070.263"
"682","9071.786"
"683","9082.811"
"684","9095.22"
"685","9100.353"
"686","9090.289"
"687","9068.109"
"688","9045.573"
"689","9034.646"
"690","9045.079"
"691","9072.414"
"692","9106.541"
"693","9137.376"
"694","9157.609"
"695","9168.263"
"696","9171.906"
"697","9171.063"
"698","9166.498"
"699","9156.396"
"700","9138.75"
"701","9112.075"
"702","9082.026"
"703","9059.452"
"704","9055.298"
"705","9077.252"
"706","9114.922"
"707","9151.655"
"708","9170.855"
"709","9163.807"
"710","9141.358"
"711","9117.315"
"712","9105.221"
"713","9111.105"
"714","9132.188"
"715","9165.182"
"716","9206.205"
"717","9245.478"
"718","9269.923"
"719","9266.455"
"720","9228.691"
"721","9176.61"
"722","9136.66"
"723","9135"
"724","9178.332"
"725","9239.849"
"726","9289.47"
"727","9298.962"
"728","9268.426"
"729","9220.499"
"730","9178.409"
"731","9161.686"
"732","9169.032"
"733","9191.822"
"734","9221.44"
"735","9250.6"
"736","9275.079"
"737","9291.091"
"738","9294.987"
"739","9286.157"
"740","9267.092"
"741","9240.43"
"742","9209.417"
"743","9181.819"
"744","9167.441"
"745","9176.062"
"746","9211.349"
"747","9259.467"
"748","9303.503"
"749","9326.895"
"750","9323.947"
"751","9301.986"
"752","9269.104"
"753","9233.444"
"754","9203.674"
"755","9188.729"
"756","9197.541"
"757","9233.631"
"758","9283.299"
"759","9329.441"
"760","9355.341"
"761","9358.082"
"762","9352.465"
"763","9354.452"
"764","9377.645"
"765","9414.438"
"766","9445.902"
"767","9453.026"
"768","9424.568"
"769","9374.26"
"770","9320.834"
"771","9282.776"
"772","9270.143"
"773","9282.395"
"774","9318.333"
"775","9375.889"
"776","9445.66"
"777","9514.521"
"778","9569.34"
"779","9601.419"
"780","9615.103"
"781","9617.12"
"782","9614.139"
"783","9611.022"
"784","9610.613"
"785","9615.641"
"786","9627.963"
"787","9643.158"
"788","9654.067"
"789","9653.528"
"790","9638.167"
"791","9613.915"
"792","9588.102"
"793","9567.937"
"794","9558.27"
"795","9561.746"
"796","9580.934"
"797","9616.528"
"798","9658.915"
"799","9694.921"
"800","9711.455"
"801","9704.332"
"802","9686.161"
"803","9671.413"
"804","9673.313"
"805","9688.694"
"806","9702.788"
"807","9700.597"
"808","9673.235"
"809","9635.832"
"810","9609.383"
"811","9614.481"
"812","9655.294"
"813","9713.788"
"814","9770.382"
"815","9807.197"
"816","9820.354"
"817","9812.851"
"818","9787.73"
"819","9750.606"
"820","9713.612"
"821","9689.913"
"822","9691.945"
"823","9718.433"
"824","9755.753"
"825","9789.856"
"826","9809.268"
"827","9815.092"
"828","9812.295"
"829","9805.811"
"830","9798.936"
"831","9792.387"
"832","9786.652"
"833","9782.459"
"834","9782.814"
"835","9791.981"
"836","9814.222"
"837","9849.649"
"838","9886.932"
"839","9912.794"
"840","9914.687"
"841","9894.385"
"842","9866.887"
"843","9847.687"
"844","9848.481"
"845","9862.714"
"846","9878.344"
"847","9883.505"
"848","9875.676"
"849","9866.234"
"850","9867.685"
"851","9890.743"
"852","9931.235"
"853","9977.575"
"854","10018.13"
"855","10044.37"
"856","10055.1"
"857","10050.2"
"858","10029.75"
"859","9997.196"
"860","9958.585"
"861","9920.02"
"862","9888.751"
"863","9876.333"
"864","9895.324"
"865","9957.532"
"866","10052.3"
"867","10143.1"
"868","10191.99"
"869","10170.25"
"870","10103"
"871","10034.91"
"872","10010.28"
"873","10047.05"
"874","10119.08"
"875","10196.05"
"876","10250.13"
"877","10275.96"
"878","10280.08"
"879","10269.14"
"880","10249.69"
"881","10228.15"
"882","10210.88"
"883","10203.85"
"884","10207.27"
"885","10217.04"
"886","10229.02"
"887","10239.67"
"888","10247.63"
"889","10251.98"
"890","10252.02"
"891","10251.93"
"892","10260.7"
"893","10287.53"
"894","10337.97"
"895","10400.49"
"896","10458.61"
"897","10496.14"
"898","10507.13"
"899","10498.9"
"900","10479.66"
"901","10457.68"
"902","10441.4"
"903","10439.36"
"904","10459.98"
"905","10501.41"
"906","10544.92"
"907","10570.17"
"908","10560.14"
"909","10525.11"
"910","10488.73"
"911","10474.69"
"912","10494.6"
"913","10535.15"
"914","10579.94"
"915","10613.74"
"916","10633.86"
"917","10645.18"
"918","10652.69"
"919","10657.84"
"920","10653.18"
"921","10629.89"
"922","10580.7"
"923","10519.96"
"924","10477.62"
"925","10483.97"
"926","10553.86"
"927","10655.45"
"928","10748.12"
"929","10793.14"
"930","10784.62"
"931","10744.24"
"932","10694.52"
"933","10653.81"
"934","10625.72"
"935","10610.56"
"936","10608.51"
"937","10616.57"
"938","10628.68"
"939","10638.66"
"940","10641.41"
"941","10636.17"
"942","10623.27"
"943","10603.24"
"944","10581.92"
"945","10570.7"
"946","10581.27"
"947","10619.46"
"948","10665.16"
"949","10691.04"
"950","10670.7"
"951","10605.35"
"952","10527.64"
"953","10471.96"
"954","10465.06"
"955","10497.08"
"956","10547.17"
"957","10594.74"
"958","10628.18"
"959","10646.68"
"960","10650.08"
"961","10639.55"
"962","10622.96"
"963","10610.33"
"964","10611.38"
"965","10626.1"
"966","10642.31"
"967","10647.09"
"968","10630.85"
"969","10601.34"
"970","10571.93"
"971","10555.78"
"972","10557.45"
"973","10570.71"
"974","10588.64"
"975","10604.69"
"976","10614.27"
"977","10613.43"
"978","10598.4"
"979","10571.54"
"980","10542.88"
"981","10522.93"
"982","10520.12"
"983","10532.13"
"984","10553.21"
"985","10577.69"
"986","10601.34"
"987","10621.79"
"988","10636.75"
"989","10644.06"
"990","10642.14"
"991","10629.57"
"992","10605.24"
"993","10576.01"
"994","10558.1"
"995","10568.23"
"996","10617.04"
"997","10687.34"
"998","10753.98"
"999","10792.5"
"1000","10797.32"
"1001","10783.34"
"1002","10766.48"
"1003","10759.35"
"1004","10760.52"
"1005","10764.9"
"1006","10767.41"
"1007","10765.23"
"1008","10761.31"
"1009","10759.46"
"1010","10763.03"
"1011","10770.42"
"1012","10777.09"
"1013","10778.52"
"1014","10773.67"
"1015","10768.39"
"1016","10769.37"
"1017","10781.85"
"1018","10800.21"
"1019","10813.89"
"1020","10812.46"
"1021","10794.34"
"1022","10771.16"
"1023","10755.63"
"1024","10758.19"
"1025","10777.09"
"1026","10806.51"
"1027","10840.69"
"1028","10875.98"
"1029","10911.08"
"1030","10944.78"
"1031","10975.65"
"1032","11001.42"
"1033","11019.59"
"1034","11027.91"
"1035","11027.49"
"1036","11022.11"
"1037","11015.6"
"1038","11012.31"
"1039","11017.74"
"1040","11037.61"
"1041","11075.87"
"1042","11120.81"
"1043","11152.36"
"1044","11150.62"
"1045","11112.5"
"1046","11062.25"
"1047","11026.66"
"1048","11027.16"
"1049","11056.19"
"1050","11096.28"
"1051","11130.36"
"1052","11151.61"
"1053","11163.93"
"1054","11171.71"
"1055","11177.94"
"1056","11181.09"
"1057","11178.65"
"1058","11168.48"
"1059","11152.49"
"1060","11135.18"
"1061","11121.14"
"1062","11115.34"
"1063","11123.45"
"1064","11151.25"
"1065","11201.82"
"1066","11261.75"
"1067","11311.29"
"1068","11331.26"
"1069","11319.4"
"1070","11292.25"
"1071","11267.34"
"1072","11257.37"
"1073","11259.17"
"1074","11266.34"
"1075","11272.63"
"1076","11274.1"
"1077","11268.21"
"1078","11252.49"
"1079","11229.1"
"1080","11208.23"
"1081","11200.87"
"1082","11215.43"
"1083","11246.3"
"1084","11283.26"
"1085","11316.23"
"1086","11338.76"
"1087","11347.79"
"1088","11340.37"
"1089","11317.16"
"1090","11288.06"
"1091","11264.44"
"1092","11256.1"
"1093","11260.27"
"1094","11268.14"
"1095","11271"
"1096","11265.68"
"1097","11255.99"
"1098","11246.25"
"1099","11239.09"
"1100","11231.37"
"1101","11218.62"
"1102","11197.14"
"1103","11171.57"
"1104","11151.74"
"1105","11147.44"
"1106","11160.95"
"1107","11182.42"
"1108","11200.92"
"1109","11208"
"1110","11206.25"
"1111","11201.34"
"1112","11198.68"
"1113","11200.21"
"1114","11205.27"
"1115","11213.14"
"1116","11221.44"
"1117","11224.84"
"1118","11217.63"
"1119","11197.07"
"1120","11175.29"
"1121","11169.18"
"1122","11194.27"
"1123","11243.82"
"1124","11292.96"
"1125","11316.39"
"1126","11302.93"
"1127","11269.43"
"1128","11236.1"
"1129","11219"
"1130","11212.25"
"1131","11202.73"
"1132","11178.06"
"1133","11137.99"
"1134","11092.23"
"1135","11050.78"
"1136","11021.88"
"1137","11010.32"
"1138","11020.53"
"1139","11055.03"
"1140","11106.93"
"1141","11166.39"
"1142","11223.5"
"1143","11267.63"
"1144","11287.57"
"1145","11272.23"
"1146","11222.83"
"1147","11162.17"
"1148","11115.27"
"1149","11101.69"
"1150","11117.3"
"1151","11151.55"
"1152","11193.95"
"1153","11234.74"
"1154","11264.63"
"1155","11274.5"
"1156","11263.86"
"1157","11244.87"
"1158","11230.66"
"1159","11231.56"
"1160","11248.32"
"1161","11279.65"
"1162","11323.51"
"1163","11371.47"
"1164","11411.81"
"1165","11433.14"
"1166","11433.5"
"1167","11421.56"
"1168","11406.5"
"1169","11394.14"
"1170","11381.94"
"1171","11366.1"
"1172","11344.07"
"1173","11320.72"
"1174","11303.63"
"1175","11299.83"
"1176","11307.68"
"1177","11318.68"
"1178","11324.22"
"1179","11321.63"
"1180","11318.17"
"1181","11322.05"
"1182","11338.42"
"1183","11361.18"
"1184","11381.59"
"1185","11391.85"
"1186","11392.06"
"1187","11386.38"
"1188","11379.04"
"1189","11375.41"
"1190","11381.96"
"1191","11405.25"
"1192","11445.16"
"1193","11487.09"
"1194","11514.58"
"1195","11515.9"
"1196","11501.96"
"1197","11490.4"
"1198","11496.81"
"1199","11514.37"
"1200","11522.33"
"1201","11500.37"
"1202","11450.9"
"1203","11404.17"
"1204","11392.12"
"1205","11428.74"
"1206","11484.05"
"1207","11521.46"
"1208","11513.37"
"1209","11478.9"
"1210","11452.23"
"1211","11464.27"
"1212","11507.01"
"1213","11547.31"
"1214","11552.33"
"1215","11516.15"
"1216","11465.94"
"1217","11430.91"
"1218","11428.45"
"1219","11447.92"
"1220","11474.59"
"1221","11496.71"
"1222","11516.61"
"1223","11540.91"
"1224","11574.84"
"1225","11609.66"
"1226","11628.49"
"1227","11615.11"
"1228","11573.19"
"1229","11527.8"
"1230","11504.98"
"1231","11518"
"1232","11554.82"
"1233","11600.42"
"1234","11641.27"
"1235","11669.49"
"1236","11678.54"
"1237","11663.62"
"1238","11632.98"
"1239","11600.84"
"1240","11580.88"
"1241","11578.19"
"1242","11590.84"
"1243","11616.62"
"1244","11650.86"
"1245","11685.33"
"1246","11711.53"
"1247","11724.52"
"1248","11728.46"
"1249","11729"
"1250","11731.52"
"1251","11740.31"
"1252","11759.33"
"1253","11791.12"
"1254","11825.31"
"1255","11844.63"
"1256","11832.83"
"1257","11795.09"
"1258","11756.14"
"1259","11741.15"
"1260","11756.52"
"1261","11779.87"
"1262","11786.35"
"1263","11763.1"
"1264","11728.91"
"1265","11707.69"
"1266","11717.51"
"1267","11749.07"
"1268","11785.1"
"1269","11810.08"
"1270","11823.39"
"1271","11831.87"
"1272","11841.88"
"1273","11851.51"
"1274","11851.99"
"1275","11834.62"
"1276","11800.6"
"1277","11764.27"
"1278","11740.86"
"1279","11737.27"
"1280","11742.6"
"1281","11743.68"
"1282","11731.56"
"1283","11712.48"
"1284","11696.03"
"1285","11690.39"
"1286","11695.16"
"1287","11706.78"
"1288","11721.5"
"1289","11734.03"
"1290","11738.16"
"1291","11728.23"
"1292","11710.21"
"1293","11700.75"
"1294","11716.6"
"1295","11759.03"
"1296","11807.54"
"1297","11840.08"
"1298","11846.39"
"1299","11841.8"
"1300","11844.96"
"1301","11866.88"
"1302","11892.52"
"1303","11901.3"
"1304","11879.07"
"1305","11845.97"
"1306","11833.67"
"1307","11868.81"
"1308","11934.82"
"1309","11993.07"
"1310","12007.21"
"1311","11976.9"
"1312","11928.98"
"1313","11890.4"
"1314","11872.1"
"1315","11867.4"
"1316","11868.77"
"1317","11869.07"
"1318","11861.89"
"1319","11840.87"
"1320","11806.7"
"1321","11776.27"
"1322","11768.77"
"1323","11794.57"
"1324","11834.22"
"1325","11861.96"
"1326","11858.18"
"1327","11834.09"
"1328","11810.47"
"1329","11805.48"
"1330","11817.62"
"1331","11836.52"
"1332","11852.63"
"1333","11865.57"
"1334","11880.76"
"1335","11902.92"
"1336","11923.11"
"1337","11920.53"
"1338","11874.94"
"1339","11795.43"
"1340","11725.53"
"1341","11710.16"
"1342","11759.23"
"1343","11827.24"
"1344","11863.87"
"1345","11842.75"
"1346","11788.79"
"1347","11733.52"
"1348","11699.82"
"1349","11685.4"
"1350","11683.45"
"1351","11688.5"
"1352","11700.45"
"1353","11720.52"
"1354","11748.79"
"1355","11779.33"
"1356","11804.23"
"1357","11816.44"
"1358","11815.56"
"1359","11804.11"
"1360","11784.44"
"1361","11757.03"
"1362","11721.31"
"1363","11677.45"
"1364","11636.39"
"1365","11616.92"
"1366","11636.75"
"1367","11689.29"
"1368","11745.47"
"1369","11775.98"
"1370","11769.44"
"1371","11735.03"
"1372","11683.2"
"1373","11630.38"
"1374","11601.54"
"1375","11622.03"
"1376","11690.95"
"1377","11761.38"
"1378","11781.86"
"1379","11731.56"
"1380","11655.76"
"1381","11608.34"
"1382","11620.03"
"1383","11660.05"
"1384","11687.58"
"1385","11676.65"
"1386","11649.53"
"1387","11638.23"
"1388","11663.88"
"1389","11704.53"
"1390","11727.61"
"1391","11709.4"
"1392","11668.54"
"1393","11636.24"
"1394","11637.48"
"1395","11661.8"
"1396","11686.11"
"1397","11690.47"
"1398","11676.2"
"1399","11653.46"
"1400","11632"
"1401","11617.61"
"1402","11614.2"
"1403","11624.66"
"1404","11641.84"
"1405","11653.09"
"1406","11646.69"
"1407","11622.29"
"1408","11586.68"
"1409","11546.85"
"1410","11510.96"
"1411","11487.95"
"1412","11486.4"
"1413","11508.58"
"1414","11551.77"
"1415","11612.61"
"1416","11678.41"
"1417","11728.38"
"1418","11742.33"
"1419","11719.07"
"1420","11675.41"
"1421","11628.67"
"1422","11590.55"
"1423","11566.96"
"1424","11563.36"
"1425","11579.7"
"1426","11609.87"
"1427","11647.36"
"1428","11683.55"
"1429","11707.36"
"1430","11708.05"
"1431","11692.95"
"1432","11692.03"
"1433","11735.95"
"1434","11823.97"
"1435","11914.04"
"1436","11961.97"
"1437","11955.85"
"1438","11928.06"
"1439","11913.75"
"1440","11926.88"
"1441","11951.26"
"1442","11968.57"
"1443","11969.16"
"1444","11956.03"
"1445","11933.22"
"1446","11906.99"
"1447","11886.85"
"1448","11882.51"
"1449","11897.5"
"1450","11926.13"
"1451","11961.87"
"1452","11991.35"
"1453","11991.07"
"1454","11937.18"
"1455","11833.01"
"1456","11722.23"
"1457","11651.26"
"1458","11638.56"
"1459","11661.77"
"1460","11695.4"
"1461","11720.87"
"1462","11729.47"
"1463","11713.45"
"1464","11674.04"
"1465","11624.93"
"1466","11580.58"
"1467","11549.04"
"1468","11529.92"
"1469","11522.08"
"1470","11518.86"
"1471","11506.66"
"1472","11471.87"
"1473","11417.08"
"1474","11364.23"
"1475","11335.83"
"1476","11337.39"
"1477","11355.33"
"1478","11375.07"
"1479","11383.06"
"1480","11366.87"
"1481","11315.15"
"1482","11240.38"
"1483","11178.03"
"1484","11162.68"
"1485","11194.49"
"1486","11243.07"
"1487","11278.14"
"1488","11288.6"
"1489","11278.81"
"1490","11253.82"
"1491","11222.4"
"1492","11195.98"
"1493","11184.96"
"1494","11186.73"
"1495","11190.23"
"1496","11185.79"
"1497","11179.15"
"1498","11184.88"
"1499","11214.58"
"1500","11253.65"
"1501","11274.3"
"1502","11253.58"
"1503","11203.91"
"1504","11153.13"
"1505","11125.14"
"1506","11119.5"
"1507","11126.69"
"1508","11137.16"
"1509","11141.19"
"1510","11129.02"
"1511","11096.22"
"1512","11060.87"
"1513","11046.94"
"1514","11069.71"
"1515","11113.96"
"1516","11157.83"
"1517","11184.2"
"1518","11189.5"
"1519","11172.62"
"1520","11136.62"
"1521","11094.4"
"1522","11060.27"
"1523","11044.23"
"1524","11048.06"
"1525","11072.46"
"1526","11107.25"
"1527","11125.37"
"1528","11099.06"
"1529","11031.08"
"1530","10962.89"
"1531","10936.7"
"1532","10952.24"
"1533","10965.71"
"1534","10934.26"
"1535","10863.99"
"1536","10801.24"
"1537","10789.27"
"1538","10820.31"
"1539","10853.35"
"1540","10851.95"
"1541","10824.5"
"1542","10802.28"
"1543","10811.56"
"1544","10845.37"
"1545","10883.63"
"1546","10910.31"
"1547","10928.7"
"1548","10947.83"
"1549","10972.51"
"1550","10992.59"
"1551","10994.63"
"1552","10974.1"
"1553","10949.72"
"1554","10943.86"
"1555","10963.46"
"1556","10985.4"
"1557","10983.48"
"1558","10951.5"
"1559","10912.35"
"1560","10890.32"
"1561","10885.2"
"1562","10870.25"
"1563","10819.87"
"1564","10748.36"
"1565","10702.2"
"1566","10723.11"
"1567","10793.61"
"1568","10861.25"
"1569","10880.03"
"1570","10852.11"
"1571","10800.09"
"1572","10746.81"
"1573","10715.69"
"1574","10730.36"
"1575","10798.35"
"1576","10874.64"
"1577","10903.59"
"1578","10861.97"
"1579","10799.55"
"1580","10775.48"
"1581","10808.56"
"1582","10854.15"
"1583","10863.53"
"1584","10829.33"
"1585","10789.78"
"1586","10782.77"
"1587","10805.44"
"1588","10823.57"
"1589","10806.54"
"1590","10763.99"
"1591","10726.8"
"1592","10719.94"
"1593","10733.75"
"1594","10746.26"
"1595","10742.04"
"1596","10729.7"
"1597","10723.3"
"1598","10732.57"
"1599","10756.95"
"1600","10794.26"
"1601","10835.48"
"1602","10860.84"
"1603","10850.51"
"1604","10805.81"
"1605","10750.09"
"1606","10706.56"
"1607","10683.57"
"1608","10679.2"
"1609","10691.26"
"1610","10716.7"
"1611","10752.14"
"1612","10792.97"
"1613","10829.35"
"1614","10849.97"
"1615","10850.72"
"1616","10846.91"
"1617","10856.89"
"1618","10883.72"
"1619","10904.61"
"1620","10895.17"
"1621","10854.26"
"1622","10805.56"
"1623","10772.46"
"1624","10758.4"
"1625","10753.4"
"1626","10749.51"
"1627","10754.28"
"1628","10781.73"
"1629","10837.58"
"1630","10894.88"
"1631","10918.73"
"1632","10895.16"
"1633","10858.19"
"1634","10847.83"
"1635","10871.16"
"1636","10889.79"
"1637","10864.69"
"1638","10803.52"
"1639","10753.36"
"1640","10756.46"
"1641","10803.22"
"1642","10857.93"
"1643","10890.08"
"1644","10894.51"
"1645","10873.32"
"1646","10836.96"
"1647","10817.2"
"1648","10848.58"
"1649","10928.9"
"1650","11001.53"
"1651","11008.66"
"1652","10952.52"
"1653","10887.51"
"1654","10863.73"
"1655","10879.39"
"1656","10906.66"
"1657","10923.31"
"1658","10932.77"
"1659","10945.46"
"1660","10959.64"
"1661","10944.93"
"1662","10867.97"
"1663","10744.04"
"1664","10652.58"
"1665","10670.75"
"1666","10778.35"
"1667","10882.48"
"1668","10902.37"
"1669","10850.98"
"1670","10779.75"
"1671","10730.65"
"1672","10713.03"
"1673","10729.13"
"1674","10768.08"
"1675","10795.51"
"1676","10776.23"
"1677","10711.64"
"1678","10638.95"
"1679","10593.31"
"1680","10576.82"
"1681","10574.12"
"1682","10572.86"
"1683","10574.67"
"1684","10584.89"
"1685","10600.14"
"1686","10598.17"
"1687","10555.31"
"1688","10480.5"
"1689","10419.83"
"1690","10415.59"
"1691","10447.12"
"1692","10455.72"
"1693","10399.91"
"1694","10324.36"
"1695","10299.68"
"1696","10352.52"
"1697","10407.02"
"1698","10375.32"
"1699","10256.74"
"1700","10153.92"
"1701","10164.25"
"1702","10262.75"
"1703","10349.85"
"1704","10348.38"
"1705","10292.89"
"1706","10250.83"
"1707","10260.09"
"1708","10293.06"
"1709","10314.4"
"1710","10318.61"
"1711","10332.95"
"1712","10381.05"
"1713","10436.46"
"1714","10445.34"
"1715","10373.81"
"1716","10270.27"
"1717","10203.67"
"1718","10204.48"
"1719","10231.5"
"1720","10237.78"
"1721","10218.62"
"1722","10207.6"
"1723","10233.17"
"1724","10277.15"
"1725","10301.18"
"1726","10281.25"
"1727","10237.52"
"1728","10198.36"
"1729","10181.82"
"1730","10191.45"
"1731","10227.93"
"1732","10270.44"
"1733","10283.8"
"1734","10244.6"
"1735","10187.07"
"1736","10162.54"
"1737","10192.12"
"1738","10234.65"
"1739","10243.25"
"1740","10212.65"
"1741","10177.11"
"1742","10167.57"
"1743","10180"
"1744","10195.39"
"1745","10201.61"
"1746","10206.71"
"1747","10221.96"
"1748","10244.85"
"1749","10255.41"
"1750","10235.51"
"1751","10196.3"
"1752","10165.7"
"1753","10161.8"
"1754","10164.68"
"1755","10145.72"
"1756","10099.69"
"1757","10058.44"
"1758","10054.24"
"1759","10081.5"
"1760","10108"
"1761","10107.81"
"1762","10087.23"
"1763","10061.94"
"1764","10043.05"
"1765","10033.08"
"1766","10033.25"
"1767","10038.93"
"1768","10040.8"
"1769","10032.22"
"1770","10021.97"
"1771","10023.92"
"1772","10043.9"
"1773","10070.95"
"1774","10092.7"
"1775","10109.02"
"1776","10130.48"
"1777","10164.05"
"1778","10193.78"
"1779","10195.58"
"1780","10161.12"
"1781","10116.16"
"1782","10089.63"
"1783","10085.26"
"1784","10084.43"
"1785","10072.25"
"1786","10059.7"
"1787","10066.87"
"1788","10099.93"
"1789","10135.7"
"1790","10148.53"
"1791","10134.85"
"1792","10109.82"
"1793","10088.15"
"1794","10078.83"
"1795","10088.88"
"1796","10114.1"
"1797","10128.75"
"1798","10107.38"
"1799","10065.07"
"1800","10047.82"
"1801","10086.27"
"1802","10137.42"
"1803","10137.86"
"1804","10069.69"
"1805","9989.79"
"1806","9957.698"
"1807","9982.608"
"1808","10041.45"
"1809","10108.1"
"1810","10147.46"
"1811","10123.45"
"1812","10047.21"
"1813","9992.537"
"1814","10024.79"
"1815","10100.07"
"1816","10119.29"
"1817","10031.49"
"1818","9919.783"
"1819","9886.625"
"1820","9944.67"
"1821","10015.78"
"1822","10031.12"
"1823","10002.17"
"1824","9969.885"
"1825","9957.742"
"1826","9954.621"
"1827","9946.385"
"1828","9933.518"
"1829","9927.096"
"1830","9935.445"
"1831","9954.986"
"1832","9979.124"
"1833","9998.971"
"1834","10002.56"
"1835","9981.417"
"1836","9957.335"
"1837","9966.698"
"1838","10022.61"
"1839","10079.88"
"1840","10087.01"
"1841","10042.53"
"1842","9988.664"
"1843","9963.156"
"1844","9975.298"
"1845","10025.72"
"1846","10097.78"
"1847","10148.66"
"1848","10138.62"
"1849","10076.19"
"1850","9995.468"
"1851","9928.356"
"1852","9900.164"
"1853","9932.884"
"1854","10005.26"
"1855","10057.59"
"1856","10045.84"
"1857","10005.45"
"1858","9994.04"
"1859","10026.23"
"1860","10054.51"
"1861","10034.67"
"1862","9989.136"
"1863","9972.68"
"1864","10010.09"
"1865","10055.83"
"1866","10057.7"
"1867","10015.07"
"1868","9966.833"
"1869","9939.939"
"1870","9912.277"
"1871","9851.815"
"1872","9778.438"
"1873","9772.529"
"1874","9894.222"
"1875","10060.4"
"1876","10135.49"
"1877","10073.17"
"1878","9982.171"
"1879","9973.696"
"1880","10031.01"
"1881","10066.01"
"1882","10031.02"
"1883","9984.047"
"1884","9994.663"
"1885","10048.87"
"1886","10065.78"
"1887","9994.191"
"1888","9901.443"
"1889","9879.899"
"1890","9939.342"
"1891","9997.977"
"1892","9986.724"
"1893","9931.618"
"1894","9890.072"
"1895","9889.245"
"1896","9910.774"
"1897","9934.159"
"1898","9951.467"
"1899","9960.502"
"1900","9958.613"
"1901","9942.164"
"1902","9909.131"
"1903","9875.862"
"1904","9869.81"
"1905","9904.243"
"1906","9954.961"
"1907","9992.67"
"1908","10003.57"
"1909","9985.738"
"1910","9943.599"
"1911","9901.738"
"1912","9887.689"
"1913","9900.456"
"1914","9911.947"
"1915","9901.51"
"1916","9884.477"
"1917","9884.931"
"1918","9904.379"
"1919","9918.551"
"1920","9909.408"
"1921","9898.445"
"1922","9918.912"
"1923","9964.688"
"1924","9976.813"
"1925","9908.659"
"1926","9812.249"
"1927","9775.808"
"1928","9821.636"
"1929","9870.471"
"1930","9848.468"
"1931","9782.684"
"1932","9743.262"
"1933","9764.896"
"1934","9820.88"
"1935","9878.23"
"1936","9903.138"
"1937","9861.66"
"1938","9757.893"
"1939","9667.374"
"1940","9663.112"
"1941","9725.366"
"1942","9786.772"
"1943","9809.229"
"1944","9814.059"
"1945","9827.239"
"1946","9851.86"
"1947","9878.619"
"1948","9895.855"
"1949","9887.344"
"1950","9839.567"
"1951","9770.662"
"1952","9716.199"
"1953","9692.972"
"1954","9678.005"
"1955","9647.394"
"1956","9616.261"
"1957","9621.106"
"1958","9671.761"
"1959","9722.682"
"1960","9727.746"
"1961","9698.981"
"1962","9679.367"
"1963","9686.04"
"1964","9684.553"
"1965","9640.868"
"1966","9576.741"
"1967","9541.96"
"1968","9558.954"
"1969","9599.295"
"1970","9630.823"
"1971","9635.533"
"1972","9602.274"
"1973","9542.601"
"1974","9506.014"
"1975","9534.609"
"1976","9594.256"
"1977","9619.709"
"1978","9590.471"
"1979","9552.955"
"1980","9549.415"
"1981","9564.887"
"1982","9564.24"
"1983","9538.234"
"1984","9511.221"
"1985","9503.152"
"1986","9501.05"
"1987","9482.631"
"1988","9448.705"
"1989","9425.487"
"1990","9432.133"
"1991","9453.974"
"1992","9468.248"
"1993","9461.038"
"1994","9426.48"
"1995","9370.994"
"1996","9339.266"
"1997","9378.366"
"1998","9459.733"
"1999","9499.123"
"2000","9451.366"
"2001","9372.3"
"2002","9326.359"
"2003","9306.838"
"2004","9266.117"
"2005","9191.207"
"2006","9136.376"
"2007","9152.818"
"2008","9213.386"
"2009","9257.125"
"2010","9260.035"
"2011","9251.823"
"2012","9258.356"
"2013","9263.703"
"2014","9239.329"
"2015","9180.246"
"2016","9106.767"
"2017","9043.146"
"2018","9023.104"
"2019","9077.853"
"2020","9166.165"
"2021","9190.475"
"2022","9112.442"
"2023","9045.66"
"2024","9105.795"
"2025","9205.365"
"2026","9147.192"
"2027","8884.495"
"2028","8630.313"
"2029","8584.957"
"2030","8716.259"
"2031","8907.146"
"2032","9075.507"
"2033","9180.243"
"2034","9194.191"
"2035","9134.857"
"2036","9032.097"
"2037","8941.166"
"2038","8936.992"
"2039","9035.655"
"2040","9111.431"
"2041","9039.694"
"2042","8883.818"
"2043","8799.892"
"2044","8835.201"
"2045","8871.694"
"2046","8812.289"
"2047","8732.114"
"2048","8753.239"
"2049","8867.786"
"2050","8944.587"
"2051","8898.216"
"2052","8789.29"
"2053","8700.052"
"2054","8665.814"
"2055","8694.318"
"2056","8762.581"
"2057","8796.461"
"2058","8737.1"
"2059","8636.062"
"2060","8579.298"
"2061","8585.728"
"2062","8607.304"
"2063","8607.723"
"2064","8594.088"
"2065","8580.95"
"2066","8577.724"
"2067","8590.636"
"2068","8608.353"
"2069","8591.118"
"2070","8512.779"
"2071","8428.9"
"2072","8416.66"
"2073","8472.932"
"2074","8521.598"
"2075","8511.948"
"2076","8465.753"
"2077","8415.136"
"2078","8382.281"
"2079","8384.056"
"2080","8416.063"
"2081","8445.184"
"2082","8445.891"
"2083","8431.038"
"2084","8421.646"
"2085","8420.729"
"2086","8418.424"
"2087","8407.002"
"2088","8383.454"
"2089","8346.687"
"2090","8303.602"
"2091","8263.913"
"2092","8235.647"
"2093","8225.148"
"2094","8234.138"
"2095","8252.211"
"2096","8267.706"
"2097","8275.192"
"2098","8272.004"
"2099","8246.93"
"2100","8177.853"
"2101","8064.474"
"2102","7985.12"
"2103","8022.997"
"2104","8124.773"
"2105","8154.648"
"2106","8075.38"
"2107","8007.353"
"2108","8046.751"
"2109","8122.036"
"2110","8123.715"
"2111","8054.906"
"2112","8001.31"
"2113","8009.801"
"2114","8051.156"
"2115","8088.702"
"2116","8090.796"
"2117","8030.398"
"2118","7933.417"
"2119","7869.839"
"2120","7867.571"
"2121","7863.427"
"2122","7802.572"
"2123","7745.011"
"2124","7785.968"
"2125","7905.821"
"2126","7981.338"
"2127","7952.087"
"2128","7906.636"
"2129","7931.416"
"2130","7975.883"
"2131","7942.527"
"2132","7825.682"
"2133","7705.082"
"2134","7637.17"
"2135","7617.98"
"2136","7633.141"
"2137","7655.673"
"2138","7655.5"
"2139","7635.836"
"2140","7630.071"
"2141","7647.347"
"2142","7641.741"
"2143","7572.58"
"2144","7470.453"
"2145","7389.764"
"2146","7361.795"
"2147","7397.984"
"2148","7478.67"
"2149","7523.969"
"2150","7471.354"
"2151","7381.989"
"2152","7348.958"
"2153","7364.795"
"2154","7347.122"
"2155","7272.358"
"2156","7221.288"
"2157","7257.515"
"2158","7328.13"
"2159","7355.688"
"2160","7334.295"
"2161","7302.835"
"2162","7273.371"
"2163","7218.705"
"2164","7133.3"
"2165","7094.135"
"2166","7177.417"
"2167","7303.496"
"2168","7318.173"
"2169","7202.24"
"2170","7089.312"
"2171","7065.054"
"2172","7071.956"
"2173","7044.377"
"2174","7005.729"
"2175","7009.488"
"2176","7039.766"
"2177","7021.975"
"2178","6936.455"
"2179","6868.825"
"2180","6883.374"
"2181","6902.907"
"2182","6827.326"
"2183","6722.316"
"2184","6750.971"
"2185","6914.285"
"2186","7000.159"
"2187","6877.944"
"2188","6691.691"
"2189","6608.2"
"2190","6616.373"
"2191","6635.094"
"2192","6643.783"
"2193","6675.092"
"2194","6729.586"
"2195","6745.295"
"2196","6680.557"
"2197","6605.203"
"2198","6606.042"
"2199","6654.134"
"2200","6657.241"
"2201","6590.573"
"2202","6508.623"
"2203","6449.841"
"2204","6402.779"
"2205","6357.188"
"2206","6349.18"
"2207","6422.326"
"2208","6512.746"
"2209","6483.552"
"2210","6332.211"
"2211","6248.446"
"2212","6340.24"
"2213","6432.03"
"2214","6340.972"
"2215","6174.922"
"2216","6144.523"
"2217","6251.484"
"2218","6330.424"
"2219","6305.679"
"2220","6251.625"
"2221","6224.319"
"2222","6176.606"
"2223","6057.182"
"2224","5933.647"
"2225","5917.197"
"2226","5986.509"
"2227","6008.81"
"2228","5925.771"
"2229","5806.866"
"2230","5723.669"
"2231","5715.024"
"2232","5800.517"
"2233","5911.719"
"2234","5947.161"
"2235","5880.759"
"2236","5749.007"
"2237","5616.264"
"2238","5587.056"
"2239","5702.288"
"2240","5798.512"
"2241","5710.208"
"2242","5503.516"
"2243","5328.966"
"2244","5267.967"
"2245","5348.809"
"2246","5502.424"
"2247","5529.274"
"2248","5336.234"
"2249","5128.5"
"2250","5103.825"
"2251","5177.481"
"2252","5188.986"
"2253","5131.235"
"2254","5087.914"
"2255","5085.833"
"2256","5087.825"
"2257","5068.75"
"2258","5034.32"
"2259","4994.098"
"2260","4958.166"
"2261","4932.703"
"2262","4893.391"
"2263","4804.466"
"2264","4672.596"
"2265","4539.439"
"2266","4442.066"
"2267","4409.169"
"2268","4434.362"
"2269","4420.415"
"2270","4288.898"
"2271","4130.459"
"2272","4074.387"
"2273","4110.12"
"2274","4148.793"
"2275","4124.796"
"2276","3997.335"
"2277","3799.817"
"2278","3690.862"
"2279","3754.546"
"2280","3808.28"
"2281","3672.766"
"2282","3478.284"
"2283","3438.522"
"2284","3484.665"
"2285","3382.414"
"2286","3134.119"
"2287","2991.708"
"2288","3071.231"
"2289","3225.568"
"2290","3304.891"
"2291","3236.457"
"2292","2994.272"
"2293","2731.136"
"2294","2642.057"
"2295","2709.529"
"2296","2791.575"
"2297","2798.104"
"2298","2692.907"
"2299","2504.071"
"2300","2360.718"
