,"Scan 01134"
"400","15664.22"
"401","15677.69"
"402","15665.56"
"403","15617.08"
"404","15547.25"
"405","15479.24"
"406","15436.06"
"407","15437.26"
"408","15475.67"
"409","15531.33"
"410","15584.31"
"411","15615.84"
"412","15620.2"
"413","15600.81"
"414","15561.23"
"415","15505.21"
"416","15441.66"
"417","15384.49"
"418","15347.7"
"419","15344.91"
"420","15376.76"
"421","15426.47"
"422","15476.15"
"423","15508.11"
"424","15512.36"
"425","15492.95"
"426","15455.43"
"427","15405.31"
"428","15348.99"
"429","15295.24"
"430","15253.11"
"431","15231.58"
"432","15236.11"
"433","15260.27"
"434","15295.18"
"435","15332.02"
"436","15362.92"
"437","15384.1"
"438","15392.91"
"439","15386.76"
"440","15364.09"
"441","15329.64"
"442","15290.42"
"443","15253.4"
"444","15224.77"
"445","15205.09"
"446","15192.25"
"447","15184.17"
"448","15178.77"
"449","15174.08"
"450","15168.17"
"451","15159.13"
"452","15145.29"
"453","15127.77"
"454","15109.69"
"455","15094.19"
"456","15084.04"
"457","15076.24"
"458","15063.04"
"459","15036.55"
"460","14989.46"
"461","14925.26"
"462","14857.98"
"463","14802.01"
"464","14771.16"
"465","14766.12"
"466","14772.92"
"467","14776.89"
"468","14763.77"
"469","14731.27"
"470","14692.16"
"471","14660.13"
"472","14648.55"
"473","14660.2"
"474","14682.95"
"475","14703.62"
"476","14709.28"
"477","14696.02"
"478","14673.94"
"479","14654.29"
"480","14648.11"
"481","14658.42"
"482","14674.84"
"483","14685.73"
"484","14679.64"
"485","14652.28"
"486","14612.14"
"487","14568.99"
"488","14532.48"
"489","14507.91"
"490","14492.49"
"491","14482.58"
"492","14474.55"
"493","14465.08"
"494","14451.5"
"495","14431.17"
"496","14401.53"
"497","14361.09"
"498","14310.51"
"499","14250.68"
"500","14182.51"
"501","14109.37"
"502","14039.35"
"503","13981.07"
"504","13943.01"
"505","13926.51"
"506","13919.21"
"507","13907.28"
"508","13877.05"
"509","13823.61"
"510","13758.22"
"511","13693.82"
"512","13643.21"
"513","13612.71"
"514","13597.33"
"515","13590.92"
"516","13587.42"
"517","13582.65"
"518","13575.6"
"519","13565.54"
"520","13551.78"
"521","13535.49"
"522","13520.67"
"523","13511.54"
"524","13512.17"
"525","13520.96"
"526","13528.47"
"527","13524.71"
"528","13499.98"
"529","13452.3"
"530","13389.32"
"531","13319.27"
"532","13250.29"
"533","13189.76"
"534","13144.22"
"535","13120.13"
"536","13123.44"
"537","13149.71"
"538","13184.5"
"539","13213.04"
"540","13221.34"
"541","13207.2"
"542","13178.17"
"543","13142.06"
"544","13106.41"
"545","13075.64"
"546","13052"
"547","13037.64"
"548","13034.11"
"549","13036.4"
"550","13035.74"
"551","13023.33"
"552","12991.92"
"553","12946.23"
"554","12896.67"
"555","12853.61"
"556","12825.92"
"557","12813.33"
"558","12812.13"
"559","12818.57"
"560","12828.9"
"561","12839.06"
"562","12844.9"
"563","12842.31"
"564","12829.59"
"565","12813.78"
"566","12803.88"
"567","12808.81"
"568","12831.41"
"569","12857.91"
"570","12871.8"
"571","12856.69"
"572","12807.9"
"573","12744.55"
"574","12688.63"
"575","12661.71"
"576","12669.23"
"577","12691.83"
"578","12708.15"
"579","12697.5"
"580","12657.33"
"581","12605.73"
"582","12561.85"
"583","12543.83"
"584","12553.89"
"585","12580.82"
"586","12613.04"
"587","12639.62"
"588","12656.09"
"589","12661.92"
"590","12656.64"
"591","12640.34"
"592","12616.88"
"593","12591.76"
"594","12570.48"
"595","12557.24"
"596","12550.36"
"597","12546.41"
"598","12542.01"
"599","12534.83"
"600","12525.84"
"601","12516.63"
"602","12508.78"
"603","12502.5"
"604","12495.15"
"605","12483.75"
"606","12465.4"
"607","12439.57"
"608","12409.02"
"609","12376.75"
"610","12345.77"
"611","12319.65"
"612","12302.46"
"613","12298.26"
"614","12310.37"
"615","12333.78"
"616","12358.45"
"617","12374.31"
"618","12372.92"
"619","12356.28"
"620","12330.4"
"621","12301.28"
"622","12274.25"
"623","12252.12"
"624","12237.07"
"625","12231.27"
"626","12234.07"
"627","12238.29"
"628","12235.85"
"629","12218.89"
"630","12187.51"
"631","12153.11"
"632","12127.92"
"633","12123.47"
"634","12138.96"
"635","12162.79"
"636","12183"
"637","12188.8"
"638","12179.5"
"639","12159.81"
"640","12134.49"
"641","12108.03"
"642","12083.71"
"643","12064.42"
"644","12053.06"
"645","12051.13"
"646","12056.39"
"647","12065.99"
"648","12077.05"
"649","12086.85"
"650","12092.88"
"651","12092.64"
"652","12083.92"
"653","12069.31"
"654","12055.9"
"655","12050.89"
"656","12060.56"
"657","12083"
"658","12111.96"
"659","12141.19"
"660","12164.87"
"661","12179.24"
"662","12181.09"
"663","12167.26"
"664","12138.75"
"665","12106.5"
"666","12082.87"
"667","12079.92"
"668","12099.14"
"669","12128.37"
"670","12154.58"
"671","12165.5"
"672","12158.53"
"673","12137.95"
"674","12108.18"
"675","12073.72"
"676","12039.79"
"677","12011.86"
"678","11995.37"
"679","11992.85"
"680","11998.26"
"681","12003.95"
"682","12002.45"
"683","11992.56"
"684","11982.56"
"685","11981.49"
"686","11997.58"
"687","12026.57"
"688","12054.32"
"689","12066.48"
"690","12052.01"
"691","12021.14"
"692","11992.52"
"693","11984.8"
"694","12007.8"
"695","12045.06"
"696","12075.24"
"697","12077.35"
"698","12046.26"
"699","11999.86"
"700","11957.79"
"701","11938.35"
"702","11941.39"
"703","11953.32"
"704","11960.3"
"705","11951.52"
"706","11932.96"
"707","11916.47"
"708","11913.81"
"709","11930.9"
"710","11958.99"
"711","11987.12"
"712","12004.61"
"713","12008.02"
"714","12002.44"
"715","11993.43"
"716","11986.12"
"717","11981.73"
"718","11979.26"
"719","11977.68"
"720","11976.74"
"721","11979.12"
"722","11988.24"
"723","12007.45"
"724","12034.57"
"725","12057.91"
"726","12064.84"
"727","12043.83"
"728","11999.99"
"729","11951.66"
"730","11917.54"
"731","11912.58"
"732","11930.68"
"733","11958.33"
"734","11982.05"
"735","11993.38"
"736","11995.43"
"737","11992.96"
"738","11990.61"
"739","11990.45"
"740","11991.89"
"741","11994.27"
"742","11996.63"
"743","11996.22"
"744","11989.47"
"745","11972.79"
"746","11946.12"
"747","11919.43"
"748","11904.43"
"749","11912.54"
"750","11944.67"
"751","11989.23"
"752","12033.87"
"753","12067.15"
"754","12085.19"
"755","12088"
"756","12075.63"
"757","12050.85"
"758","12025.19"
"759","12011.91"
"760","12023.9"
"761","12061.1"
"762","12106.76"
"763","12143.08"
"764","12154.28"
"765","12142.67"
"766","12120.28"
"767","12099.17"
"768","12087.63"
"769","12081.69"
"770","12074.94"
"771","12061.18"
"772","12041.68"
"773","12027.11"
"774","12028.73"
"775","12055.9"
"776","12101.73"
"777","12151.12"
"778","12188.92"
"779","12206.34"
"780","12213.36"
"781","12223.36"
"782","12249.24"
"783","12289.97"
"784","12328.79"
"785","12348.08"
"786","12333.69"
"787","12295.97"
"788","12256.05"
"789","12235.08"
"790","12243.72"
"791","12267.07"
"792","12286.31"
"793","12283.58"
"794","12259.28"
"795","12230.87"
"796","12216.45"
"797","12230.09"
"798","12263.7"
"799","12301.51"
"800","12327.83"
"801","12334.05"
"802","12324.91"
"803","12306.65"
"804","12285.39"
"805","12266.06"
"806","12252.7"
"807","12249.34"
"808","12258.63"
"809","12277.87"
"810","12303.02"
"811","12330.07"
"812","12355.56"
"813","12376.77"
"814","12391.04"
"815","12396.17"
"816","12393.87"
"817","12387.72"
"818","12381.31"
"819","12376.79"
"820","12372.5"
"821","12366.24"
"822","12355.94"
"823","12342.74"
"824","12330.64"
"825","12323.74"
"826","12325.34"
"827","12334.75"
"828","12350.06"
"829","12369.39"
"830","12390.4"
"831","12410.1"
"832","12425.44"
"833","12433.75"
"834","12435.66"
"835","12433.67"
"836","12430.27"
"837","12427.76"
"838","12427.77"
"839","12431.85"
"840","12441.37"
"841","12453.83"
"842","12463.26"
"843","12463.53"
"844","12450.4"
"845","12428.67"
"846","12405.89"
"847","12389.56"
"848","12385.17"
"849","12395.27"
"850","12422.16"
"851","12466.92"
"852","12520.62"
"853","12569.33"
"854","12599.1"
"855","12603.27"
"856","12592.35"
"857","12579.36"
"858","12576.63"
"859","12586.3"
"860","12602.64"
"861","12619.7"
"862","12632.62"
"863","12640.64"
"864","12643.93"
"865","12642.77"
"866","12640.61"
"867","12644.52"
"868","12661.76"
"869","12696.97"
"870","12739.35"
"871","12772.52"
"872","12780.23"
"873","12757.42"
"874","12717.68"
"875","12676.36"
"876","12647.84"
"877","12637.51"
"878","12646.02"
"879","12673.97"
"880","12717.11"
"881","12759.69"
"882","12784.22"
"883","12774.9"
"884","12738.73"
"885","12699.62"
"886","12681.86"
"887","12701.06"
"888","12743.67"
"889","12790"
"890","12821.13"
"891","12834.99"
"892","12846.23"
"893","12870.25"
"894","12916.8"
"895","12969.65"
"896","13005.04"
"897","12999.8"
"898","12954.32"
"899","12899.51"
"900","12868.3"
"901","12886.78"
"902","12938.18"
"903","12989.26"
"904","13007.06"
"905","12981.37"
"906","12939.64"
"907","12912.86"
"908","12927.58"
"909","12973.97"
"910","13024.31"
"911","13050.86"
"912","13040.02"
"913","13007.4"
"914","12972.27"
"915","12952.61"
"916","12953.1"
"917","12970.35"
"918","13000.83"
"919","13038.13"
"920","13068.52"
"921","13077.12"
"922","13050.58"
"923","12996.39"
"924","12937.11"
"925","12895.62"
"926","12888.06"
"927","12910.1"
"928","12953.57"
"929","13010.16"
"930","13069.16"
"931","13117.87"
"932","13143.48"
"933","13139.1"
"934","13118.47"
"935","13099.92"
"936","13100.89"
"937","13120.02"
"938","13138.08"
"939","13135.16"
"940","13098.24"
"941","13042.25"
"942","12989.11"
"943","12960.15"
"944","12961.16"
"945","12981.54"
"946","13009.97"
"947","13035.97"
"948","13053"
"949","13055.64"
"950","13038.74"
"951","13005.92"
"952","12970.72"
"953","12947.24"
"954","12946.58"
"955","12965.57"
"956","12996.72"
"957","13032.51"
"958","13064.5"
"959","13083.16"
"960","13078.85"
"961","13045.83"
"962","12997.83"
"963","12954.75"
"964","12936.09"
"965","12947.09"
"966","12975.23"
"967","13006.9"
"968","13030.13"
"969","13041.64"
"970","13040.98"
"971","13027.81"
"972","13006.97"
"973","12989.77"
"974","12987.93"
"975","13008.88"
"976","13037.65"
"977","13052"
"978","13030.22"
"979","12970.44"
"980","12895.63"
"981","12830.3"
"982","12795.46"
"983","12794.14"
"984","12823.66"
"985","12881.03"
"986","12953.12"
"987","13014.49"
"988","13038.96"
"989","13008.54"
"990","12945.33"
"991","12883.69"
"992","12857.19"
"993","12875.06"
"994","12918.36"
"995","12966.56"
"996","13002.73"
"997","13026.36"
"998","13041.65"
"999","13052.65"
"1000","13059.29"
"1001","13057.03"
"1002","13041.11"
"1003","13009.75"
"1004","12973.66"
"1005","12946.85"
"1006","12943.31"
"1007","12968.45"
"1008","13006.15"
"1009","13036.95"
"1010","13043.23"
"1011","13026.54"
"1012","12999.75"
"1013","12975.84"
"1014","12964.07"
"1015","12966.39"
"1016","12983.87"
"1017","13016.66"
"1018","13057.88"
"1019","13097.44"
"1020","13125.33"
"1021","13137.2"
"1022","13137.18"
"1023","13130.08"
"1024","13120.91"
"1025","13115.64"
"1026","13120.56"
"1027","13141.68"
"1028","13177.18"
"1029","13216.58"
"1030","13248.95"
"1031","13266.18"
"1032","13270.5"
"1033","13266.56"
"1034","13258.98"
"1035","13251.78"
"1036","13248.5"
"1037","13252.72"
"1038","13266.43"
"1039","13287.87"
"1040","13314.69"
"1041","13344.49"
"1042","13374.23"
"1043","13400.58"
"1044","13420.15"
"1045","13429.41"
"1046","13424.47"
"1047","13401.42"
"1048","13359.37"
"1049","13313.95"
"1050","13286.38"
"1051","13296.99"
"1052","13342.57"
"1053","13395.26"
"1054","13426.02"
"1055","13416.24"
"1056","13381.13"
"1057","13342.77"
"1058","13322.06"
"1059","13325.91"
"1060","13352.07"
"1061","13398.11"
"1062","13456.66"
"1063","13510.95"
"1064","13543.18"
"1065","13539.85"
"1066","13514.2"
"1067","13489.69"
"1068","13489.14"
"1069","13517.1"
"1070","13557.79"
"1071","13594.36"
"1072","13614.17"
"1073","13618.54"
"1074","13611.63"
"1075","13597.58"
"1076","13580.27"
"1077","13563.41"
"1078","13550.68"
"1079","13544.33"
"1080","13544.08"
"1081","13549.37"
"1082","13558.99"
"1083","13568.16"
"1084","13570.9"
"1085","13561.58"
"1086","13541.64"
"1087","13519.12"
"1088","13502.3"
"1089","13495.05"
"1090","13489.69"
"1091","13476.72"
"1092","13448.7"
"1093","13414.34"
"1094","13390.13"
"1095","13392.18"
"1096","13420.46"
"1097","13454.32"
"1098","13471.76"
"1099","13457.96"
"1100","13423.44"
"1101","13384.35"
"1102","13355.71"
"1103","13339.88"
"1104","13331.36"
"1105","13324.54"
"1106","13316.26"
"1107","13307.22"
"1108","13298.5"
"1109","13291.69"
"1110","13290.79"
"1111","13300.44"
"1112","13324.62"
"1113","13357.58"
"1114","13386.33"
"1115","13397.78"
"1116","13386.68"
"1117","13362.42"
"1118","13335.97"
"1119","13316.54"
"1120","13304.39"
"1121","13296.92"
"1122","13291.59"
"1123","13286.89"
"1124","13282.16"
"1125","13276.75"
"1126","13271.05"
"1127","13267.5"
"1128","13268.78"
"1129","13276.86"
"1130","13289.88"
"1131","13304.78"
"1132","13318.47"
"1133","13328.01"
"1134","13330.6"
"1135","13323.49"
"1136","13307.94"
"1137","13293.08"
"1138","13288.98"
"1139","13302.23"
"1140","13322.07"
"1141","13332.31"
"1142","13317.92"
"1143","13281.14"
"1144","13237.37"
"1145","13202.29"
"1146","13185.81"
"1147","13187.81"
"1148","13207.1"
"1149","13240.2"
"1150","13273.41"
"1151","13290.32"
"1152","13276.42"
"1153","13240.19"
"1154","13205.03"
"1155","13194.32"
"1156","13215.57"
"1157","13253.2"
"1158","13289.78"
"1159","13312.8"
"1160","13326.46"
"1161","13338.52"
"1162","13355.42"
"1163","13372.42"
"1164","13379.02"
"1165","13365.23"
"1166","13336.17"
"1167","13313.88"
"1168","13321.27"
"1169","13366.46"
"1170","13420.99"
"1171","13450.86"
"1172","13429.91"
"1173","13378.09"
"1174","13332.03"
"1175","13325.97"
"1176","13355.96"
"1177","13387.75"
"1178","13386.6"
"1179","13343.84"
"1180","13294.4"
"1181","13277.34"
"1182","13317.76"
"1183","13389.07"
"1184","13452.76"
"1185","13474.77"
"1186","13459.96"
"1187","13433.22"
"1188","13418.94"
"1189","13424.47"
"1190","13439.14"
"1191","13451.4"
"1192","13454.7"
"1193","13453.32"
"1194","13452.96"
"1195","13458.25"
"1196","13468.72"
"1197","13482.39"
"1198","13497.28"
"1199","13511.46"
"1200","13523"
"1201","13530.08"
"1202","13533.57"
"1203","13537.68"
"1204","13546.84"
"1205","13561.94"
"1206","13575.24"
"1207","13577.72"
"1208","13562.64"
"1209","13535.16"
"1210","13504.31"
"1211","13478.8"
"1212","13463.87"
"1213","13462.5"
"1214","13477.48"
"1215","13506.94"
"1216","13543.2"
"1217","13578.22"
"1218","13604.38"
"1219","13615.09"
"1220","13603.89"
"1221","13568.23"
"1222","13524.44"
"1223","13494.5"
"1224","13497.43"
"1225","13522.24"
"1226","13540.38"
"1227","13524.23"
"1228","13476.66"
"1229","13433.3"
"1230","13431.26"
"1231","13484.83"
"1232","13563.27"
"1233","13630.52"
"1234","13659.96"
"1235","13660.77"
"1236","13650.59"
"1237","13645.17"
"1238","13645.92"
"1239","13647.79"
"1240","13645.87"
"1241","13638.45"
"1242","13626.42"
"1243","13610.83"
"1244","13596.59"
"1245","13594.11"
"1246","13614.26"
"1247","13659.37"
"1248","13710.01"
"1249","13743.31"
"1250","13742.46"
"1251","13719.66"
"1252","13695.75"
"1253","13689.66"
"1254","13703.05"
"1255","13728.34"
"1256","13757.91"
"1257","13784.73"
"1258","13802.38"
"1259","13804.54"
"1260","13791.9"
"1261","13775.91"
"1262","13768.91"
"1263","13776.87"
"1264","13788.99"
"1265","13791.68"
"1266","13776.22"
"1267","13756.41"
"1268","13752.64"
"1269","13781.47"
"1270","13827.35"
"1271","13858.68"
"1272","13845.99"
"1273","13797.54"
"1274","13752.6"
"1275","13750.56"
"1276","13797.24"
"1277","13854.06"
"1278","13879.52"
"1279","13852.96"
"1280","13798.57"
"1281","13746.29"
"1282","13718.55"
"1283","13710.77"
"1284","13712.4"
"1285","13714.26"
"1286","13715.43"
"1287","13718.05"
"1288","13724.14"
"1289","13734.16"
"1290","13747.68"
"1291","13764.16"
"1292","13780.93"
"1293","13793.42"
"1294","13797.1"
"1295","13794.44"
"1296","13797.73"
"1297","13819.93"
"1298","13863.29"
"1299","13906.79"
"1300","13926.37"
"1301","13906.82"
"1302","13863.01"
"1303","13816.16"
"1304","13784.74"
"1305","13772.22"
"1306","13777.07"
"1307","13797.24"
"1308","13826.12"
"1309","13854.77"
"1310","13874.7"
"1311","13884.36"
"1312","13887.38"
"1313","13887.49"
"1314","13885.76"
"1315","13880.43"
"1316","13869.61"
"1317","13851.14"
"1318","13822.46"
"1319","13781.03"
"1320","13731.09"
"1321","13692.58"
"1322","13687.65"
"1323","13726.65"
"1324","13780.05"
"1325","13809.81"
"1326","13787.32"
"1327","13730.9"
"1328","13673.54"
"1329","13644.29"
"1330","13643.17"
"1331","13657.11"
"1332","13673.53"
"1333","13685.77"
"1334","13690.9"
"1335","13686.24"
"1336","13672.6"
"1337","13653.84"
"1338","13633.84"
"1339","13614.84"
"1340","13597.11"
"1341","13580.8"
"1342","13564.94"
"1343","13546.74"
"1344","13523.29"
"1345","13496.64"
"1346","13479.38"
"1347","13485.49"
"1348","13519.85"
"1349","13560.95"
"1350","13582.47"
"1351","13567.09"
"1352","13532.88"
"1353","13506.69"
"1354","13510.63"
"1355","13541.44"
"1356","13587.37"
"1357","13635.64"
"1358","13666.27"
"1359","13656.07"
"1360","13586.44"
"1361","13484.92"
"1362","13405.41"
"1363","13398.17"
"1364","13457.86"
"1365","13538.55"
"1366","13594.85"
"1367","13611.41"
"1368","13600.47"
"1369","13575.14"
"1370","13543.47"
"1371","13507.65"
"1372","13469.68"
"1373","13436.3"
"1374","13421.09"
"1375","13437.96"
"1376","13486.18"
"1377","13539.38"
"1378","13568.58"
"1379","13556.92"
"1380","13513.62"
"1381","13451.29"
"1382","13384.12"
"1383","13330.3"
"1384","13308.75"
"1385","13328.62"
"1386","13367.52"
"1387","13396.66"
"1388","13395.06"
"1389","13372.68"
"1390","13347.04"
"1391","13332.3"
"1392","13326.4"
"1393","13322.5"
"1394","13314.25"
"1395","13298.46"
"1396","13272.96"
"1397","13237.6"
"1398","13205.57"
"1399","13195.64"
"1400","13222.69"
"1401","13270.31"
"1402","13306.9"
"1403","13304.51"
"1404","13270.79"
"1405","13233.15"
"1406","13216.95"
"1407","13222.21"
"1408","13233.05"
"1409","13234.29"
"1410","13224.01"
"1411","13209.6"
"1412","13198.86"
"1413","13202.28"
"1414","13232.46"
"1415","13300.55"
"1416","13389.83"
"1417","13459.46"
"1418","13469.65"
"1419","13421.28"
"1420","13353.77"
"1421","13307.1"
"1422","13297.01"
"1423","13314.23"
"1424","13348.36"
"1425","13389.33"
"1426","13427.4"
"1427","13453.08"
"1428","13464.97"
"1429","13471.21"
"1430","13480.44"
"1431","13499.09"
"1432","13530.78"
"1433","13578.77"
"1434","13638.13"
"1435","13693.15"
"1436","13727.68"
"1437","13739.43"
"1438","13745.1"
"1439","13762.56"
"1440","13798.58"
"1441","13844.14"
"1442","13888.99"
"1443","13920.58"
"1444","13923.04"
"1445","13880.71"
"1446","13803.12"
"1447","13737.07"
"1448","13731.65"
"1449","13792.89"
"1450","13862.53"
"1451","13877.73"
"1452","13816.93"
"1453","13720.27"
"1454","13632.59"
"1455","13577.38"
"1456","13546.46"
"1457","13529.14"
"1458","13517.39"
"1459","13507.11"
"1460","13494.49"
"1461","13476.85"
"1462","13453.01"
"1463","13422"
"1464","13385.47"
"1465","13348.68"
"1466","13317.02"
"1467","13289.78"
"1468","13258.08"
"1469","13212.75"
"1470","13153.86"
"1471","13093.13"
"1472","13042.84"
"1473","13007.59"
"1474","12982.88"
"1475","12963.75"
"1476","12948.47"
"1477","12938.96"
"1478","12937.02"
"1479","12936.88"
"1480","12924.84"
"1481","12887.53"
"1482","12826.83"
"1483","12759.35"
"1484","12702.05"
"1485","12666.75"
"1486","12660.73"
"1487","12689.78"
"1488","12738.87"
"1489","12776.15"
"1490","12771.54"
"1491","12726.53"
"1492","12665.49"
"1493","12612.25"
"1494","12577.9"
"1495","12565.27"
"1496","12575.44"
"1497","12593.54"
"1498","12595.51"
"1499","12561.85"
"1500","12512.74"
"1501","12488.34"
"1502","12521.35"
"1503","12589.8"
"1504","12647.91"
"1505","12658.2"
"1506","12634.31"
"1507","12608.9"
"1508","12606.9"
"1509","12613.96"
"1510","12603.28"
"1511","12557.73"
"1512","12500.8"
"1513","12466.7"
"1514","12477.86"
"1515","12515.54"
"1516","12552.02"
"1517","12568.43"
"1518","12571.08"
"1519","12570.78"
"1520","12571.51"
"1521","12561.29"
"1522","12525.96"
"1523","12465.18"
"1524","12405.12"
"1525","12374.57"
"1526","12379.53"
"1527","12390.41"
"1528","12375.29"
"1529","12330.8"
"1530","12289.83"
"1531","12286.11"
"1532","12317.52"
"1533","12345.19"
"1534","12331.02"
"1535","12278.45"
"1536","12225.01"
"1537","12206.3"
"1538","12222.85"
"1539","12252.24"
"1540","12273.31"
"1541","12279.03"
"1542","12269.62"
"1543","12246.34"
"1544","12216.87"
"1545","12191.44"
"1546","12178.59"
"1547","12178.88"
"1548","12190.51"
"1549","12210.86"
"1550","12234.59"
"1551","12255.71"
"1552","12270.14"
"1553","12278.74"
"1554","12283.16"
"1555","12285.11"
"1556","12286.48"
"1557","12289.08"
"1558","12291.76"
"1559","12289.01"
"1560","12275.16"
"1561","12249.5"
"1562","12216.65"
"1563","12181.6"
"1564","12150.71"
"1565","12131.4"
"1566","12129.9"
"1567","12139.29"
"1568","12144.9"
"1569","12134.19"
"1570","12110.02"
"1571","12081.8"
"1572","12057.81"
"1573","12040.71"
"1574","12031.55"
"1575","12033.02"
"1576","12053.36"
"1577","12101.83"
"1578","12170.66"
"1579","12213.67"
"1580","12180.18"
"1581","12068.47"
"1582","11953.7"
"1583","11915.48"
"1584","11967.42"
"1585","12050.41"
"1586","12104.36"
"1587","12111.35"
"1588","12085.92"
"1589","12044.57"
"1590","12013.69"
"1591","12024.93"
"1592","12097.42"
"1593","12178.71"
"1594","12191.04"
"1595","12089.09"
"1596","11946.7"
"1597","11864.79"
"1598","11893.78"
"1599","11964.26"
"1600","11990.33"
"1601","11942.86"
"1602","11881.45"
"1603","11871.22"
"1604","11922.48"
"1605","11988.56"
"1606","12023.27"
"1607","12020.53"
"1608","12001.89"
"1609","11988.14"
"1610","11990.47"
"1611","12015.83"
"1612","12065.34"
"1613","12114.41"
"1614","12131.36"
"1615","12102.37"
"1616","12061.88"
"1617","12052.04"
"1618","12085.42"
"1619","12124.7"
"1620","12129.12"
"1621","12093.94"
"1622","12052.99"
"1623","12038.91"
"1624","12045.44"
"1625","12040.03"
"1626","11997.45"
"1627","11945.73"
"1628","11935.07"
"1629","11996.58"
"1630","12086.06"
"1631","12140.98"
"1632","12129.17"
"1633","12088.19"
"1634","12064.63"
"1635","12073.25"
"1636","12084.79"
"1637","12068.82"
"1638","12030.8"
"1639","12006.45"
"1640","12027.82"
"1641","12087.39"
"1642","12157.69"
"1643","12214.81"
"1644","12252.21"
"1645","12268.32"
"1646","12264.14"
"1647","12247.17"
"1648","12225.88"
"1649","12204.65"
"1650","12181.83"
"1651","12155.61"
"1652","12130.4"
"1653","12116.02"
"1654","12121.39"
"1655","12146.2"
"1656","12185.48"
"1657","12232.39"
"1658","12271.89"
"1659","12286.68"
"1660","12264.13"
"1661","12202.66"
"1662","12102.87"
"1663","11989.64"
"1664","11919.82"
"1665","11946.96"
"1666","12044.53"
"1667","12126.25"
"1668","12118.6"
"1669","12044.11"
"1670","11964.72"
"1671","11925.71"
"1672","11915.08"
"1673","11908.74"
"1674","11889.78"
"1675","11854.2"
"1676","11799.82"
"1677","11735.55"
"1678","11681.11"
"1679","11653.61"
"1680","11642.33"
"1681","11621.76"
"1682","11574.97"
"1683","11523.04"
"1684","11497.23"
"1685","11510.65"
"1686","11536.94"
"1687","11545.24"
"1688","11524.82"
"1689","11487.99"
"1690","11448.06"
"1691","11415.45"
"1692","11398.84"
"1693","11402.55"
"1694","11410.01"
"1695","11398.31"
"1696","11359.05"
"1697","11317.67"
"1698","11303.54"
"1699","11318.15"
"1700","11329.87"
"1701","11309.64"
"1702","11277.28"
"1703","11282.39"
"1704","11358.27"
"1705","11458.89"
"1706","11514.87"
"1707","11493.45"
"1708","11442.94"
"1709","11420.91"
"1710","11437.79"
"1711","11452.24"
"1712","11425.49"
"1713","11367.71"
"1714","11315.85"
"1715","11298.43"
"1716","11308.5"
"1717","11330.13"
"1718","11349.43"
"1719","11356.23"
"1720","11341.67"
"1721","11313.92"
"1722","11296.62"
"1723","11308.92"
"1724","11333.96"
"1725","11339.29"
"1726","11307.14"
"1727","11264.92"
"1728","11248.09"
"1729","11264.9"
"1730","11285.5"
"1731","11279.74"
"1732","11249.43"
"1733","11217.66"
"1734","11205.07"
"1735","11218.32"
"1736","11259.85"
"1737","11319.61"
"1738","11361.87"
"1739","11349.66"
"1740","11287.93"
"1741","11221.44"
"1742","11191.6"
"1743","11204.82"
"1744","11252.46"
"1745","11319.42"
"1746","11372.32"
"1747","11375.28"
"1748","11323.01"
"1749","11248.86"
"1750","11186.92"
"1751","11153.49"
"1752","11154.77"
"1753","11190.5"
"1754","11236.45"
"1755","11262.87"
"1756","11253.34"
"1757","11212.71"
"1758","11148.57"
"1759","11080.24"
"1760","11035.25"
"1761","11033.36"
"1762","11056.86"
"1763","11077.26"
"1764","11082.51"
"1765","11091.49"
"1766","11124.2"
"1767","11163.65"
"1768","11162.87"
"1769","11089.86"
"1770","10997.74"
"1771","10967.91"
"1772","11033.11"
"1773","11124.81"
"1774","11165.25"
"1775","11141.53"
"1776","11097.45"
"1777","11071.78"
"1778","11063.24"
"1779","11056.31"
"1780","11045.46"
"1781","11046.81"
"1782","11077.72"
"1783","11125.33"
"1784","11149.96"
"1785","11120.7"
"1786","11062.65"
"1787","11020.63"
"1788","11019.31"
"1789","11040.79"
"1790","11062.47"
"1791","11073.8"
"1792","11074.45"
"1793","11065.75"
"1794","11056.06"
"1795","11055.99"
"1796","11067.75"
"1797","11077.38"
"1798","11070.23"
"1799","11048.72"
"1800","11028.26"
"1801","11020.77"
"1802","11020.82"
"1803","11018.06"
"1804","11006.18"
"1805","10985.47"
"1806","10957.29"
"1807","10928.15"
"1808","10907.87"
"1809","10903.84"
"1810","10914.34"
"1811","10935.55"
"1812","10963.03"
"1813","10991.52"
"1814","11014.24"
"1815","11011.89"
"1816","10958.9"
"1817","10856.14"
"1818","10777.55"
"1819","10805.72"
"1820","10929.25"
"1821","11041.63"
"1822","11053.32"
"1823","11002.11"
"1824","10972.43"
"1825","11003.68"
"1826","11046.14"
"1827","11043.28"
"1828","10989.19"
"1829","10914.72"
"1830","10848.97"
"1831","10810.47"
"1832","10814.63"
"1833","10852.44"
"1834","10882.03"
"1835","10866.45"
"1836","10827.82"
"1837","10816.82"
"1838","10853.83"
"1839","10883.22"
"1840","10841.86"
"1841","10744.7"
"1842","10674.89"
"1843","10695.63"
"1844","10764.73"
"1845","10809.66"
"1846","10801.14"
"1847","10775.53"
"1848","10770.85"
"1849","10790.14"
"1850","10817.93"
"1851","10840.43"
"1852","10848.71"
"1853","10835.49"
"1854","10809.17"
"1855","10792.16"
"1856","10801.37"
"1857","10825.81"
"1858","10846.6"
"1859","10855.17"
"1860","10857.88"
"1861","10860.89"
"1862","10859.47"
"1863","10843.6"
"1864","10809.51"
"1865","10767.98"
"1866","10731.6"
"1867","10707.92"
"1868","10700.65"
"1869","10707.84"
"1870","10706.59"
"1871","10670.25"
"1872","10609.81"
"1873","10580.12"
"1874","10625.86"
"1875","10714.72"
"1876","10785.96"
"1877","10804.49"
"1878","10779.89"
"1879","10728.45"
"1880","10687.6"
"1881","10706.59"
"1882","10799.87"
"1883","10892.39"
"1884","10900.69"
"1885","10834.55"
"1886","10778.41"
"1887","10792.91"
"1888","10841.24"
"1889","10865.11"
"1890","10846.93"
"1891","10814.23"
"1892","10791.54"
"1893","10774.4"
"1894","10748.87"
"1895","10716.43"
"1896","10701.73"
"1897","10725.53"
"1898","10763.96"
"1899","10772.83"
"1900","10735.46"
"1901","10690.39"
"1902","10678.17"
"1903","10690.09"
"1904","10687.66"
"1905","10652.22"
"1906","10617.97"
"1907","10624.44"
"1908","10661.95"
"1909","10682.97"
"1910","10656.95"
"1911","10613.83"
"1912","10595.04"
"1913","10615.85"
"1914","10666.67"
"1915","10732.05"
"1916","10776.28"
"1917","10759.79"
"1918","10690.19"
"1919","10628.97"
"1920","10625.01"
"1921","10646.65"
"1922","10637.42"
"1923","10585.65"
"1924","10539.74"
"1925","10542.22"
"1926","10573.14"
"1927","10589.35"
"1928","10572.93"
"1929","10544.75"
"1930","10527.73"
"1931","10535"
"1932","10575.22"
"1933","10633.53"
"1934","10654.71"
"1935","10590.11"
"1936","10476.62"
"1937","10391.73"
"1938","10378.98"
"1939","10417.37"
"1940","10478.44"
"1941","10531.49"
"1942","10544.71"
"1943","10507.47"
"1944","10451.51"
"1945","10411.36"
"1946","10399.91"
"1947","10418.29"
"1948","10454.96"
"1949","10472.42"
"1950","10435.77"
"1951","10366.33"
"1952","10316.4"
"1953","10313.51"
"1954","10332.49"
"1955","10344.54"
"1956","10349.76"
"1957","10364.14"
"1958","10389.88"
"1959","10400.53"
"1960","10371.5"
"1961","10328.06"
"1962","10321.94"
"1963","10370.58"
"1964","10423.2"
"1965","10426.42"
"1966","10373.88"
"1967","10283.19"
"1968","10187.79"
"1969","10149.76"
"1970","10220.2"
"1971","10339.76"
"1972","10398.39"
"1973","10355.21"
"1974","10285.94"
"1975","10264.58"
"1976","10276"
"1977","10268.42"
"1978","10221.76"
"1979","10163.53"
"1980","10122.53"
"1981","10112.14"
"1982","10139.68"
"1983","10193.61"
"1984","10238.02"
"1985","10241.68"
"1986","10204.88"
"1987","10138.11"
"1988","10066.18"
"1989","10029.59"
"1990","10052.3"
"1991","10088.23"
"1992","10076.59"
"1993","10016.09"
"1994","9959.704"
"1995","9948.078"
"1996","9975.648"
"1997","10026.82"
"1998","10074.83"
"1999","10084.67"
"2000","10040.44"
"2001","9974.361"
"2002","9923.292"
"2003","9895.083"
"2004","9880.848"
"2005","9874.657"
"2006","9876.675"
"2007","9886.768"
"2008","9897.796"
"2009","9899.587"
"2010","9885.813"
"2011","9855.759"
"2012","9812.968"
"2013","9780.715"
"2014","9787.617"
"2015","9834.179"
"2016","9890.722"
"2017","9928.632"
"2018","9928.945"
"2019","9877.368"
"2020","9798.53"
"2021","9747.352"
"2022","9750.273"
"2023","9760.396"
"2024","9726.15"
"2025","9659.449"
"2026","9606.72"
"2027","9589.787"
"2028","9587.625"
"2029","9579.268"
"2030","9569.606"
"2031","9572.523"
"2032","9584.098"
"2033","9579.622"
"2034","9548.346"
"2035","9537.014"
"2036","9600.248"
"2037","9702.471"
"2038","9737.956"
"2039","9656.459"
"2040","9544.974"
"2041","9498.026"
"2042","9501.868"
"2043","9489.135"
"2044","9439.779"
"2045","9405.798"
"2046","9428.672"
"2047","9468.093"
"2048","9461.656"
"2049","9413.185"
"2050","9389.353"
"2051","9428.676"
"2052","9481.432"
"2053","9487.724"
"2054","9445.684"
"2055","9387.012"
"2056","9332.971"
"2057","9286.47"
"2058","9249.256"
"2059","9226.29"
"2060","9222.883"
"2061","9227.357"
"2062","9211.083"
"2063","9159.387"
"2064","9100.941"
"2065","9069.309"
"2066","9066.604"
"2067","9076.817"
"2068","9085.172"
"2069","9079.306"
"2070","9052.513"
"2071","9025.458"
"2072","9025.821"
"2073","9049.792"
"2074","9064.949"
"2075","9054.723"
"2076","9046.041"
"2077","9067.52"
"2078","9104.126"
"2079","9119.958"
"2080","9106.524"
"2081","9092.698"
"2082","9094.359"
"2083","9065.589"
"2084","8952.87"
"2085","8807.27"
"2086","8754.225"
"2087","8833.712"
"2088","8917.175"
"2089","8886.76"
"2090","8799.842"
"2091","8772.34"
"2092","8822.313"
"2093","8871.808"
"2094","8865.846"
"2095","8821.599"
"2096","8768.549"
"2097","8739.216"
"2098","8766.227"
"2099","8827.394"
"2100","8830.689"
"2101","8721.876"
"2102","8595.138"
"2103","8565.207"
"2104","8614.191"
"2105","8643.586"
"2106","8613.741"
"2107","8579.906"
"2108","8589.932"
"2109","8622.159"
"2110","8638.744"
"2111","8641.554"
"2112","8661.35"
"2113","8691.336"
"2114","8653.585"
"2115","8493.8"
"2116","8320.499"
"2117","8285.512"
"2118","8381.69"
"2119","8469.177"
"2120","8467.567"
"2121","8429.981"
"2122","8414.222"
"2123","8407.606"
"2124","8373.969"
"2125","8309.776"
"2126","8241.026"
"2127","8191.624"
"2128","8178.265"
"2129","8208.563"
"2130","8240.825"
"2131","8218.134"
"2132","8152.653"
"2133","8120.632"
"2134","8155.995"
"2135","8191.185"
"2136","8159.778"
"2137","8087.521"
"2138","8032.667"
"2139","8015.666"
"2140","8022.482"
"2141","8033.407"
"2142","8019.25"
"2143","7961.489"
"2144","7909.305"
"2145","7930.54"
"2146","8001.116"
"2147","8019.447"
"2148","7947.434"
"2149","7877.787"
"2150","7891.351"
"2151","7930.982"
"2152","7903.07"
"2153","7813.107"
"2154","7740.574"
"2155","7722.174"
"2156","7717.731"
"2157","7694.88"
"2158","7686.353"
"2159","7734.443"
"2160","7794.771"
"2161","7769.778"
"2162","7652.944"
"2163","7568.668"
"2164","7601.421"
"2165","7667.529"
"2166","7659.143"
"2167","7564.874"
"2168","7422.801"
"2169","7288.292"
"2170","7235.655"
"2171","7302.136"
"2172","7427.95"
"2173","7540.804"
"2174","7586.605"
"2175","7522.549"
"2176","7385.445"
"2177","7279.546"
"2178","7258.371"
"2179","7277.191"
"2180","7289.707"
"2181","7289.177"
"2182","7280.25"
"2183","7276.277"
"2184","7295.059"
"2185","7319.791"
"2186","7288.487"
"2187","7172.115"
"2188","7044.652"
"2189","6989.313"
"2190","7026.576"
"2191","7147.253"
"2192","7270.419"
"2193","7253.044"
"2194","7067.269"
"2195","6901.734"
"2196","6909.354"
"2197","6998.454"
"2198","7027.912"
"2199","6989.152"
"2200","6946.889"
"2201","6916.499"
"2202","6855.099"
"2203","6751.24"
"2204","6677.604"
"2205","6700.635"
"2206","6784.667"
"2207","6861.956"
"2208","6895.147"
"2209","6868.592"
"2210","6783.326"
"2211","6663.371"
"2212","6541.187"
"2213","6468.483"
"2214","6484.533"
"2215","6524.58"
"2216","6489.686"
"2217","6398.682"
"2218","6364.091"
"2219","6418.173"
"2220","6461.621"
"2221","6427.591"
"2222","6393.395"
"2223","6444.571"
"2224","6517.292"
"2225","6491.125"
"2226","6379.17"
"2227","6306.687"
"2228","6312.583"
"2229","6288.512"
"2230","6166.871"
"2231","6059.416"
"2232","6087.863"
"2233","6184.704"
"2234","6209.228"
"2235","6141.976"
"2236","6062.858"
"2237","6016.331"
"2238","5987.048"
"2239","5960.761"
"2240","5942.298"
"2241","5933.122"
"2242","5891.372"
"2243","5766.11"
"2244","5613.86"
"2245","5567.349"
"2246","5631.985"
"2247","5637.653"
"2248","5494.409"
"2249","5351.331"
"2250","5354.012"
"2251","5434.679"
"2252","5467.871"
"2253","5439.13"
"2254","5399.924"
"2255","5366.932"
"2256","5317.58"
"2257","5239.229"
"2258","5143.292"
"2259","5048.346"
"2260","4989.078"
"2261","4992.387"
"2262","4996.679"
"2263","4907.33"
"2264","4755.238"
"2265","4673.153"
"2266","4698.291"
"2267","4723.953"
"2268","4668.925"
"2269","4550.041"
"2270","4401.622"
"2271","4265.042"
"2272","4178.766"
"2273","4129.684"
"2274","4076.594"
"2275","4005.032"
"2276","3927.32"
"2277","3858.639"
"2278","3817.039"
"2279","3805.435"
"2280","3779.511"
"2281","3701.644"
"2282","3623.739"
"2283","3617.167"
"2284","3620.194"
"2285","3495.163"
"2286","3268.375"
"2287","3138.055"
"2288","3173.448"
"2289","3199.672"
"2290","3088.105"
"2291","2932.727"
"2292","2847.183"
"2293","2813.138"
"2294","2770.787"
"2295","2705.544"
"2296","2630.008"
"2297","2562.112"
"2298","2524.349"
"2299","2513.754"
"2300","2485.534"
