,"Scan 01161"
"400","8965.537"
"401","8958.451"
"402","8945.241"
"403","8922.078"
"404","8897.512"
"405","8884.027"
"406","8894.014"
"407","8937.188"
"408","9002.254"
"409","9067.863"
"410","9112.747"
"411","9117.438"
"412","9083.957"
"413","9029.242"
"414","8970.422"
"415","8924.073"
"416","8897.405"
"417","8888.486"
"418","8895.021"
"419","8914.691"
"420","8943.533"
"421","8975.359"
"422","9003.875"
"423","9022.855"
"424","9028.67"
"425","9022.449"
"426","9005.812"
"427","8980.381"
"428","8948.365"
"429","8913.488"
"430","8879.678"
"431","8850.832"
"432","8830.413"
"433","8820.429"
"434","8822.582"
"435","8838.56"
"436","8868.021"
"437","8901.501"
"438","8927.016"
"439","8932.662"
"440","8909.473"
"441","8865.57"
"442","8815.313"
"443","8772.973"
"444","8751"
"445","8748.337"
"446","8757.634"
"447","8771.553"
"448","8783.218"
"449","8789.921"
"450","8791.381"
"451","8787.342"
"452","8777.676"
"453","8763.88"
"454","8748.585"
"455","8734.425"
"456","8723.912"
"457","8717.678"
"458","8714.787"
"459","8714.269"
"460","8715.133"
"461","8715.832"
"462","8714.284"
"463","8708.397"
"464","8696.188"
"465","8678.412"
"466","8658.887"
"467","8641.568"
"468","8630.299"
"469","8625.589"
"470","8623.74"
"471","8620.818"
"472","8612.96"
"473","8599.12"
"474","8582.201"
"475","8565.389"
"476","8551.829"
"477","8543.347"
"478","8539.746"
"479","8540.659"
"480","8545.694"
"481","8552.704"
"482","8556.6"
"483","8552.04"
"484","8533.771"
"485","8501.614"
"486","8464.415"
"487","8431.894"
"488","8413.661"
"489","8413.164"
"490","8422.384"
"491","8432.097"
"492","8433.164"
"493","8420.238"
"494","8395.199"
"495","8360.741"
"496","8319.548"
"497","8274.413"
"498","8228.376"
"499","8184.487"
"500","8145.773"
"501","8114.561"
"502","8091.836"
"503","8078.428"
"504","8075.116"
"505","8078.528"
"506","8077.333"
"507","8059.359"
"508","8012.622"
"509","7937.125"
"510","7855.007"
"511","7790.689"
"512","7768.25"
"513","7793.395"
"514","7839.58"
"515","7877.116"
"516","7876.738"
"517","7828.071"
"518","7751.836"
"519","7671.56"
"520","7610.42"
"521","7578.915"
"522","7568.272"
"523","7568.146"
"524","7568.337"
"525","7563.095"
"526","7552.814"
"527","7538.338"
"528","7520.518"
"529","7500.63"
"530","7480.472"
"531","7461.866"
"532","7446.586"
"533","7435.278"
"534","7427.345"
"535","7422.132"
"536","7418.946"
"537","7416.313"
"538","7411.996"
"539","7403.74"
"540","7389.461"
"541","7369.824"
"542","7347.752"
"543","7326.231"
"544","7308.202"
"545","7296.257"
"546","7292.749"
"547","7300.006"
"548","7319.643"
"549","7346.009"
"550","7369.241"
"551","7379.468"
"552","7368.078"
"553","7336.105"
"554","7289.179"
"555","7232.921"
"556","7173.44"
"557","7119.955"
"558","7082.846"
"559","7072.441"
"560","7095.087"
"561","7138.394"
"562","7184.456"
"563","7215.459"
"564","7218.766"
"565","7200.3"
"566","7170.151"
"567","7138.363"
"568","7113.658"
"569","7101.238"
"570","7105.7"
"571","7131.567"
"572","7176.511"
"573","7224.167"
"574","7256.522"
"575","7255.875"
"576","7218.658"
"577","7162.904"
"578","7108.426"
"579","7074.497"
"580","7067.352"
"581","7078.337"
"582","7098.025"
"583","7117.224"
"584","7130.167"
"585","7133.974"
"586","7125.871"
"587","7103.908"
"588","7075.01"
"589","7051.479"
"590","7045.645"
"591","7067.176"
"592","7107.262"
"593","7149.191"
"594","7176.299"
"595","7175.998"
"596","7154.607"
"597","7123.936"
"598","7095.75"
"599","7078.879"
"600","7073.123"
"601","7076.543"
"602","7087.206"
"603","7102.115"
"604","7116.079"
"605","7123.657"
"606","7119.536"
"607","7103.176"
"608","7080.633"
"609","7058.429"
"610","7042.86"
"611","7036.106"
"612","7036.531"
"613","7042.359"
"614","7051.92"
"615","7064.566"
"616","7080.279"
"617","7099.049"
"618","7120.182"
"619","7138.643"
"620","7147.709"
"621","7140.687"
"622","7114.022"
"623","7076.08"
"624","7038.034"
"625","7010.997"
"626","7000.917"
"627","7001.898"
"628","7006.407"
"629","7007.032"
"630","7000.827"
"631","6991.17"
"632","6981.912"
"633","6976.721"
"634","6976.089"
"635","6977.724"
"636","6979.245"
"637","6978.827"
"638","6979.668"
"639","6987.656"
"640","7008.673"
"641","7045.742"
"642","7087.667"
"643","7118.87"
"644","7123.836"
"645","7095.132"
"646","7047.656"
"647","7000.1"
"648","6970.936"
"649","6968.488"
"650","6985.062"
"651","7011.568"
"652","7039.104"
"653","7062.118"
"654","7078.123"
"655","7084.761"
"656","7080.274"
"657","7068.277"
"658","7055.195"
"659","7047.459"
"660","7049.738"
"661","7058.688"
"662","7068.713"
"663","7074.228"
"664","7071.306"
"665","7059.927"
"666","7040.641"
"667","7014.089"
"668","6984.506"
"669","6960.789"
"670","6952.114"
"671","6966.789"
"672","7001.827"
"673","7046.22"
"674","7088.823"
"675","7119.712"
"676","7136.231"
"677","7138.442"
"678","7126.412"
"679","7101.913"
"680","7071.754"
"681","7043.66"
"682","7025.285"
"683","7021.273"
"684","7031.771"
"685","7056.541"
"686","7094.93"
"687","7139.701"
"688","7178.427"
"689","7198.57"
"690","7190.286"
"691","7161.032"
"692","7125.134"
"693","7096.902"
"694","7085.547"
"695","7085.09"
"696","7086.73"
"697","7081.798"
"698","7067.224"
"699","7048.085"
"700","7030.087"
"701","7018.741"
"702","7016.94"
"703","7025.693"
"704","7045.955"
"705","7077.523"
"706","7113.744"
"707","7145.727"
"708","7164.611"
"709","7165.527"
"710","7153.515"
"711","7135.108"
"712","7116.811"
"713","7104.418"
"714","7102.894"
"715","7117.145"
"716","7150.681"
"717","7193.521"
"718","7228.165"
"719","7237.061"
"720","7209.739"
"721","7163.6"
"722","7122.883"
"723","7111.572"
"724","7136.729"
"725","7176.263"
"726","7205.245"
"727","7200.313"
"728","7162.271"
"729","7111.158"
"730","7067.514"
"731","7048.58"
"732","7053.106"
"733","7073.314"
"734","7101.453"
"735","7131.054"
"736","7158.678"
"737","7181.298"
"738","7195.954"
"739","7200.906"
"740","7195.66"
"741","7179.785"
"742","7154.017"
"743","7127.758"
"744","7114.288"
"745","7126.868"
"746","7170.974"
"747","7229.812"
"748","7282.662"
"749","7309.33"
"750","7305.855"
"751","7287.746"
"752","7271.646"
"753","7272.399"
"754","7289.478"
"755","7314.462"
"756","7338.882"
"757","7356.472"
"758","7367.992"
"759","7375.6"
"760","7381.399"
"761","7385.72"
"762","7386.608"
"763","7381.965"
"764","7370.42"
"765","7357.239"
"766","7351.228"
"767","7361.208"
"768","7391.071"
"769","7428.816"
"770","7459.258"
"771","7467.616"
"772","7452.84"
"773","7431.146"
"774","7419.832"
"775","7433.675"
"776","7466.06"
"777","7499.534"
"778","7516.58"
"779","7507.688"
"780","7486.913"
"781","7472.609"
"782","7482.576"
"783","7518.967"
"784","7566.28"
"785","7608.074"
"786","7630.211"
"787","7635.019"
"788","7632.053"
"789","7630.877"
"790","7637.014"
"791","7646.066"
"792","7652.137"
"793","7649.67"
"794","7639.901"
"795","7630.388"
"796","7628.926"
"797","7641.531"
"798","7664.352"
"799","7690.133"
"800","7711.661"
"801","7725.301"
"802","7734.185"
"803","7742.198"
"804","7752.833"
"805","7764.502"
"806","7772.01"
"807","7770.091"
"808","7755.609"
"809","7733.772"
"810","7711.831"
"811","7696.965"
"812","7693.596"
"813","7702.424"
"814","7723.886"
"815","7757.534"
"816","7795.681"
"817","7827.077"
"818","7840.469"
"819","7830.613"
"820","7807.593"
"821","7783.908"
"822","7771.5"
"823","7771.864"
"824","7777.104"
"825","7778.987"
"826","7771.246"
"827","7757.216"
"828","7743.173"
"829","7735.337"
"830","7736.646"
"831","7744.88"
"832","7757.356"
"833","7771.631"
"834","7787.44"
"835","7805.726"
"836","7827.438"
"837","7851.954"
"838","7874.311"
"839","7888.811"
"840","7890.123"
"841","7880.182"
"842","7867.624"
"843","7861.342"
"844","7868.177"
"845","7885.125"
"846","7906.218"
"847","7925.544"
"848","7939.915"
"849","7950.196"
"850","7957.582"
"851","7963.098"
"852","7966.391"
"853","7966.415"
"854","7962.125"
"855","7954.396"
"856","7948.637"
"857","7950.922"
"858","7966.794"
"859","7993.945"
"860","8024.001"
"861","8048.431"
"862","8060.976"
"863","8063.923"
"864","8061.562"
"865","8058.15"
"866","8056.924"
"867","8059.95"
"868","8069.232"
"869","8085.47"
"870","8101.764"
"871","8108.466"
"872","8096.061"
"873","8065.541"
"874","8035.439"
"875","8025.947"
"876","8054.17"
"877","8109.418"
"878","8166.272"
"879","8199.225"
"880","8195.65"
"881","8173.628"
"882","8155.717"
"883","8162.904"
"884","8194.096"
"885","8231.898"
"886","8258.54"
"887","8262.773"
"888","8255.277"
"889","8251.337"
"890","8265.614"
"891","8298.731"
"892","8337.371"
"893","8367.622"
"894","8379.188"
"895","8378.544"
"896","8377.03"
"897","8385.767"
"898","8407.468"
"899","8433.957"
"900","8456.327"
"901","8467.211"
"902","8468.855"
"903","8467.197"
"904","8468.139"
"905","8473.796"
"906","8480.045"
"907","8482.172"
"908","8476.418"
"909","8466.82"
"910","8461.261"
"911","8467.608"
"912","8488.701"
"913","8516.978"
"914","8543.588"
"915","8560.512"
"916","8568.56"
"917","8573.884"
"918","8582.702"
"919","8596.09"
"920","8602.133"
"921","8586.896"
"922","8538.394"
"923","8471.177"
"924","8418.993"
"925","8416.01"
"926","8480.267"
"927","8581.051"
"928","8678.472"
"929","8734.463"
"930","8742.348"
"931","8721.815"
"932","8693.374"
"933","8673.243"
"934","8662.497"
"935","8658.867"
"936","8659.995"
"937","8661.61"
"938","8657.626"
"939","8641.88"
"940","8611.772"
"941","8579.038"
"942","8559.002"
"943","8566.379"
"944","8600.146"
"945","8642.72"
"946","8675.734"
"947","8685.3"
"948","8677.52"
"949","8664.063"
"950","8656.323"
"951","8657.525"
"952","8661.611"
"953","8662.011"
"954","8654.344"
"955","8644.727"
"956","8642.439"
"957","8656.478"
"958","8686.482"
"959","8720.843"
"960","8747.276"
"961","8755.736"
"962","8747.515"
"963","8727.476"
"964","8700.523"
"965","8672.73"
"966","8651.617"
"967","8644.802"
"968","8657.157"
"969","8679.305"
"970","8697.239"
"971","8697.281"
"972","8677.619"
"973","8651.394"
"974","8632.71"
"975","8632.31"
"976","8643.408"
"977","8653.528"
"978","8650.474"
"979","8632.371"
"980","8610.252"
"981","8595.966"
"982","8598.555"
"983","8612.736"
"984","8628.673"
"985","8636.782"
"986","8636.52"
"987","8638.303"
"988","8653.219"
"989","8688.773"
"990","8734.987"
"991","8776.538"
"992","8798.495"
"993","8797.831"
"994","8785.324"
"995","8772.527"
"996","8769.252"
"997","8777.328"
"998","8796.307"
"999","8825.526"
"1000","8858.8"
"1001","8883.939"
"1002","8888.457"
"1003","8865.014"
"1004","8827.918"
"1005","8797.16"
"1006","8792.714"
"1007","8823.58"
"1008","8871.176"
"1009","8912.636"
"1010","8926.97"
"1011","8912.595"
"1012","8879.391"
"1013","8837.402"
"1014","8797.533"
"1015","8772.386"
"1016","8774.771"
"1017","8814.153"
"1018","8874.843"
"1019","8929.67"
"1020","8951.782"
"1021","8935.64"
"1022","8907.55"
"1023","8896.443"
"1024","8924.23"
"1025","8975.154"
"1026","9020.896"
"1027","9034.04"
"1028","9012.901"
"1029","8984.128"
"1030","8975.842"
"1031","9006.789"
"1032","9061.037"
"1033","9114.637"
"1034","9144.863"
"1035","9147.926"
"1036","9134.875"
"1037","9117.158"
"1038","9104.31"
"1039","9101.118"
"1040","9111.659"
"1041","9138.801"
"1042","9174.471"
"1043","9204.768"
"1044","9215.886"
"1045","9204.863"
"1046","9186.336"
"1047","9176.568"
"1048","9188.39"
"1049","9215.859"
"1050","9246.666"
"1051","9268.775"
"1052","9277.464"
"1053","9275.678"
"1054","9266.724"
"1055","9254.719"
"1056","9246.404"
"1057","9249.052"
"1058","9268.79"
"1059","9298.178"
"1060","9320.907"
"1061","9320.63"
"1062","9294.294"
"1063","9264.132"
"1064","9255.212"
"1065","9287.276"
"1066","9347.046"
"1067","9408.646"
"1068","9446.791"
"1069","9454.083"
"1070","9443.022"
"1071","9427.149"
"1072","9416.066"
"1073","9406.4"
"1074","9392.116"
"1075","9368.249"
"1076","9341.941"
"1077","9327.972"
"1078","9341.1"
"1079","9382.589"
"1080","9430.11"
"1081","9458.934"
"1082","9450.848"
"1083","9422.409"
"1084","9401.703"
"1085","9415.535"
"1086","9463.792"
"1087","9521.161"
"1088","9561.359"
"1089","9568.404"
"1090","9552.872"
"1091","9529.559"
"1092","9511.88"
"1093","9502.05"
"1094","9496.925"
"1095","9493.346"
"1096","9489.028"
"1097","9482.788"
"1098","9473.516"
"1099","9460.839"
"1100","9447.006"
"1101","9434.832"
"1102","9426.975"
"1103","9424.208"
"1104","9426.131"
"1105","9432.317"
"1106","9441.754"
"1107","9452.478"
"1108","9462.438"
"1109","9470.329"
"1110","9478.146"
"1111","9488.797"
"1112","9504.88"
"1113","9524.566"
"1114","9542.739"
"1115","9554.203"
"1116","9554.284"
"1117","9539.281"
"1118","9505.6"
"1119","9452.736"
"1120","9395.896"
"1121","9355.271"
"1122","9349.738"
"1123","9376.343"
"1124","9414.387"
"1125","9442.721"
"1126","9451.842"
"1127","9455.403"
"1128","9469.813"
"1129","9506.106"
"1130","9546.851"
"1131","9565.221"
"1132","9536.443"
"1133","9470.03"
"1134","9403.585"
"1135","9375.394"
"1136","9401.944"
"1137","9457.218"
"1138","9510.273"
"1139","9536.492"
"1140","9543.092"
"1141","9547.247"
"1142","9564.736"
"1143","9590.468"
"1144","9603.472"
"1145","9582.609"
"1146","9528.234"
"1147","9478.421"
"1148","9475.085"
"1149","9544.69"
"1150","9646.688"
"1151","9722.376"
"1152","9718.775"
"1153","9650.699"
"1154","9577.091"
"1155","9556.836"
"1156","9605.464"
"1157","9675.353"
"1158","9713.865"
"1159","9688.38"
"1160","9634.567"
"1161","9602.655"
"1162","9635.654"
"1163","9714.28"
"1164","9787.479"
"1165","9805.481"
"1166","9763.189"
"1167","9705.47"
"1168","9679.788"
"1169","9709.403"
"1170","9757.788"
"1171","9779.34"
"1172","9739.345"
"1173","9666.891"
"1174","9614.202"
"1175","9629.96"
"1176","9706.386"
"1177","9790.911"
"1178","9830.12"
"1179","9802.774"
"1180","9741.321"
"1181","9683.319"
"1182","9658.904"
"1183","9670.693"
"1184","9714.966"
"1185","9786.203"
"1186","9863.424"
"1187","9917.688"
"1188","9921.195"
"1189","9877.585"
"1190","9823.777"
"1191","9798.204"
"1192","9817.609"
"1193","9851.546"
"1194","9863.35"
"1195","9827.719"
"1196","9773.381"
"1197","9745.063"
"1198","9782.52"
"1199","9870.261"
"1200","9958.496"
"1201","9998.011"
"1202","9978.316"
"1203","9936.365"
"1204","9911.993"
"1205","9926.607"
"1206","9956.421"
"1207","9970.833"
"1208","9947.643"
"1209","9908.226"
"1210","9888.019"
"1211","9918.529"
"1212","9985.073"
"1213","10043.07"
"1214","10048.51"
"1215","9995.016"
"1216","9922.599"
"1217","9874.095"
"1218","9874.817"
"1219","9908.473"
"1220","9952.728"
"1221","9988.655"
"1222","10013.77"
"1223","10030.51"
"1224","10041.36"
"1225","10049.36"
"1226","10057.89"
"1227","10070.17"
"1228","10085.65"
"1229","10099.75"
"1230","10107.7"
"1231","10108.41"
"1232","10108.15"
"1233","10114.02"
"1234","10130.9"
"1235","10155.14"
"1236","10181.1"
"1237","10203.33"
"1238","10217.93"
"1239","10221.69"
"1240","10211.99"
"1241","10195.63"
"1242","10187.14"
"1243","10200.96"
"1244","10237.63"
"1245","10277.67"
"1246","10300.11"
"1247","10293.82"
"1248","10273.04"
"1249","10255.99"
"1250","10257.25"
"1251","10273.95"
"1252","10298.02"
"1253","10321.37"
"1254","10335.64"
"1255","10332.31"
"1256","10303.68"
"1257","10257.42"
"1258","10215.25"
"1259","10199.19"
"1260","10217.65"
"1261","10258.09"
"1262","10306.19"
"1263","10349.33"
"1264","10379.47"
"1265","10389.26"
"1266","10375.06"
"1267","10350.4"
"1268","10333.78"
"1269","10341.01"
"1270","10364.88"
"1271","10386.7"
"1272","10388.82"
"1273","10372.46"
"1274","10354.35"
"1275","10351.36"
"1276","10367.47"
"1277","10389.6"
"1278","10403.51"
"1279","10401.44"
"1280","10389.49"
"1281","10375.56"
"1282","10365.88"
"1283","10360.63"
"1284","10358.69"
"1285","10358.98"
"1286","10360.78"
"1287","10363.52"
"1288","10366.57"
"1289","10368.75"
"1290","10368.54"
"1291","10364.52"
"1292","10356.93"
"1293","10347.55"
"1294","10338.29"
"1295","10334.03"
"1296","10343.82"
"1297","10377.01"
"1298","10434.98"
"1299","10501.95"
"1300","10559.85"
"1301","10593.67"
"1302","10598.71"
"1303","10572.45"
"1304","10516.45"
"1305","10454.09"
"1306","10416.08"
"1307","10428.42"
"1308","10476.62"
"1309","10525.5"
"1310","10541.82"
"1311","10523.52"
"1312","10491.99"
"1313","10468.79"
"1314","10462.46"
"1315","10467.31"
"1316","10476.94"
"1317","10487.17"
"1318","10497.32"
"1319","10507.01"
"1320","10515.56"
"1321","10521.5"
"1322","10523.26"
"1323","10520.19"
"1324","10514.79"
"1325","10510.22"
"1326","10508.93"
"1327","10509.81"
"1328","10510.64"
"1329","10510.01"
"1330","10512.44"
"1331","10525.14"
"1332","10554.34"
"1333","10595.2"
"1334","10635.92"
"1335","10665"
"1336","10678.15"
"1337","10677.33"
"1338","10664.84"
"1339","10647.75"
"1340","10638.7"
"1341","10650.43"
"1342","10682.29"
"1343","10712.47"
"1344","10717.31"
"1345","10686.8"
"1346","10640.12"
"1347","10600.16"
"1348","10582.3"
"1349","10579.88"
"1350","10582.28"
"1351","10582.68"
"1352","10589.28"
"1353","10613.97"
"1354","10663.88"
"1355","10720.45"
"1356","10756.54"
"1357","10749.33"
"1358","10707.29"
"1359","10652.72"
"1360","10606.83"
"1361","10579.02"
"1362","10571.97"
"1363","10587.28"
"1364","10612.86"
"1365","10626.64"
"1366","10607.69"
"1367","10562.84"
"1368","10524.51"
"1369","10525.03"
"1370","10566.06"
"1371","10613.99"
"1372","10633.76"
"1373","10614.85"
"1374","10581.57"
"1375","10560.79"
"1376","10565.1"
"1377","10581.99"
"1378","10596.47"
"1379","10599.88"
"1380","10597.28"
"1381","10595.5"
"1382","10598.67"
"1383","10603.71"
"1384","10606.36"
"1385","10603.25"
"1386","10594"
"1387","10578.82"
"1388","10558.73"
"1389","10537.85"
"1390","10521.08"
"1391","10513.4"
"1392","10520.17"
"1393","10546.88"
"1394","10594.59"
"1395","10639.4"
"1396","10648.52"
"1397","10597.18"
"1398","10515.16"
"1399","10454.97"
"1400","10461.44"
"1401","10516.75"
"1402","10572.82"
"1403","10586.43"
"1404","10562.82"
"1405","10534.11"
"1406","10529.75"
"1407","10545.69"
"1408","10556.85"
"1409","10540.11"
"1410","10502.92"
"1411","10474.33"
"1412","10481.96"
"1413","10523.49"
"1414","10573.08"
"1415","10605.31"
"1416","10613.52"
"1417","10607.4"
"1418","10597.02"
"1419","10588.79"
"1420","10585.7"
"1421","10590.45"
"1422","10602.83"
"1423","10619.62"
"1424","10637.39"
"1425","10651.24"
"1426","10654.63"
"1427","10641.2"
"1428","10613.5"
"1429","10584.67"
"1430","10568.32"
"1431","10574.52"
"1432","10608.89"
"1433","10676.27"
"1434","10763.07"
"1435","10831.36"
"1436","10842.37"
"1437","10793.53"
"1438","10732.04"
"1439","10708.01"
"1440","10738.02"
"1441","10790.98"
"1442","10832.49"
"1443","10845.77"
"1444","10839.68"
"1445","10825.09"
"1446","10810.12"
"1447","10798.87"
"1448","10795.06"
"1449","10798.7"
"1450","10804.26"
"1451","10805.8"
"1452","10799.93"
"1453","10787.07"
"1454","10767.92"
"1455","10742.66"
"1456","10710.59"
"1457","10671.11"
"1458","10629.3"
"1459","10598.66"
"1460","10593.06"
"1461","10612.46"
"1462","10636.97"
"1463","10645.49"
"1464","10630"
"1465","10600.68"
"1466","10568.83"
"1467","10537.93"
"1468","10501.02"
"1469","10450.75"
"1470","10391.96"
"1471","10344.93"
"1472","10330.24"
"1473","10346.35"
"1474","10365.18"
"1475","10358.02"
"1476","10322.76"
"1477","10287.22"
"1478","10279.64"
"1479","10297.95"
"1480","10308.39"
"1481","10277.51"
"1482","10211.71"
"1483","10155.86"
"1484","10154.06"
"1485","10205.24"
"1486","10268.24"
"1487","10302.46"
"1488","10298.17"
"1489","10270.56"
"1490","10235.18"
"1491","10203.05"
"1492","10181.83"
"1493","10178.22"
"1494","10188.09"
"1495","10200.28"
"1496","10204.14"
"1497","10195.47"
"1498","10173.76"
"1499","10140.09"
"1500","10108.57"
"1501","10099.85"
"1502","10129.34"
"1503","10174.17"
"1504","10194.8"
"1505","10161.38"
"1506","10103.02"
"1507","10070.84"
"1508","10102.8"
"1509","10169.9"
"1510","10222.01"
"1511","10221.04"
"1512","10179.81"
"1513","10124.52"
"1514","10078.64"
"1515","10056.01"
"1516","10068.39"
"1517","10114.86"
"1518","10158.19"
"1519","10154.77"
"1520","10089"
"1521","10010.92"
"1522","9979.676"
"1523","10019.03"
"1524","10084.87"
"1525","10125.8"
"1526","10115.79"
"1527","10068.44"
"1528","10000.83"
"1529","9931.169"
"1530","9879.1"
"1531","9863.708"
"1532","9888.156"
"1533","9939.288"
"1534","10002.81"
"1535","10058.13"
"1536","10079.51"
"1537","10044.62"
"1538","9973.673"
"1539","9914.634"
"1540","9909.518"
"1541","9944.56"
"1542","9977.505"
"1543","9972.871"
"1544","9940.121"
"1545","9906.378"
"1546","9894.379"
"1547","9905.674"
"1548","9935.537"
"1549","9975.231"
"1550","10001.93"
"1551","9989.712"
"1552","9930.163"
"1553","9860.618"
"1554","9825.624"
"1555","9844.342"
"1556","9886.528"
"1557","9916.563"
"1558","9916.039"
"1559","9891.569"
"1560","9851.774"
"1561","9805.947"
"1562","9764.109"
"1563","9735.806"
"1564","9722.031"
"1565","9716.893"
"1566","9714.464"
"1567","9710.524"
"1568","9701.852"
"1569","9685.869"
"1570","9664.391"
"1571","9641.093"
"1572","9620.773"
"1573","9613.508"
"1574","9630.945"
"1575","9676.065"
"1576","9723.538"
"1577","9742.32"
"1578","9719.599"
"1579","9683.628"
"1580","9667.95"
"1581","9684.192"
"1582","9709.538"
"1583","9718.932"
"1584","9709.445"
"1585","9702.535"
"1586","9719.165"
"1587","9753.855"
"1588","9780.777"
"1589","9776.702"
"1590","9746.72"
"1591","9710.907"
"1592","9686.842"
"1593","9677.079"
"1594","9678.868"
"1595","9689.881"
"1596","9709.373"
"1597","9736.944"
"1598","9768.366"
"1599","9790.343"
"1600","9788.408"
"1601","9757.854"
"1602","9709.215"
"1603","9654.455"
"1604","9607.765"
"1605","9585.64"
"1606","9602.55"
"1607","9645.671"
"1608","9683.403"
"1609","9688.992"
"1610","9674.011"
"1611","9667.057"
"1612","9688.845"
"1613","9724.8"
"1614","9750.607"
"1615","9751.996"
"1616","9741.866"
"1617","9737.533"
"1618","9746.447"
"1619","9759.4"
"1620","9765.895"
"1621","9763.613"
"1622","9759.003"
"1623","9758.151"
"1624","9757.184"
"1625","9745.488"
"1626","9715.425"
"1627","9680.396"
"1628","9662.573"
"1629","9677.059"
"1630","9711.034"
"1631","9744.866"
"1632","9763.765"
"1633","9764.095"
"1634","9743.912"
"1635","9707.958"
"1636","9670.191"
"1637","9644.773"
"1638","9637.243"
"1639","9645.887"
"1640","9667.902"
"1641","9693.168"
"1642","9707.859"
"1643","9701.731"
"1644","9681.235"
"1645","9657.645"
"1646","9641.894"
"1647","9644.014"
"1648","9673.588"
"1649","9723.068"
"1650","9759.528"
"1651","9750.285"
"1652","9705.077"
"1653","9670.549"
"1654","9687.57"
"1655","9737.412"
"1656","9771.417"
"1657","9754.941"
"1658","9716.243"
"1659","9700.814"
"1660","9728.739"
"1661","9760.02"
"1662","9746.984"
"1663","9684.179"
"1664","9621.848"
"1665","9610.351"
"1666","9645.899"
"1667","9684.273"
"1668","9686.746"
"1669","9658.257"
"1670","9621.66"
"1671","9595.164"
"1672","9580.922"
"1673","9577.642"
"1674","9581.011"
"1675","9581.333"
"1676","9568.628"
"1677","9539.408"
"1678","9496.541"
"1679","9444.238"
"1680","9396.243"
"1681","9371.379"
"1682","9381.238"
"1683","9405.82"
"1684","9416.597"
"1685","9397.383"
"1686","9358.816"
"1687","9315.077"
"1688","9280.745"
"1689","9270.85"
"1690","9297.494"
"1691","9341.199"
"1692","9363.396"
"1693","9335.129"
"1694","9275.419"
"1695","9217.778"
"1696","9185.23"
"1697","9176.301"
"1698","9185.872"
"1699","9203.893"
"1700","9214.475"
"1701","9203.724"
"1702","9183.07"
"1703","9179.382"
"1704","9210.195"
"1705","9247.693"
"1706","9250.743"
"1707","9201.999"
"1708","9136.817"
"1709","9096.612"
"1710","9093.788"
"1711","9108.895"
"1712","9122.139"
"1713","9126.012"
"1714","9119.717"
"1715","9104.062"
"1716","9086.096"
"1717","9074.401"
"1718","9070.653"
"1719","9063.658"
"1720","9041.819"
"1721","9013.312"
"1722","9004.224"
"1723","9035.29"
"1724","9084.332"
"1725","9110.601"
"1726","9088.684"
"1727","9040.403"
"1728","8996.36"
"1729","8976.02"
"1730","8983.197"
"1731","9019.154"
"1732","9068.355"
"1733","9104.041"
"1734","9106.735"
"1735","9092.99"
"1736","9090.039"
"1737","9108.406"
"1738","9124.207"
"1739","9110.315"
"1740","9061.568"
"1741","8993.617"
"1742","8924.134"
"1743","8878.92"
"1744","8887.305"
"1745","8960.334"
"1746","9056.391"
"1747","9125.015"
"1748","9140.188"
"1749","9106.795"
"1750","9034.346"
"1751","8958.347"
"1752","8929.164"
"1753","8976.429"
"1754","9050.158"
"1755","9082.06"
"1756","9047.315"
"1757","8990.069"
"1758","8957.911"
"1759","8962.422"
"1760","8989.893"
"1761","9025.188"
"1762","9049.042"
"1763","9041.087"
"1764","8996.579"
"1765","8940.047"
"1766","8898.28"
"1767","8881.751"
"1768","8887.742"
"1769","8911.677"
"1770","8941.091"
"1771","8960.888"
"1772","8961.536"
"1773","8945.118"
"1774","8915.365"
"1775","8879.661"
"1776","8848.589"
"1777","8831.083"
"1778","8825.886"
"1779","8828.107"
"1780","8834.98"
"1781","8848.309"
"1782","8869.988"
"1783","8892.307"
"1784","8899.021"
"1785","8877.84"
"1786","8840.865"
"1787","8808.837"
"1788","8797.641"
"1789","8812.861"
"1790","8857.628"
"1791","8914.772"
"1792","8949.911"
"1793","8937.922"
"1794","8905.806"
"1795","8897.516"
"1796","8928.027"
"1797","8956.727"
"1798","8939.969"
"1799","8883.241"
"1800","8829.42"
"1801","8813.165"
"1802","8827.165"
"1803","8852.232"
"1804","8874.987"
"1805","8891.609"
"1806","8899.246"
"1807","8896.093"
"1808","8881.006"
"1809","8855.491"
"1810","8830.701"
"1811","8819.949"
"1812","8833.35"
"1813","8876.773"
"1814","8951.263"
"1815","9019.3"
"1816","9023.919"
"1817","8942.019"
"1818","8844.533"
"1819","8815.098"
"1820","8854.036"
"1821","8877.436"
"1822","8818.135"
"1823","8731.831"
"1824","8719.084"
"1825","8814.813"
"1826","8924.256"
"1827","8944.422"
"1828","8870.857"
"1829","8770.572"
"1830","8699.867"
"1831","8665.796"
"1832","8663.135"
"1833","8681.871"
"1834","8705.552"
"1835","8719.728"
"1836","8730.065"
"1837","8751.937"
"1838","8789.455"
"1839","8818.5"
"1840","8812.188"
"1841","8773.194"
"1842","8730.008"
"1843","8706.539"
"1844","8700.763"
"1845","8703.037"
"1846","8704.524"
"1847","8697.612"
"1848","8676.877"
"1849","8655.697"
"1850","8657.393"
"1851","8691.64"
"1852","8731.858"
"1853","8747.233"
"1854","8739.37"
"1855","8738.719"
"1856","8767.774"
"1857","8807.31"
"1858","8826.312"
"1859","8810.05"
"1860","8767.324"
"1861","8710.25"
"1862","8662.622"
"1863","8653.891"
"1864","8694.98"
"1865","8753.578"
"1866","8792.758"
"1867","8799.757"
"1868","8780.32"
"1869","8740.312"
"1870","8684.199"
"1871","8616.553"
"1872","8554.694"
"1873","8530.799"
"1874","8570.297"
"1875","8652.611"
"1876","8740.085"
"1877","8804.237"
"1878","8832.637"
"1879","8816.786"
"1880","8771.049"
"1881","8722.571"
"1882","8692.467"
"1883","8685.958"
"1884","8704.887"
"1885","8736.981"
"1886","8758.684"
"1887","8754.147"
"1888","8737.807"
"1889","8730.518"
"1890","8733.402"
"1891","8725.685"
"1892","8690.664"
"1893","8639.923"
"1894","8594.457"
"1895","8569.755"
"1896","8573.005"
"1897","8607.654"
"1898","8653.778"
"1899","8680.771"
"1900","8670.63"
"1901","8630.661"
"1902","8572.302"
"1903","8518.539"
"1904","8499.352"
"1905","8527.6"
"1906","8571.138"
"1907","8592.595"
"1908","8586.298"
"1909","8570.94"
"1910","8563.115"
"1911","8570.151"
"1912","8596.924"
"1913","8636.99"
"1914","8673.171"
"1915","8691.519"
"1916","8693.694"
"1917","8685.48"
"1918","8673.395"
"1919","8664.795"
"1920","8664.336"
"1921","8662.518"
"1922","8645.469"
"1923","8606.967"
"1924","8551.071"
"1925","8486.225"
"1926","8443.014"
"1927","8459.73"
"1928","8531.764"
"1929","8588.527"
"1930","8566.407"
"1931","8492.206"
"1932","8431.421"
"1933","8423.905"
"1934","8464.983"
"1935","8541.749"
"1936","8611.067"
"1937","8615.726"
"1938","8549.152"
"1939","8500.104"
"1940","8552.014"
"1941","8648.003"
"1942","8659.38"
"1943","8539.138"
"1944","8404.897"
"1945","8379.429"
"1946","8448.806"
"1947","8525.359"
"1948","8557.604"
"1949","8570.793"
"1950","8594.697"
"1951","8610.991"
"1952","8574.93"
"1953","8479.845"
"1954","8399.319"
"1955","8406.258"
"1956","8469.654"
"1957","8501.427"
"1958","8459.965"
"1959","8400.654"
"1960","8383.791"
"1961","8404.012"
"1962","8420.889"
"1963","8407.942"
"1964","8366.951"
"1965","8306.577"
"1966","8265.881"
"1967","8298.828"
"1968","8401.509"
"1969","8463.292"
"1970","8384.238"
"1971","8238.329"
"1972","8179.517"
"1973","8263.074"
"1974","8377.884"
"1975","8412.661"
"1976","8365.708"
"1977","8280.999"
"1978","8197.269"
"1979","8145.129"
"1980","8146.041"
"1981","8171.138"
"1982","8174.116"
"1983","8145.041"
"1984","8121.151"
"1985","8134.858"
"1986","8178.885"
"1987","8233.601"
"1988","8275.069"
"1989","8274.655"
"1990","8217.289"
"1991","8143.594"
"1992","8105.705"
"1993","8104.946"
"1994","8096.298"
"1995","8052.631"
"1996","8009.695"
"1997","8012.197"
"1998","8052.917"
"1999","8086.389"
"2000","8080.314"
"2001","8037.723"
"2002","7968.33"
"2003","7894.629"
"2004","7846.431"
"2005","7838.841"
"2006","7858.59"
"2007","7890.803"
"2008","7932.407"
"2009","7985.269"
"2010","8038.556"
"2011","8063.098"
"2012","8035.538"
"2013","7970.463"
"2014","7894.932"
"2015","7841.775"
"2016","7849.997"
"2017","7934.069"
"2018","8018.36"
"2019","8013.635"
"2020","7938.01"
"2021","7893.148"
"2022","7930.511"
"2023","7970.273"
"2024","7924.231"
"2025","7817.396"
"2026","7736.335"
"2027","7722.132"
"2028","7736.698"
"2029","7742.103"
"2030","7748.434"
"2031","7782.524"
"2032","7839.303"
"2033","7876.483"
"2034","7864.3"
"2035","7828.918"
"2036","7808.149"
"2037","7813.703"
"2038","7836.928"
"2039","7857.422"
"2040","7828.213"
"2041","7710.963"
"2042","7574.337"
"2043","7539.239"
"2044","7630.47"
"2045","7727.175"
"2046","7724.281"
"2047","7655.678"
"2048","7595.898"
"2049","7574.265"
"2050","7577.195"
"2051","7587.981"
"2052","7585.979"
"2053","7554.019"
"2054","7517.994"
"2055","7528.209"
"2056","7585.579"
"2057","7607.212"
"2058","7528.912"
"2059","7432.316"
"2060","7442.682"
"2061","7554.709"
"2062","7632.706"
"2063","7586.056"
"2064","7474.215"
"2065","7379.567"
"2066","7337.027"
"2067","7353.875"
"2068","7413.87"
"2069","7463.109"
"2070","7456.001"
"2071","7406.833"
"2072","7348.566"
"2073","7312.115"
"2074","7326.484"
"2075","7390.791"
"2076","7427.576"
"2077","7362.571"
"2078","7249.93"
"2079","7204.966"
"2080","7248.734"
"2081","7273.979"
"2082","7209.542"
"2083","7163.328"
"2084","7272.779"
"2085","7474.255"
"2086","7560.808"
"2087","7442.643"
"2088","7262.942"
"2089","7166.161"
"2090","7147.567"
"2091","7150.384"
"2092","7148.417"
"2093","7145.531"
"2094","7145.771"
"2095","7150.317"
"2096","7157.647"
"2097","7148.214"
"2098","7095.112"
"2099","7024.391"
"2100","7029.597"
"2101","7159.493"
"2102","7290.588"
"2103","7277.752"
"2104","7154.337"
"2105","7062.234"
"2106","7065.367"
"2107","7101.871"
"2108","7111.81"
"2109","7092.904"
"2110","7058.303"
"2111","7017.162"
"2112","6975.732"
"2113","6940.507"
"2114","6918.525"
"2115","6917.261"
"2116","6945.928"
"2117","7011.68"
"2118","7076.954"
"2119","7067.063"
"2120","6961.441"
"2121","6855.349"
"2122","6839.808"
"2123","6895.744"
"2124","6965.916"
"2125","7015.478"
"2126","7029.921"
"2127","7006.059"
"2128","6964.408"
"2129","6927.051"
"2130","6905.522"
"2131","6906.452"
"2132","6916.304"
"2133","6902.838"
"2134","6846.894"
"2135","6760.619"
"2136","6663.515"
"2137","6593.036"
"2138","6590.265"
"2139","6634.026"
"2140","6646.69"
"2141","6593.871"
"2142","6539.755"
"2143","6544.605"
"2144","6572.349"
"2145","6556.665"
"2146","6495.278"
"2147","6440.159"
"2148","6424.534"
"2149","6440.94"
"2150","6474.077"
"2151","6493.523"
"2152","6467.5"
"2153","6414.349"
"2154","6389.564"
"2155","6403.789"
"2156","6388.895"
"2157","6300.506"
"2158","6227.412"
"2159","6280.328"
"2160","6417.868"
"2161","6503.847"
"2162","6486.327"
"2163","6435.677"
"2164","6412.303"
"2165","6411.297"
"2166","6414.333"
"2167","6405.194"
"2168","6369.158"
"2169","6305.191"
"2170","6227.71"
"2171","6162.269"
"2172","6160.299"
"2173","6257.039"
"2174","6361.854"
"2175","6343.696"
"2176","6210.096"
"2177","6086.39"
"2178","6048.047"
"2179","6070.843"
"2180","6118.297"
"2181","6148.122"
"2182","6121.512"
"2183","6056.116"
"2184","6003.2"
"2185","5976.67"
"2186","5941.081"
"2187","5882.695"
"2188","5859.275"
"2189","5921.326"
"2190","5984.343"
"2191","5916.883"
"2192","5752.57"
"2193","5669.654"
"2194","5734.452"
"2195","5797.349"
"2196","5742.168"
"2197","5686.884"
"2198","5785.167"
"2199","5949.465"
"2200","5961.668"
"2201","5787.743"
"2202","5609.414"
"2203","5552.506"
"2204","5577.118"
"2205","5619.699"
"2206","5622.7"
"2207","5537.446"
"2208","5408.175"
"2209","5343.404"
"2210","5391.084"
"2211","5511.384"
"2212","5641.856"
"2213","5673.852"
"2214","5521.878"
"2215","5306.583"
"2216","5220.302"
"2217","5284.872"
"2218","5385.312"
"2219","5446.489"
"2220","5462.869"
"2221","5443.462"
"2222","5424.562"
"2223","5440.308"
"2224","5469.832"
"2225","5470.294"
"2226","5428.515"
"2227","5356.615"
"2228","5273.789"
"2229","5209.431"
"2230","5192.316"
"2231","5245.676"
"2232","5376.503"
"2233","5486.814"
"2234","5442.879"
"2235","5262.21"
"2236","5085.899"
"2237","4995.786"
"2238","4975.639"
"2239","4997.396"
"2240","5022.904"
"2241","5019.11"
"2242","4997.582"
"2243","4984.639"
"2244","4972.521"
"2245","4928.758"
"2246","4838.185"
"2247","4710.026"
"2248","4572.451"
"2249","4497.528"
"2250","4541.959"
"2251","4647.357"
"2252","4724.07"
"2253","4741.976"
"2254","4707.354"
"2255","4638.389"
"2256","4565.73"
"2257","4508.704"
"2258","4462.453"
"2259","4416.258"
"2260","4348.163"
"2261","4242.606"
"2262","4152.968"
"2263","4156.071"
"2264","4192.987"
"2265","4095.855"
"2266","3859.879"
"2267","3722.822"
"2268","3813.544"
"2269","3921.528"
"2270","3844.999"
"2271","3705.029"
"2272","3698.237"
"2273","3773.734"
"2274","3747.248"
"2275","3593.128"
"2276","3443.374"
"2277","3369.68"
"2278","3328.627"
"2279","3279.232"
"2280","3222.865"
"2281","3168.015"
"2282","3117.815"
"2283","3072.856"
"2284","3026.403"
"2285","2968.222"
"2286","2914.083"
"2287","2906.635"
"2288","2945.553"
"2289","2951.843"
"2290","2868.172"
"2291","2730.131"
"2292","2592.235"
"2293","2513.42"
"2294","2541.497"
"2295","2590.173"
"2296","2501.307"
"2297","2303.211"
"2298","2207.348"
"2299","2271.444"
"2300","2289.599"
