,"Scan 01111"
"400","7381.487"
"401","7443.835"
"402","7503.463"
"403","7546.55"
"404","7573.381"
"405","7588.773"
"406","7597.505"
"407","7604.336"
"408","7614.144"
"409","7631.846"
"410","7662.32"
"411","7709.477"
"412","7765.053"
"413","7812.358"
"414","7834.647"
"415","7816.038"
"416","7757.352"
"417","7675.679"
"418","7588.668"
"419","7513.656"
"420","7459.932"
"421","7425.999"
"422","7409.612"
"423","7408.52"
"424","7418.249"
"425","7430.232"
"426","7435.509"
"427","7425.205"
"428","7395.059"
"429","7352.283"
"430","7305.796"
"431","7264.46"
"432","7235.116"
"433","7217.952"
"434","7211.751"
"435","7215.307"
"436","7226.647"
"437","7240.309"
"438","7249.877"
"439","7248.983"
"440","7232.85"
"441","7206.01"
"442","7176.388"
"443","7151.861"
"444","7139.471"
"445","7140.135"
"446","7151.908"
"447","7172.845"
"448","7200.575"
"449","7228.331"
"450","7246.82"
"451","7246.783"
"452","7220.006"
"453","7171.271"
"454","7114.44"
"455","7063.472"
"456","7031.566"
"457","7020.392"
"458","7022.028"
"459","7028.312"
"460","7031.352"
"461","7028.041"
"462","7019.928"
"463","7008.744"
"464","6996.178"
"465","6982.958"
"466","6968.749"
"467","6953.16"
"468","6935.835"
"469","6917.637"
"470","6900.969"
"471","6888.322"
"472","6882.123"
"473","6882.666"
"474","6887.24"
"475","6892.922"
"476","6896.827"
"477","6897.396"
"478","6895.104"
"479","6890.6"
"480","6884.538"
"481","6878.283"
"482","6874.395"
"483","6875.537"
"484","6884.315"
"485","6899.925"
"486","6915.491"
"487","6923.548"
"488","6916.726"
"489","6892.638"
"490","6858.177"
"491","6821.21"
"492","6789.522"
"493","6766.726"
"494","6748.439"
"495","6729.398"
"496","6704.402"
"497","6672.161"
"498","6639"
"499","6612.092"
"500","6598.518"
"501","6599.33"
"502","6603.867"
"503","6600.176"
"504","6576.436"
"505","6528.58"
"506","6467.319"
"507","6404.976"
"508","6353.746"
"509","6319.689"
"510","6297.574"
"511","6280.977"
"512","6263.546"
"513","6242.099"
"514","6219.011"
"515","6197.213"
"516","6179.595"
"517","6167.352"
"518","6158.889"
"519","6152.359"
"520","6145.945"
"521","6138.915"
"522","6132.186"
"523","6126.808"
"524","6123.815"
"525","6123.549"
"526","6125.389"
"527","6128.654"
"528","6132.591"
"529","6133.871"
"530","6125.948"
"531","6102.107"
"532","6056.042"
"533","5991.802"
"534","5924.858"
"535","5871.193"
"536","5845.995"
"537","5848.955"
"538","5864.87"
"539","5878.007"
"540","5873.496"
"541","5849.824"
"542","5816.515"
"543","5783.378"
"544","5759.735"
"545","5749.024"
"546","5750.57"
"547","5763.61"
"548","5786.846"
"549","5813.365"
"550","5833.014"
"551","5835.643"
"552","5813.114"
"553","5772.937"
"554","5730.04"
"555","5699.328"
"556","5693.003"
"557","5706.989"
"558","5731.04"
"559","5754.948"
"560","5769.828"
"561","5772.929"
"562","5763.315"
"563","5740.059"
"564","5704.306"
"565","5664.707"
"566","5631.574"
"567","5615.167"
"568","5621.221"
"569","5643.204"
"570","5672.537"
"571","5700.693"
"572","5721.08"
"573","5731.021"
"574","5728.331"
"575","5710.904"
"576","5680.681"
"577","5645.805"
"578","5614.912"
"579","5596.367"
"580","5591.468"
"581","5593.458"
"582","5595.165"
"583","5589.852"
"584","5577.727"
"585","5564.846"
"586","5557.417"
"587","5560.991"
"588","5574.234"
"589","5591.634"
"590","5607.639"
"591","5617.372"
"592","5620.55"
"593","5618.865"
"594","5614.011"
"595","5607.571"
"596","5600.643"
"597","5594.183"
"598","5589.143"
"599","5586.558"
"600","5587.731"
"601","5594.013"
"602","5606.737"
"603","5625.453"
"604","5646.021"
"605","5663.866"
"606","5674.482"
"607","5675.71"
"608","5668.63"
"609","5654.558"
"610","5634.881"
"611","5612.535"
"612","5591.882"
"613","5577.33"
"614","5572.875"
"615","5578.238"
"616","5590.539"
"617","5606.858"
"618","5624.129"
"619","5638.215"
"620","5644.572"
"621","5638.674"
"622","5618.768"
"623","5593.608"
"624","5574.431"
"625","5572.397"
"626","5591.157"
"627","5617.113"
"628","5634.299"
"629","5627.101"
"630","5594.116"
"631","5554.086"
"632","5527.228"
"633","5532.64"
"634","5569.998"
"635","5621.896"
"636","5670.408"
"637","5699.262"
"638","5706.875"
"639","5699.522"
"640","5683.53"
"641","5664.647"
"642","5645.832"
"643","5629.169"
"644","5616.733"
"645","5608.966"
"646","5601.792"
"647","5590.371"
"648","5569.959"
"649","5540.999"
"650","5512.141"
"651","5492.737"
"652","5491.549"
"653","5506.176"
"654","5523.932"
"655","5531.79"
"656","5518.804"
"657","5492.389"
"658","5469.602"
"659","5467.536"
"660","5497.844"
"661","5547.573"
"662","5596.811"
"663","5625.732"
"664","5623.25"
"665","5598.991"
"666","5565.582"
"667","5535.465"
"668","5515.587"
"669","5505.796"
"670","5505.466"
"671","5513.831"
"672","5528.221"
"673","5544.619"
"674","5558.988"
"675","5567.984"
"676","5572.38"
"677","5574.489"
"678","5576.62"
"679","5580.942"
"680","5589.219"
"681","5603.137"
"682","5624.347"
"683","5652.728"
"684","5685.493"
"685","5719.644"
"686","5752.175"
"687","5779.935"
"688","5799.645"
"689","5808.038"
"690","5802.848"
"691","5788.279"
"692","5771.105"
"693","5758.088"
"694","5752.713"
"695","5748.681"
"696","5737.879"
"697","5712.382"
"698","5672.709"
"699","5631.669"
"700","5603.008"
"701","5599.344"
"702","5618.073"
"703","5645.524"
"704","5667.799"
"705","5673.699"
"706","5666.941"
"707","5656.414"
"708","5650.982"
"709","5655.396"
"710","5664.208"
"711","5670.425"
"712","5667.27"
"713","5654.274"
"714","5638.373"
"715","5626.906"
"716","5626.461"
"717","5636.495"
"718","5652.471"
"719","5669.818"
"720","5684.646"
"721","5695.711"
"722","5702.424"
"723","5704.216"
"724","5702.013"
"725","5699.318"
"726","5699.885"
"727","5707.175"
"728","5720.222"
"729","5734.533"
"730","5745.522"
"731","5749.467"
"732","5747.51"
"733","5742.503"
"734","5737.299"
"735","5735.052"
"736","5739.64"
"737","5755.03"
"738","5784.807"
"739","5823.324"
"740","5855.481"
"741","5865.776"
"742","5841.89"
"743","5794.835"
"744","5746.079"
"745","5717.088"
"746","5720.426"
"747","5743.235"
"748","5768.155"
"749","5778.242"
"750","5769.077"
"751","5751.27"
"752","5736.307"
"753","5734.564"
"754","5746.929"
"755","5769.412"
"756","5797.994"
"757","5828.175"
"758","5853.906"
"759","5868.842"
"760","5866.856"
"761","5849.945"
"762","5830.535"
"763","5821.728"
"764","5834.77"
"765","5864.222"
"766","5895.73"
"767","5914.875"
"768","5912.295"
"769","5894.868"
"770","5872.726"
"771","5855.901"
"772","5851.199"
"773","5861.366"
"774","5888.891"
"775","5934.871"
"776","5988.58"
"777","6033.293"
"778","6052.272"
"779","6037.379"
"780","6005.824"
"781","5979.446"
"782","5979.473"
"783","6010.067"
"784","6056.127"
"785","6101.536"
"786","6132.203"
"787","6148.574"
"788","6157.482"
"789","6165.763"
"790","6177.484"
"791","6189.913"
"792","6199.285"
"793","6202.003"
"794","6197.783"
"795","6189.416"
"796","6179.813"
"797","6171.98"
"798","6169.479"
"799","6176.062"
"800","6195.426"
"801","6225.926"
"802","6255.815"
"803","6272.233"
"804","6263.711"
"805","6237.151"
"806","6212.458"
"807","6209.797"
"808","6241.762"
"809","6291.299"
"810","6334.101"
"811","6346.319"
"812","6322.976"
"813","6284.574"
"814","6253.412"
"815","6249.072"
"816","6268.933"
"817","6299.462"
"818","6327.074"
"819","6343.015"
"820","6350.874"
"821","6356.174"
"822","6364.221"
"823","6376.057"
"824","6388.901"
"825","6399.835"
"826","6406.148"
"827","6406.126"
"828","6398.368"
"829","6381.53"
"830","6358.177"
"831","6337.03"
"832","6327.346"
"833","6337.222"
"834","6363.803"
"835","6398.205"
"836","6431.481"
"837","6456.602"
"838","6471.786"
"839","6476.149"
"840","6469.002"
"841","6453.598"
"842","6436.813"
"843","6425.667"
"844","6425.141"
"845","6430.429"
"846","6433.784"
"847","6427.619"
"848","6412.78"
"849","6402.656"
"850","6411.657"
"851","6451.451"
"852","6510.874"
"853","6567.396"
"854","6598.454"
"855","6593.02"
"856","6567.394"
"857","6541.822"
"858","6535.394"
"859","6549.845"
"860","6573.5"
"861","6594.34"
"862","6603.825"
"863","6606.504"
"864","6609.999"
"865","6621.702"
"866","6642.212"
"867","6664.314"
"868","6680.358"
"869","6684.061"
"870","6677.097"
"871","6664.029"
"872","6649.432"
"873","6638.727"
"874","6638.741"
"875","6656.434"
"876","6696.97"
"877","6749.309"
"878","6793.831"
"879","6810.876"
"880","6792.363"
"881","6757.81"
"882","6730.76"
"883","6733.228"
"884","6765.734"
"885","6812.933"
"886","6859.107"
"887","6892.14"
"888","6912"
"889","6921.198"
"890","6922.324"
"891","6919.86"
"892","6920.167"
"893","6929.684"
"894","6952.932"
"895","6985.557"
"896","7020.626"
"897","7051.295"
"898","7073.974"
"899","7089.305"
"900","7098.212"
"901","7101.664"
"902","7100.958"
"903","7097.504"
"904","7092.723"
"905","7088.427"
"906","7087.09"
"907","7091.244"
"908","7102.795"
"909","7118.499"
"910","7132.576"
"911","7139.254"
"912","7136.699"
"913","7131.202"
"914","7130.058"
"915","7139.689"
"916","7157.168"
"917","7173.91"
"918","7181.259"
"919","7173.892"
"920","7154.916"
"921","7128.742"
"922","7099.958"
"923","7075.508"
"924","7064.038"
"925","7074.228"
"926","7109.422"
"927","7156.827"
"928","7200.599"
"929","7225.641"
"930","7229.501"
"931","7220.346"
"932","7206.679"
"933","7194.848"
"934","7183.604"
"935","7170.02"
"936","7151.451"
"937","7131.25"
"938","7118.471"
"939","7122.397"
"940","7147.854"
"941","7181.742"
"942","7206.465"
"943","7205.142"
"944","7179.244"
"945","7149.55"
"946","7137.771"
"947","7158.756"
"948","7196.814"
"949","7227.756"
"950","7228.1"
"951","7195.394"
"952","7151.113"
"953","7118.043"
"954","7113.985"
"955","7132.791"
"956","7161.12"
"957","7185.839"
"958","7200.75"
"959","7207.996"
"960","7210.22"
"961","7209.492"
"962","7204.941"
"963","7194.779"
"964","7177.342"
"965","7155.414"
"966","7137.304"
"967","7131.679"
"968","7144.955"
"969","7171.858"
"970","7203.332"
"971","7230.406"
"972","7247.816"
"973","7254.946"
"974","7251.476"
"975","7237.929"
"976","7219.211"
"977","7201.648"
"978","7191.444"
"979","7190.256"
"980","7194.065"
"981","7198.483"
"982","7200.004"
"983","7199.592"
"984","7199.637"
"985","7202.4"
"986","7205.977"
"987","7203.391"
"988","7187.359"
"989","7153.876"
"990","7114.956"
"991","7087.489"
"992","7087.897"
"993","7117.799"
"994","7161.664"
"995","7202.993"
"996","7229.054"
"997","7244.367"
"998","7258.378"
"999","7280.215"
"1000","7310.243"
"1001","7339.328"
"1002","7357.863"
"1003","7359.804"
"1004","7354.091"
"1005","7353.609"
"1006","7371.213"
"1007","7410.592"
"1008","7452.369"
"1009","7473.583"
"1010","7454.229"
"1011","7404.836"
"1012","7353.967"
"1013","7330.312"
"1014","7346.146"
"1015","7381.454"
"1016","7412.435"
"1017","7418.661"
"1018","7405.191"
"1019","7388.689"
"1020","7385.701"
"1021","7402.497"
"1022","7429.985"
"1023","7457.808"
"1024","7477.226"
"1025","7488.173"
"1026","7493.478"
"1027","7495.936"
"1028","7497.423"
"1029","7498.802"
"1030","7500.882"
"1031","7504.205"
"1032","7508.308"
"1033","7512.498"
"1034","7516.187"
"1035","7520.335"
"1036","7527.129"
"1037","7538.785"
"1038","7556.542"
"1039","7579.241"
"1040","7605.358"
"1041","7632.9"
"1042","7655.686"
"1043","7665.306"
"1044","7653.455"
"1045","7620.951"
"1046","7583.439"
"1047","7557.934"
"1048","7558.008"
"1049","7578.438"
"1050","7607.617"
"1051","7634.229"
"1052","7654.612"
"1053","7673.13"
"1054","7694.523"
"1055","7721.787"
"1056","7752.254"
"1057","7782.104"
"1058","7807.786"
"1059","7828.976"
"1060","7847.44"
"1061","7864.976"
"1062","7881.763"
"1063","7894.918"
"1064","7901.208"
"1065","7898.71"
"1066","7893.584"
"1067","7895.077"
"1068","7912.033"
"1069","7941.626"
"1070","7968.065"
"1071","7974.868"
"1072","7952.988"
"1073","7917.862"
"1074","7889.958"
"1075","7887.778"
"1076","7907.495"
"1077","7931.212"
"1078","7940.924"
"1079","7929.674"
"1080","7909.845"
"1081","7895.773"
"1082","7898.875"
"1083","7914.97"
"1084","7934.698"
"1085","7948.982"
"1086","7954.7"
"1087","7954.305"
"1088","7950.464"
"1089","7945.072"
"1090","7938.022"
"1091","7928.886"
"1092","7917.57"
"1093","7906.594"
"1094","7899.735"
"1095","7900.642"
"1096","7907.742"
"1097","7912.806"
"1098","7907.172"
"1099","7885.538"
"1100","7854.517"
"1101","7823.35"
"1102","7800.863"
"1103","7791.231"
"1104","7795.719"
"1105","7815.464"
"1106","7846.241"
"1107","7875.209"
"1108","7888.743"
"1109","7877.398"
"1110","7850.307"
"1111","7821.765"
"1112","7805.245"
"1113","7802.399"
"1114","7806.105"
"1115","7809.068"
"1116","7808.424"
"1117","7809.575"
"1118","7818.836"
"1119","7840.091"
"1120","7864.887"
"1121","7880.854"
"1122","7876.427"
"1123","7853.363"
"1124","7824.252"
"1125","7801.956"
"1126","7793.433"
"1127","7793.879"
"1128","7797.101"
"1129","7798.032"
"1130","7797.629"
"1131","7798.83"
"1132","7804.34"
"1133","7812.992"
"1134","7820.443"
"1135","7822.264"
"1136","7815.909"
"1137","7802.507"
"1138","7783.614"
"1139","7761.845"
"1140","7745.163"
"1141","7743.202"
"1142","7764.593"
"1143","7803.091"
"1144","7841.106"
"1145","7860.896"
"1146","7856.33"
"1147","7841.655"
"1148","7833.197"
"1149","7842.421"
"1150","7859.7"
"1151","7869.696"
"1152","7858.85"
"1153","7834.614"
"1154","7818.124"
"1155","7830.377"
"1156","7872.837"
"1157","7918.508"
"1158","7938.138"
"1159","7914.117"
"1160","7868.585"
"1161","7832.152"
"1162","7831.711"
"1163","7862.046"
"1164","7901.56"
"1165","7929.075"
"1166","7939.318"
"1167","7944.815"
"1168","7959.007"
"1169","7986.795"
"1170","8011.969"
"1171","8015.117"
"1172","7981.908"
"1173","7927.804"
"1174","7879.066"
"1175","7860.664"
"1176","7876.779"
"1177","7915.108"
"1178","7962.881"
"1179","8007.414"
"1180","8036.152"
"1181","8036.548"
"1182","8002.776"
"1183","7953.844"
"1184","7914.503"
"1185","7906.43"
"1186","7924.441"
"1187","7949.557"
"1188","7963.322"
"1189","7964.274"
"1190","7968.927"
"1191","7994.597"
"1192","8045.252"
"1193","8095.82"
"1194","8117.393"
"1195","8090.078"
"1196","8036.81"
"1197","7993.214"
"1198","7991.621"
"1199","8027.681"
"1200","8074.288"
"1201","8104.462"
"1202","8108.083"
"1203","8095.691"
"1204","8079.1"
"1205","8067.339"
"1206","8062.659"
"1207","8066.277"
"1208","8078.741"
"1209","8097.14"
"1210","8117.433"
"1211","8135.698"
"1212","8149.426"
"1213","8157.008"
"1214","8156.958"
"1215","8151.349"
"1216","8146.635"
"1217","8149.536"
"1218","8161.776"
"1219","8173.264"
"1220","8172.176"
"1221","8151.072"
"1222","8123.526"
"1223","8109.419"
"1224","8126.027"
"1225","8164.028"
"1226","8198.583"
"1227","8205.519"
"1228","8183.641"
"1229","8156.471"
"1230","8148.663"
"1231","8171.283"
"1232","8208.547"
"1233","8241.513"
"1234","8256.163"
"1235","8257.182"
"1236","8253.682"
"1237","8253.849"
"1238","8258.898"
"1239","8266.899"
"1240","8276.056"
"1241","8287.091"
"1242","8302.785"
"1243","8325.899"
"1244","8355.491"
"1245","8385.311"
"1246","8408.692"
"1247","8421.505"
"1248","8426.118"
"1249","8425.929"
"1250","8424.483"
"1251","8426.034"
"1252","8435.044"
"1253","8455.338"
"1254","8484.925"
"1255","8518.708"
"1256","8551.579"
"1257","8578.815"
"1258","8596.054"
"1259","8599.029"
"1260","8588.781"
"1261","8574.505"
"1262","8566.086"
"1263","8569.855"
"1264","8582.758"
"1265","8600.213"
"1266","8617.462"
"1267","8628.961"
"1268","8628.935"
"1269","8612.948"
"1270","8587.872"
"1271","8566.227"
"1272","8559.893"
"1273","8569.228"
"1274","8585.132"
"1275","8598.316"
"1276","8603.714"
"1277","8601.832"
"1278","8593.563"
"1279","8580.414"
"1280","8565.195"
"1281","8550.887"
"1282","8539.918"
"1283","8532.729"
"1284","8529.32"
"1285","8529.664"
"1286","8533.561"
"1287","8540.743"
"1288","8550.736"
"1289","8560.875"
"1290","8567.191"
"1291","8566.064"
"1292","8561.115"
"1293","8562.617"
"1294","8580.936"
"1295","8618.352"
"1296","8665.803"
"1297","8713.375"
"1298","8753.756"
"1299","8785.264"
"1300","8806.949"
"1301","8818.316"
"1302","8820.397"
"1303","8814.563"
"1304","8802.387"
"1305","8786.656"
"1306","8770.555"
"1307","8757.265"
"1308","8749.948"
"1309","8751.754"
"1310","8765.283"
"1311","8784.918"
"1312","8798.866"
"1313","8795.522"
"1314","8772.966"
"1315","8739.907"
"1316","8705.544"
"1317","8675.428"
"1318","8649.321"
"1319","8626.484"
"1320","8608.962"
"1321","8605.216"
"1322","8624.609"
"1323","8669.285"
"1324","8716.938"
"1325","8740.082"
"1326","8718.658"
"1327","8669.763"
"1328","8622.094"
"1329","8600.924"
"1330","8606.052"
"1331","8625.837"
"1332","8648.815"
"1333","8666.146"
"1334","8670.645"
"1335","8656.024"
"1336","8631.753"
"1337","8620.91"
"1338","8646.308"
"1339","8707.903"
"1340","8778.873"
"1341","8831.122"
"1342","8853.896"
"1343","8863.871"
"1344","8880.099"
"1345","8909.264"
"1346","8931.607"
"1347","8923.959"
"1348","8874.818"
"1349","8806.542"
"1350","8747.625"
"1351","8719.541"
"1352","8715.969"
"1353","8723.724"
"1354","8730.512"
"1355","8728.884"
"1356","8713.001"
"1357","8678.694"
"1358","8633.935"
"1359","8592.058"
"1360","8565.165"
"1361","8552.842"
"1362","8547.5"
"1363","8542.169"
"1364","8539.556"
"1365","8549.437"
"1366","8580.771"
"1367","8622.99"
"1368","8647.552"
"1369","8626.28"
"1370","8562.431"
"1371","8495.339"
"1372","8465.774"
"1373","8486.114"
"1374","8528.345"
"1375","8561.492"
"1376","8567.381"
"1377","8550.319"
"1378","8516.91"
"1379","8476.632"
"1380","8445.126"
"1381","8438.849"
"1382","8464.039"
"1383","8499.896"
"1384","8521.183"
"1385","8512.031"
"1386","8486.983"
"1387","8466.741"
"1388","8466.197"
"1389","8477.344"
"1390","8486.513"
"1391","8483.48"
"1392","8474.424"
"1393","8470.4"
"1394","8479.987"
"1395","8497.617"
"1396","8512.709"
"1397","8516.164"
"1398","8509.048"
"1399","8496.657"
"1400","8484.002"
"1401","8473.612"
"1402","8466.838"
"1403","8465.014"
"1404","8469.469"
"1405","8481.532"
"1406","8501.863"
"1407","8523.614"
"1408","8535.227"
"1409","8526.097"
"1410","8499.398"
"1411","8468.031"
"1412","8444.812"
"1413","8437.798"
"1414","8451.316"
"1415","8488.787"
"1416","8539.016"
"1417","8578.126"
"1418","8582.953"
"1419","8554.544"
"1420","8516.91"
"1421","8494.487"
"1422","8499.127"
"1423","8529.735"
"1424","8584.341"
"1425","8653.04"
"1426","8717.145"
"1427","8758.03"
"1428","8774.167"
"1429","8784.247"
"1430","8807.744"
"1431","8849.595"
"1432","8896.521"
"1433","8934.437"
"1434","8963.467"
"1435","9002.463"
"1436","9071.088"
"1437","9167.368"
"1438","9259.651"
"1439","9314.555"
"1440","9320.553"
"1441","9297.133"
"1442","9265.956"
"1443","9238.566"
"1444","9211.757"
"1445","9181.299"
"1446","9150.232"
"1447","9132.37"
"1448","9142.083"
"1449","9176.43"
"1450","9206.607"
"1451","9202.092"
"1452","9155.007"
"1453","9091.372"
"1454","9039.682"
"1455","9011.538"
"1456","8993.477"
"1457","8970.162"
"1458","8935.1"
"1459","8894.694"
"1460","8856.336"
"1461","8824.785"
"1462","8801.061"
"1463","8785.822"
"1464","8776.399"
"1465","8765.5"
"1466","8745.591"
"1467","8712.673"
"1468","8667.447"
"1469","8611.076"
"1470","8549.102"
"1471","8492.634"
"1472","8452.856"
"1473","8431.43"
"1474","8418.603"
"1475","8404.246"
"1476","8386.795"
"1477","8374.319"
"1478","8374.911"
"1479","8384.353"
"1480","8385.55"
"1481","8361.596"
"1482","8313.334"
"1483","8258.757"
"1484","8215.996"
"1485","8192.281"
"1486","8185.188"
"1487","8191.557"
"1488","8201.901"
"1489","8201.641"
"1490","8177.352"
"1491","8133.799"
"1492","8088.943"
"1493","8059.956"
"1494","8051.028"
"1495","8057.941"
"1496","8075.78"
"1497","8094.143"
"1498","8099.477"
"1499","8080.585"
"1500","8046.635"
"1501","8017.028"
"1502","8008.329"
"1503","8016.118"
"1504","8026.831"
"1505","8029.23"
"1506","8026.392"
"1507","8026.737"
"1508","8035.939"
"1509","8045.77"
"1510","8043.596"
"1511","8022.582"
"1512","8000.294"
"1513","8000.739"
"1514","8035.9"
"1515","8075.891"
"1516","8081.716"
"1517","8033.588"
"1518","7966.727"
"1519","7926.092"
"1520","7935.881"
"1521","7971.588"
"1522","8001.852"
"1523","8009.564"
"1524","8004.947"
"1525","8001.189"
"1526","8003.185"
"1527","8002.896"
"1528","7991.42"
"1529","7969.515"
"1530","7950.2"
"1531","7946.981"
"1532","7965.794"
"1533","8004.815"
"1534","8061.346"
"1535","8124.177"
"1536","8175.093"
"1537","8197.191"
"1538","8191.71"
"1539","8171.722"
"1540","8149.74"
"1541","8131.613"
"1542","8119.796"
"1543","8114.371"
"1544","8100.448"
"1545","8057.25"
"1546","7972.622"
"1547","7875.501"
"1548","7807.047"
"1549","7795.032"
"1550","7819.933"
"1551","7851.805"
"1552","7871.299"
"1553","7886.747"
"1554","7910.861"
"1555","7944.098"
"1556","7963.088"
"1557","7942.175"
"1558","7880.248"
"1559","7811.86"
"1560","7773.389"
"1561","7773.806"
"1562","7792.334"
"1563","7807.469"
"1564","7810.262"
"1565","7801.872"
"1566","7783.997"
"1567","7760.915"
"1568","7738.429"
"1569","7721.667"
"1570","7710.862"
"1571","7704.171"
"1572","7699.814"
"1573","7696.32"
"1574","7692.306"
"1575","7687.231"
"1576","7683.292"
"1577","7683.23"
"1578","7687.878"
"1579","7693.771"
"1580","7696.855"
"1581","7693.136"
"1582","7678.725"
"1583","7650.162"
"1584","7615.464"
"1585","7595.304"
"1586","7609.223"
"1587","7649.729"
"1588","7688.536"
"1589","7700.134"
"1590","7689.036"
"1591","7675.637"
"1592","7676.394"
"1593","7684.472"
"1594","7684.803"
"1595","7668.702"
"1596","7650.878"
"1597","7651.36"
"1598","7676.489"
"1599","7700.182"
"1600","7692.051"
"1601","7647.949"
"1602","7604.706"
"1603","7601.143"
"1604","7636.515"
"1605","7668.939"
"1606","7658.187"
"1607","7609.846"
"1608","7560.996"
"1609","7545.438"
"1610","7568.131"
"1611","7621.245"
"1612","7693.22"
"1613","7756.356"
"1614","7778.494"
"1615","7746.302"
"1616","7697.3"
"1617","7677.186"
"1618","7704.472"
"1619","7751.819"
"1620","7788.106"
"1621","7799.378"
"1622","7790.055"
"1623","7765.684"
"1624","7734.583"
"1625","7706.948"
"1626","7691.892"
"1627","7690.803"
"1628","7701.863"
"1629","7720.986"
"1630","7735.206"
"1631","7729.443"
"1632","7700.484"
"1633","7672.339"
"1634","7672.32"
"1635","7703.928"
"1636","7737.759"
"1637","7743.756"
"1638","7722.619"
"1639","7700.962"
"1640","7703.587"
"1641","7732.762"
"1642","7779.395"
"1643","7832.789"
"1644","7875.29"
"1645","7887.252"
"1646","7863.848"
"1647","7838.362"
"1648","7849.592"
"1649","7905.03"
"1650","7965.78"
"1651","7991.225"
"1652","7978.572"
"1653","7957.943"
"1654","7957.453"
"1655","7978.766"
"1656","8010.269"
"1657","8039.699"
"1658","8052.442"
"1659","8033.258"
"1660","7979.395"
"1661","7917.593"
"1662","7878.311"
"1663","7868.358"
"1664","7863.359"
"1665","7838.711"
"1666","7797.614"
"1667","7764.041"
"1668","7757.868"
"1669","7768.019"
"1670","7770.706"
"1671","7750.039"
"1672","7717.192"
"1673","7689.003"
"1674","7672.689"
"1675","7658.235"
"1676","7634.344"
"1677","7601.249"
"1678","7570.479"
"1679","7552.619"
"1680","7545.372"
"1681","7539.598"
"1682","7528.115"
"1683","7512.529"
"1684","7496.815"
"1685","7483.381"
"1686","7471.202"
"1687","7458.784"
"1688","7443.913"
"1689","7423.558"
"1690","7395.493"
"1691","7366.647"
"1692","7349.467"
"1693","7351.957"
"1694","7360.183"
"1695","7353.606"
"1696","7321.913"
"1697","7278.659"
"1698","7240.606"
"1699","7217.663"
"1700","7211.624"
"1701","7223.222"
"1702","7246.91"
"1703","7273.306"
"1704","7293.38"
"1705","7300.133"
"1706","7287.185"
"1707","7255.723"
"1708","7223.669"
"1709","7210.661"
"1710","7221.017"
"1711","7242.249"
"1712","7261.094"
"1713","7265.375"
"1714","7243.498"
"1715","7191.877"
"1716","7139.432"
"1717","7123.117"
"1718","7153.545"
"1719","7192.254"
"1720","7197.433"
"1721","7167.722"
"1722","7138.429"
"1723","7140.583"
"1724","7165.031"
"1725","7185.236"
"1726","7183.758"
"1727","7171.251"
"1728","7163.59"
"1729","7170.245"
"1730","7191.679"
"1731","7226.517"
"1732","7259.166"
"1733","7264.532"
"1734","7226.831"
"1735","7175.742"
"1736","7154.415"
"1737","7180.511"
"1738","7219.2"
"1739","7230.772"
"1740","7210.215"
"1741","7185.419"
"1742","7181.138"
"1743","7190.434"
"1744","7192.73"
"1745","7175.882"
"1746","7152.21"
"1747","7138.081"
"1748","7137.076"
"1749","7136.61"
"1750","7124.594"
"1751","7104.298"
"1752","7087.753"
"1753","7082.469"
"1754","7078.337"
"1755","7061.27"
"1756","7030.787"
"1757","7007.986"
"1758","7014.119"
"1759","7046.864"
"1760","7087.35"
"1761","7118.683"
"1762","7135.01"
"1763","7133.73"
"1764","7116.576"
"1765","7093.399"
"1766","7074.261"
"1767","7057.914"
"1768","7033.97"
"1769","6996.761"
"1770","6967.471"
"1771","6976.138"
"1772","7027.211"
"1773","7071.936"
"1774","7058.338"
"1775","6998.621"
"1776","6961.085"
"1777","6999.295"
"1778","7070.613"
"1779","7098.248"
"1780","7045.681"
"1781","6963.6"
"1782","6912.064"
"1783","6911.553"
"1784","6947.416"
"1785","7002.321"
"1786","7050.794"
"1787","7064.551"
"1788","7036.148"
"1789","7001.956"
"1790","7001.052"
"1791","7021.967"
"1792","7010.376"
"1793","6928.371"
"1794","6832.382"
"1795","6809.474"
"1796","6887.751"
"1797","6982.193"
"1798","7001.206"
"1799","6947.278"
"1800","6894.466"
"1801","6899.388"
"1802","6930.545"
"1803","6931.856"
"1804","6885.793"
"1805","6838.184"
"1806","6836.209"
"1807","6873.791"
"1808","6910.72"
"1809","6917.402"
"1810","6905.394"
"1811","6895.51"
"1812","6901.098"
"1813","6925.581"
"1814","6968.355"
"1815","7000.448"
"1816","6978.562"
"1817","6887.137"
"1818","6787.558"
"1819","6751.965"
"1820","6792.844"
"1821","6862.34"
"1822","6916.034"
"1823","6946.5"
"1824","6959.888"
"1825","6958.496"
"1826","6936.985"
"1827","6890.981"
"1828","6841.7"
"1829","6828.939"
"1830","6876.673"
"1831","6944.362"
"1832","6976.183"
"1833","6948.752"
"1834","6882.372"
"1835","6801.071"
"1836","6733.714"
"1837","6711.504"
"1838","6746.026"
"1839","6799.911"
"1840","6830.079"
"1841","6827.936"
"1842","6814.99"
"1843","6810.521"
"1844","6818.325"
"1845","6837.49"
"1846","6857.827"
"1847","6855.093"
"1848","6808.915"
"1849","6744.688"
"1850","6712.007"
"1851","6737.529"
"1852","6786.723"
"1853","6817.045"
"1854","6824.169"
"1855","6837.754"
"1856","6878.73"
"1857","6921.917"
"1858","6929.333"
"1859","6892.616"
"1860","6846.181"
"1861","6823.837"
"1862","6826.635"
"1863","6839.745"
"1864","6851.214"
"1865","6856.13"
"1866","6851.15"
"1867","6841.75"
"1868","6840.171"
"1869","6851.792"
"1870","6855.461"
"1871","6824.943"
"1872","6771.42"
"1873","6749.674"
"1874","6802.26"
"1875","6882.697"
"1876","6911.86"
"1877","6861.395"
"1878","6791.194"
"1879","6763.829"
"1880","6781.454"
"1881","6812.512"
"1882","6834.232"
"1883","6847.417"
"1884","6856.402"
"1885","6862.771"
"1886","6865.905"
"1887","6863.765"
"1888","6849.266"
"1889","6814.86"
"1890","6773.487"
"1891","6760.804"
"1892","6801.828"
"1893","6857.549"
"1894","6868.304"
"1895","6823.419"
"1896","6785.833"
"1897","6812.308"
"1898","6865.386"
"1899","6864.667"
"1900","6781.87"
"1901","6693.313"
"1902","6679.24"
"1903","6727.059"
"1904","6768.114"
"1905","6759.164"
"1906","6725.62"
"1907","6702.25"
"1908","6697.403"
"1909","6699.122"
"1910","6697.499"
"1911","6691.34"
"1912","6681.684"
"1913","6678.155"
"1914","6698.542"
"1915","6751.14"
"1916","6802.888"
"1917","6811.205"
"1918","6776.363"
"1919","6747.605"
"1920","6764.212"
"1921","6800.017"
"1922","6808.434"
"1923","6767.816"
"1924","6690.021"
"1925","6592.495"
"1926","6512.07"
"1927","6492.351"
"1928","6538.702"
"1929","6597.643"
"1930","6619.652"
"1931","6619.583"
"1932","6639.66"
"1933","6690.169"
"1934","6726.213"
"1935","6706.138"
"1936","6658.484"
"1937","6645.034"
"1938","6688.283"
"1939","6736.442"
"1940","6736.563"
"1941","6698.286"
"1942","6663.391"
"1943","6655.318"
"1944","6660.22"
"1945","6661.279"
"1946","6655.672"
"1947","6648.094"
"1948","6638.102"
"1949","6614.48"
"1950","6567.826"
"1951","6518.921"
"1952","6505.154"
"1953","6538.48"
"1954","6577.259"
"1955","6578.891"
"1956","6556.704"
"1957","6554.699"
"1958","6588.228"
"1959","6612.987"
"1960","6584.317"
"1961","6522.551"
"1962","6482.632"
"1963","6490.792"
"1964","6515.9"
"1965","6523.847"
"1966","6513.161"
"1967","6498.882"
"1968","6495.254"
"1969","6514.756"
"1970","6563.861"
"1971","6603.852"
"1972","6575.625"
"1973","6479.068"
"1974","6413.143"
"1975","6463.727"
"1976","6560.97"
"1977","6571.644"
"1978","6463.221"
"1979","6353.715"
"1980","6348.477"
"1981","6404.585"
"1982","6426.824"
"1983","6386.883"
"1984","6343.268"
"1985","6346.478"
"1986","6378.454"
"1987","6400.974"
"1988","6401.06"
"1989","6393.525"
"1990","6390.005"
"1991","6383.511"
"1992","6363.155"
"1993","6333.549"
"1994","6313.438"
"1995","6316.053"
"1996","6335.201"
"1997","6360.986"
"1998","6386.256"
"1999","6405.867"
"2000","6412.89"
"2001","6395.893"
"2002","6346.74"
"2003","6297.723"
"2004","6304.222"
"2005","6375.734"
"2006","6433.409"
"2007","6402.683"
"2008","6313.944"
"2009","6243.028"
"2010","6224.404"
"2011","6232.38"
"2012","6240.759"
"2013","6245.382"
"2014","6249.148"
"2015","6254.764"
"2016","6264.71"
"2017","6275.137"
"2018","6259.331"
"2019","6188.852"
"2020","6088.886"
"2021","6026.379"
"2022","6040.986"
"2023","6101.146"
"2024","6165.26"
"2025","6201.332"
"2026","6183.017"
"2027","6120.658"
"2028","6087.334"
"2029","6143.707"
"2030","6238.251"
"2031","6280.111"
"2032","6249.526"
"2033","6209.734"
"2034","6208.112"
"2035","6213.456"
"2036","6179.087"
"2037","6108.229"
"2038","6042.944"
"2039","6013.005"
"2040","6016.18"
"2041","6045.503"
"2042","6093.513"
"2043","6152.289"
"2044","6203.364"
"2045","6212.438"
"2046","6156.1"
"2047","6071.468"
"2048","6012.543"
"2049","5994.632"
"2050","5996.333"
"2051","6001.406"
"2052","6012.749"
"2053","6035.387"
"2054","6061.425"
"2055","6075.494"
"2056","6066.148"
"2057","6028.769"
"2058","5964.321"
"2059","5900.368"
"2060","5872.265"
"2061","5886.524"
"2062","5920.858"
"2063","5956.068"
"2064","5985.906"
"2065","6006.109"
"2066","6008.897"
"2067","5984.537"
"2068","5929.946"
"2069","5852.895"
"2070","5766.457"
"2071","5704.966"
"2072","5707.032"
"2073","5762.517"
"2074","5816.98"
"2075","5833.854"
"2076","5826.927"
"2077","5817.952"
"2078","5828.135"
"2079","5877.449"
"2080","5942.207"
"2081","5939.646"
"2082","5819.401"
"2083","5676.043"
"2084","5631.424"
"2085","5689.069"
"2086","5767.891"
"2087","5812.163"
"2088","5819.022"
"2089","5794.694"
"2090","5763.069"
"2091","5753.235"
"2092","5767.387"
"2093","5781.35"
"2094","5778.512"
"2095","5765.427"
"2096","5752.305"
"2097","5747.967"
"2098","5760.266"
"2099","5785.274"
"2100","5804.044"
"2101","5801.19"
"2102","5777.352"
"2103","5737.764"
"2104","5699.534"
"2105","5686.76"
"2106","5702.052"
"2107","5713.911"
"2108","5698.481"
"2109","5678.733"
"2110","5686.864"
"2111","5704.455"
"2112","5676.253"
"2113","5595.089"
"2114","5545.005"
"2115","5592.899"
"2116","5664.846"
"2117","5648.345"
"2118","5548.529"
"2119","5468.74"
"2120","5470.016"
"2121","5518.116"
"2122","5568.223"
"2123","5584.34"
"2124","5536.417"
"2125","5450.723"
"2126","5404.289"
"2127","5435.622"
"2128","5492.831"
"2129","5522.064"
"2130","5532.923"
"2131","5556.417"
"2132","5575.29"
"2133","5527.562"
"2134","5402.509"
"2135","5309.182"
"2136","5345.966"
"2137","5445.716"
"2138","5484.476"
"2139","5438.526"
"2140","5375.373"
"2141","5344.85"
"2142","5350.929"
"2143","5385.128"
"2144","5402.578"
"2145","5349.902"
"2146","5250.553"
"2147","5192.801"
"2148","5214.192"
"2149","5247.538"
"2150","5228.917"
"2151","5173.604"
"2152","5120.287"
"2153","5087.529"
"2154","5078.806"
"2155","5100.093"
"2156","5162.257"
"2157","5262.315"
"2158","5337.097"
"2159","5315.367"
"2160","5216.659"
"2161","5117.616"
"2162","5070.595"
"2163","5091.913"
"2164","5173.507"
"2165","5234.97"
"2166","5194.529"
"2167","5090.438"
"2168","5019.766"
"2169","5018.066"
"2170","5050.966"
"2171","5089.02"
"2172","5124.972"
"2173","5151.983"
"2174","5144.724"
"2175","5074.289"
"2176","4974.002"
"2177","4929.845"
"2178","4980.322"
"2179","5072.698"
"2180","5145.173"
"2181","5140.494"
"2182","5013.457"
"2183","4838.162"
"2184","4759.222"
"2185","4817.656"
"2186","4918.01"
"2187","4977.109"
"2188","4973.819"
"2189","4905.938"
"2190","4825.034"
"2191","4801.827"
"2192","4848.247"
"2193","4924.35"
"2194","4993.126"
"2195","5026.414"
"2196","5006.062"
"2197","4951.456"
"2198","4889.988"
"2199","4832.58"
"2200","4780.911"
"2201","4738.018"
"2202","4708.627"
"2203","4696.642"
"2204","4703.698"
"2205","4728.256"
"2206","4753.536"
"2207","4758.885"
"2208","4740.872"
"2209","4708.318"
"2210","4676.022"
"2211","4666.817"
"2212","4683.056"
"2213","4665.229"
"2214","4559.659"
"2215","4424.453"
"2216","4357.337"
"2217","4376.033"
"2218","4433.956"
"2219","4496.338"
"2220","4550.17"
"2221","4580.427"
"2222","4559.56"
"2223","4471.103"
"2224","4394.725"
"2225","4442.83"
"2226","4575.604"
"2227","4625.635"
"2228","4536.46"
"2229","4439.992"
"2230","4431.287"
"2231","4425.97"
"2232","4327.561"
"2233","4213.014"
"2234","4223.831"
"2235","4347.643"
"2236","4446.332"
"2237","4446.09"
"2238","4379.109"
"2239","4287.76"
"2240","4217.223"
"2241","4202.067"
"2242","4206.385"
"2243","4171.948"
"2244","4108.816"
"2245","4076.186"
"2246","4083.438"
"2247","4070.658"
"2248","4005.254"
"2249","3937.849"
"2250","3920.74"
"2251","3946.635"
"2252","3988.471"
"2253","4010.878"
"2254","3975.09"
"2255","3889.333"
"2256","3813.466"
"2257","3781.978"
"2258","3772.833"
"2259","3762.014"
"2260","3744.008"
"2261","3715.678"
"2262","3658.847"
"2263","3552.544"
"2264","3444.121"
"2265","3435.54"
"2266","3536.143"
"2267","3617.746"
"2268","3589.898"
"2269","3491.319"
"2270","3377.841"
"2271","3284.714"
"2272","3237.212"
"2273","3224.023"
"2274","3213.823"
"2275","3192.114"
"2276","3161.25"
"2277","3121.671"
"2278","3069.313"
"2279","3009.834"
"2280","2979.896"
"2281","3004.271"
"2282","3006.61"
"2283","2889.7"
"2284","2719.871"
"2285","2658.786"
"2286","2718.311"
"2287","2752.273"
"2288","2684.737"
"2289","2578.306"
"2290","2490.344"
"2291","2417.312"
"2292","2345.853"
"2293","2273.466"
"2294","2201.869"
"2295","2137.631"
"2296","2089.947"
"2297","2061.819"
"2298","2049.952"
"2299","2041.841"
"2300","2010.462"
