,"Scan 01121"
"400","10162.3"
"401","10189.03"
"402","10204.37"
"403","10198.31"
"404","10182.01"
"405","10173.37"
"406","10190.18"
"407","10246.63"
"408","10328.83"
"409","10409.44"
"410","10461.22"
"411","10459.45"
"412","10409.38"
"413","10337.14"
"414","10269.07"
"415","10230.39"
"416","10225.59"
"417","10238.88"
"418","10253.79"
"419","10254.18"
"420","10235.16"
"421","10206.84"
"422","10180.38"
"423","10166.72"
"424","10169.31"
"425","10177.75"
"426","10180.21"
"427","10165.01"
"428","10127.17"
"429","10078.48"
"430","10033.21"
"431","10005.55"
"432","10004.87"
"433","10024.6"
"434","10054.81"
"435","10085.66"
"436","10108.46"
"437","10119.43"
"438","10116.2"
"439","10096.42"
"440","10059.27"
"441","10013.02"
"442","9969.244"
"443","9939.438"
"444","9933.152"
"445","9945.302"
"446","9964.002"
"447","9977.405"
"448","9975.024"
"449","9959.427"
"450","9940.703"
"451","9928.968"
"452","9933.346"
"453","9950.706"
"454","9969.361"
"455","9977.51"
"456","9964.104"
"457","9929.423"
"458","9883.188"
"459","9835.335"
"460","9795.556"
"461","9769.227"
"462","9757.547"
"463","9761.534"
"464","9781.905"
"465","9810.823"
"466","9830.92"
"467","9824.423"
"468","9774.262"
"469","9685.341"
"470","9590.32"
"471","9523.451"
"472","9518.155"
"473","9578.448"
"474","9666.979"
"475","9743.483"
"476","9768.397"
"477","9729.236"
"478","9655.318"
"479","9579.384"
"480","9533.723"
"481","9532.108"
"482","9557.433"
"483","9589.742"
"484","9609.313"
"485","9606.492"
"486","9589.471"
"487","9568.24"
"488","9552.671"
"489","9547.056"
"490","9545.288"
"491","9540.169"
"492","9524.583"
"493","9497.014"
"494","9466.669"
"495","9443.923"
"496","9439.024"
"497","9453.469"
"498","9471.718"
"499","9476.353"
"500","9450.149"
"501","9387.712"
"502","9306.612"
"503","9226.979"
"504","9168.727"
"505","9140.876"
"506","9131.698"
"507","9127.176"
"508","9113.44"
"509","9083.03"
"510","9040.271"
"511","8990.74"
"512","8939.982"
"513","8892.758"
"514","8852.498"
"515","8822.47"
"516","8805.873"
"517","8801.722"
"518","8802.143"
"519","8798.653"
"520","8782.933"
"521","8753.138"
"522","8717.283"
"523","8684.172"
"524","8662.445"
"525","8655.302"
"526","8658.414"
"527","8666.916"
"528","8675.994"
"529","8681.628"
"530","8680.774"
"531","8670.476"
"532","8647.971"
"533","8615.676"
"534","8581.725"
"535","8554.497"
"536","8542.107"
"537","8547.615"
"538","8569.232"
"539","8604.979"
"540","8652.354"
"541","8699.825"
"542","8728.411"
"543","8719"
"544","8654.858"
"545","8549.298"
"546","8436.653"
"547","8351.52"
"548","8324.799"
"549","8351.218"
"550","8404.438"
"551","8457.995"
"552","8488.276"
"553","8493.479"
"554","8482.184"
"555","8462.989"
"556","8443.633"
"557","8426.755"
"558","8413.047"
"559","8403.199"
"560","8397.738"
"561","8396.472"
"562","8398.979"
"563","8404.851"
"564","8412.837"
"565","8418.653"
"566","8417.346"
"567","8403.989"
"568","8377.343"
"569","8346.192"
"570","8320.984"
"571","8312.063"
"572","8321.987"
"573","8337.396"
"574","8343.033"
"575","8323.914"
"576","8276.968"
"577","8217.369"
"578","8161.777"
"579","8126.42"
"580","8116.786"
"581","8126.12"
"582","8147.027"
"583","8172.248"
"584","8196.407"
"585","8215.713"
"586","8226.438"
"587","8225.418"
"588","8215.379"
"589","8202.635"
"590","8193.522"
"591","8193.521"
"592","8202.189"
"593","8216.563"
"594","8233.679"
"595","8250.565"
"596","8264.206"
"597","8271.573"
"598","8269.653"
"599","8257.451"
"600","8240.193"
"601","8224.301"
"602","8216.139"
"603","8217.973"
"604","8223.628"
"605","8225.91"
"606","8217.772"
"607","8197.351"
"608","8169.949"
"609","8141.384"
"610","8117.329"
"611","8101.012"
"612","8093.392"
"613","8095.339"
"614","8107.442"
"615","8127.192"
"616","8150.2"
"617","8172.06"
"618","8188.68"
"619","8197.826"
"620","8197.998"
"621","8187.699"
"622","8166.178"
"623","8135.502"
"624","8098.4"
"625","8057.603"
"626","8017.27"
"627","7984.891"
"628","7968.392"
"629","7975.494"
"630","8005.084"
"631","8043.542"
"632","8076.339"
"633","8089.649"
"634","8081.778"
"635","8061.701"
"636","8038.727"
"637","8021.458"
"638","8012.278"
"639","8010.245"
"640","8014.385"
"641","8023.611"
"642","8036.239"
"643","8050.408"
"644","8064.26"
"645","8074.905"
"646","8076.603"
"647","8063.127"
"648","8028.416"
"649","7975.127"
"650","7919.723"
"651","7879.842"
"652","7872.272"
"653","7897.824"
"654","7942.611"
"655","7992.239"
"656","8033.46"
"657","8062.958"
"658","8082.639"
"659","8094.453"
"660","8100.654"
"661","8104.897"
"662","8111.228"
"663","8123.662"
"664","8141.708"
"665","8154.146"
"666","8148.228"
"667","8111.632"
"668","8047.561"
"669","7979.27"
"670","7931.294"
"671","7926.132"
"672","7960.074"
"673","8010.792"
"674","8055.63"
"675","8075.781"
"676","8075.487"
"677","8067.588"
"678","8064.901"
"679","8075.94"
"680","8096.542"
"681","8120.222"
"682","8140.557"
"683","8153.737"
"684","8159.871"
"685","8159.384"
"686","8152.839"
"687","8142.822"
"688","8133.505"
"689","8129.099"
"690","8132.888"
"691","8142.206"
"692","8152.023"
"693","8157.32"
"694","8154.353"
"695","8143.192"
"696","8124.618"
"697","8099.448"
"698","8070.576"
"699","8043.937"
"700","8025.678"
"701","8021.479"
"702","8030.629"
"703","8047.772"
"704","8067.456"
"705","8084.423"
"706","8094.46"
"707","8093.713"
"708","8078.352"
"709","8048.76"
"710","8015.78"
"711","7991.831"
"712","7988.974"
"713","8008.652"
"714","8039.86"
"715","8070.902"
"716","8090.991"
"717","8097.853"
"718","8093.983"
"719","8081.917"
"720","8064.972"
"721","8049.528"
"722","8042.719"
"723","8051.58"
"724","8076.581"
"725","8106.876"
"726","8130.527"
"727","8136.304"
"728","8124.064"
"729","8102.469"
"730","8080.415"
"731","8066.091"
"732","8063.795"
"733","8076.441"
"734","8106.918"
"735","8153.193"
"736","8201.797"
"737","8237.659"
"738","8246.302"
"739","8226.943"
"740","8192.806"
"741","8157.733"
"742","8134.178"
"743","8124.401"
"744","8126.116"
"745","8137.01"
"746","8154.19"
"747","8173.088"
"748","8188.847"
"749","8196.773"
"750","8197.386"
"751","8197.46"
"752","8204.127"
"753","8223.215"
"754","8249.313"
"755","8271.255"
"756","8277.836"
"757","8263.279"
"758","8239.102"
"759","8220.236"
"760","8221.285"
"761","8244.581"
"762","8276.721"
"763","8303.287"
"764","8311.52"
"765","8303.681"
"766","8290.054"
"767","8280.972"
"768","8283.436"
"769","8293.692"
"770","8305.83"
"771","8314.05"
"772","8316.138"
"773","8314.397"
"774","8311.412"
"775","8309.854"
"776","8313.148"
"777","8325.097"
"778","8349.496"
"779","8387.475"
"780","8432.278"
"781","8475.714"
"782","8509.741"
"783","8530.37"
"784","8538.195"
"785","8534.049"
"786","8519.17"
"787","8497.711"
"788","8475.11"
"789","8456.792"
"790","8446.156"
"791","8441.634"
"792","8440.9"
"793","8441.771"
"794","8444.792"
"795","8453.049"
"796","8469.726"
"797","8496.758"
"798","8529.157"
"799","8559.55"
"800","8580.604"
"801","8588.86"
"802","8588.183"
"803","8583.246"
"804","8578.516"
"805","8575.78"
"806","8574.933"
"807","8575.82"
"808","8577.674"
"809","8577.302"
"810","8570.915"
"811","8554.873"
"812","8531.701"
"813","8512.256"
"814","8507.971"
"815","8528.139"
"816","8564.455"
"817","8599.975"
"818","8617.722"
"819","8609.323"
"820","8588.362"
"821","8571.877"
"822","8576.058"
"823","8601.127"
"824","8632.941"
"825","8656.849"
"826","8661.646"
"827","8652.984"
"828","8641.663"
"829","8638.375"
"830","8646.76"
"831","8659.349"
"832","8667.697"
"833","8664.569"
"834","8654.094"
"835","8646.666"
"836","8652.733"
"837","8677.101"
"838","8709.067"
"839","8735.286"
"840","8743.027"
"841","8731.728"
"842","8712.044"
"843","8695.063"
"844","8689.786"
"845","8695.263"
"846","8707.536"
"847","8722.704"
"848","8739.266"
"849","8759.299"
"850","8785.168"
"851","8818.171"
"852","8850.647"
"853","8870.487"
"854","8865.58"
"855","8832.698"
"856","8789.659"
"857","8757.322"
"858","8755.163"
"859","8781.937"
"860","8820.388"
"861","8852.842"
"862","8865.991"
"863","8862.913"
"864","8850.532"
"865","8835.716"
"866","8823.79"
"867","8818.289"
"868","8822.653"
"869","8839.16"
"870","8863.289"
"871","8888.058"
"872","8906.551"
"873","8916.987"
"874","8926.158"
"875","8941.665"
"876","8969.755"
"877","9004.483"
"878","9033.446"
"879","9044.208"
"880","9031.704"
"881","9008.472"
"882","8989.604"
"883","8989.142"
"884","9006.216"
"885","9028.957"
"886","9045.24"
"887","9047.475"
"888","9043.311"
"889","9043.602"
"890","9058.841"
"891","9091.526"
"892","9136.217"
"893","9187.133"
"894","9237.752"
"895","9278.143"
"896","9297.381"
"897","9284.906"
"898","9244.337"
"899","9197.665"
"900","9168.107"
"901","9174.507"
"902","9208.448"
"903","9251.018"
"904","9283.398"
"905","9295.42"
"906","9291.212"
"907","9276.237"
"908","9256.159"
"909","9238.229"
"910","9230.479"
"911","9240.902"
"912","9270.456"
"913","9305.556"
"914","9330.819"
"915","9332.756"
"916","9318.055"
"917","9305.617"
"918","9314.492"
"919","9352.078"
"920","9396.361"
"921","9420.748"
"922","9401.077"
"923","9346.43"
"924","9289.914"
"925","9265.165"
"926","9292.46"
"927","9351.665"
"928","9415.044"
"929","9456.029"
"930","9468.211"
"931","9462.098"
"932","9448.731"
"933","9436.724"
"934","9426.12"
"935","9415.073"
"936","9401.838"
"937","9386.825"
"938","9372.493"
"939","9361.381"
"940","9355.77"
"941","9356.897"
"942","9365.737"
"943","9383.159"
"944","9407.323"
"945","9433.532"
"946","9456.959"
"947","9473.228"
"948","9480.017"
"949","9475.569"
"950","9458.27"
"951","9430.465"
"952","9399.023"
"953","9371.055"
"954","9352.524"
"955","9343.851"
"956","9343.791"
"957","9351.038"
"958","9362.313"
"959","9371.95"
"960","9374.143"
"961","9364.829"
"962","9348.783"
"963","9333.564"
"964","9326.599"
"965","9330.272"
"966","9340.708"
"967","9353.632"
"968","9365.507"
"969","9376.62"
"970","9388.501"
"971","9402.623"
"972","9418.39"
"973","9432.598"
"974","9441.879"
"975","9443.336"
"976","9436.574"
"977","9422.001"
"978","9400.096"
"979","9373.912"
"980","9349.713"
"981","9333.968"
"982","9331.723"
"983","9340.759"
"984","9356.55"
"985","9374.579"
"986","9390.972"
"987","9402.616"
"988","9406.453"
"989","9400.974"
"990","9392.259"
"991","9388.7"
"992","9398.407"
"993","9420.491"
"994","9443.641"
"995","9455.96"
"996","9448.913"
"997","9429.332"
"998","9408.448"
"999","9397.226"
"1000","9399.441"
"1001","9411.074"
"1002","9427.711"
"1003","9445.65"
"1004","9464.197"
"1005","9483.447"
"1006","9503.49"
"1007","9523.491"
"1008","9540.282"
"1009","9550.334"
"1010","9550.599"
"1011","9543.005"
"1012","9532.423"
"1013","9523.747"
"1014","9519.793"
"1015","9519.296"
"1016","9520.511"
"1017","9521.88"
"1018","9523.265"
"1019","9525.177"
"1020","9528.115"
"1021","9531.941"
"1022","9535.55"
"1023","9537.762"
"1024","9538.57"
"1025","9544.285"
"1026","9563.323"
"1027","9603.591"
"1028","9658.802"
"1029","9707.033"
"1030","9725.553"
"1031","9701.192"
"1032","9656.171"
"1033","9620.884"
"1034","9623.714"
"1035","9661.689"
"1036","9707.288"
"1037","9732.355"
"1038","9722.77"
"1039","9699.097"
"1040","9687.175"
"1041","9709.572"
"1042","9759.11"
"1043","9812.783"
"1044","9847.581"
"1045","9851.329"
"1046","9829.442"
"1047","9788.963"
"1048","9738.453"
"1049","9694.795"
"1050","9677.699"
"1051","9705.866"
"1052","9772.258"
"1053","9842.865"
"1054","9882.38"
"1055","9868.487"
"1056","9821.044"
"1057","9768.45"
"1058","9737.318"
"1059","9733.004"
"1060","9746.973"
"1061","9770.458"
"1062","9795.664"
"1063","9816.636"
"1064","9827.618"
"1065","9824.522"
"1066","9813.54"
"1067","9804.797"
"1068","9808.142"
"1069","9825.456"
"1070","9849.766"
"1071","9873.624"
"1072","9891.048"
"1073","9900.862"
"1074","9902.886"
"1075","9897.261"
"1076","9887.891"
"1077","9881.049"
"1078","9882.992"
"1079","9895.558"
"1080","9912.826"
"1081","9928.089"
"1082","9935.575"
"1083","9934.493"
"1084","9925.704"
"1085","9910.185"
"1086","9891.344"
"1087","9874.866"
"1088","9866.522"
"1089","9869.497"
"1090","9880.316"
"1091","9894.438"
"1092","9907.838"
"1093","9920.573"
"1094","9934.664"
"1095","9951.994"
"1096","9969.061"
"1097","9975.479"
"1098","9960.413"
"1099","9917.639"
"1100","9857.251"
"1101","9792.949"
"1102","9738.05"
"1103","9701.527"
"1104","9689.636"
"1105","9708.464"
"1106","9755.539"
"1107","9814.637"
"1108","9868.281"
"1109","9902.652"
"1110","9920.173"
"1111","9927.785"
"1112","9932.019"
"1113","9933.518"
"1114","9928.558"
"1115","9913.338"
"1116","9887.495"
"1117","9857.066"
"1118","9828.797"
"1119","9808.472"
"1120","9796.999"
"1121","9793.74"
"1122","9798.109"
"1123","9810.326"
"1124","9831.279"
"1125","9861.832"
"1126","9897.842"
"1127","9925.202"
"1128","9928.627"
"1129","9897.857"
"1130","9849.339"
"1131","9808.331"
"1132","9798.61"
"1133","9819.24"
"1134","9849.01"
"1135","9866.188"
"1136","9859.519"
"1137","9838.193"
"1138","9813.777"
"1139","9797.227"
"1140","9796.464"
"1141","9818.468"
"1142","9868.838"
"1143","9932.839"
"1144","9980.258"
"1145","9980.761"
"1146","9929.093"
"1147","9864.016"
"1148","9828.777"
"1149","9853.071"
"1150","9907.814"
"1151","9948.011"
"1152","9932.855"
"1153","9871.342"
"1154","9804.861"
"1155","9774.846"
"1156","9794.723"
"1157","9837.125"
"1158","9871.456"
"1159","9877.574"
"1160","9871.032"
"1161","9874.989"
"1162","9909.151"
"1163","9963.404"
"1164","10012.43"
"1165","10031.53"
"1166","10017.41"
"1167","9990.77"
"1168","9973.528"
"1169","9976.906"
"1170","9985.654"
"1171","9980.506"
"1172","9947.488"
"1173","9903.617"
"1174","9877.149"
"1175","9894.3"
"1176","9948.724"
"1177","10008.26"
"1178","10040.28"
"1179","10031.67"
"1180","10001.9"
"1181","9973.56"
"1182","9963.733"
"1183","9969.143"
"1184","9981.802"
"1185","9994.155"
"1186","10002.3"
"1187","10004.21"
"1188","9998.13"
"1189","9988.216"
"1190","9984.924"
"1191","9998.972"
"1192","10033"
"1193","10072.07"
"1194","10098.91"
"1195","10100.79"
"1196","10086.5"
"1197","10071.17"
"1198","10068.69"
"1199","10078.8"
"1200","10092.46"
"1201","10100.74"
"1202","10103.46"
"1203","10111.1"
"1204","10134.8"
"1205","10177.45"
"1206","10221.78"
"1207","10247.43"
"1208","10239.17"
"1209","10208.16"
"1210","10174.09"
"1211","10155.4"
"1212","10155.62"
"1213","10168.72"
"1214","10188.44"
"1215","10208.55"
"1216","10222.8"
"1217","10224.94"
"1218","10214.04"
"1219","10201.8"
"1220","10201.73"
"1221","10222.45"
"1222","10249.07"
"1223","10259.63"
"1224","10235.13"
"1225","10186.86"
"1226","10143.74"
"1227","10134.03"
"1228","10161.23"
"1229","10202.25"
"1230","10232.76"
"1231","10240.85"
"1232","10239.04"
"1233","10242.77"
"1234","10262.71"
"1235","10291.61"
"1236","10317.92"
"1237","10331.23"
"1238","10329.69"
"1239","10315.28"
"1240","10290.33"
"1241","10262.22"
"1242","10242.51"
"1243","10242.62"
"1244","10263.08"
"1245","10288.71"
"1246","10303.16"
"1247","10295.69"
"1248","10270.1"
"1249","10232.47"
"1250","10190.93"
"1251","10163.45"
"1252","10170.87"
"1253","10229.84"
"1254","10318.56"
"1255","10394.69"
"1256","10417.48"
"1257","10381.61"
"1258","10314.06"
"1259","10242.95"
"1260","10191.09"
"1261","10173.18"
"1262","10203.21"
"1263","10281.71"
"1264","10373.71"
"1265","10438.48"
"1266","10445.41"
"1267","10411.49"
"1268","10367.52"
"1269","10340.84"
"1270","10329.54"
"1271","10317.1"
"1272","10288.01"
"1273","10246.05"
"1274","10210.78"
"1275","10201.86"
"1276","10222.86"
"1277","10256.07"
"1278","10282.34"
"1279","10290.79"
"1280","10288.18"
"1281","10283.59"
"1282","10283.77"
"1283","10287.23"
"1284","10290.67"
"1285","10291.26"
"1286","10289.26"
"1287","10286.07"
"1288","10282.61"
"1289","10274.88"
"1290","10256"
"1291","10219.79"
"1292","10175.58"
"1293","10146.91"
"1294","10157.42"
"1295","10209.32"
"1296","10274.72"
"1297","10323.53"
"1298","10338.94"
"1299","10332.96"
"1300","10321.35"
"1301","10315.43"
"1302","10311.3"
"1303","10301.85"
"1304","10281.86"
"1305","10256.33"
"1306","10233.66"
"1307","10222"
"1308","10227.11"
"1309","10253.58"
"1310","10304.71"
"1311","10365.46"
"1312","10406.91"
"1313","10400.95"
"1314","10351.38"
"1315","10297.02"
"1316","10278.05"
"1317","10306.84"
"1318","10351.6"
"1319","10376.69"
"1320","10363.58"
"1321","10333.2"
"1322","10312"
"1323","10317.32"
"1324","10335.63"
"1325","10346.84"
"1326","10335.22"
"1327","10306.85"
"1328","10274.6"
"1329","10249.87"
"1330","10233.01"
"1331","10219.43"
"1332","10205.34"
"1333","10196.59"
"1334","10205.09"
"1335","10241.97"
"1336","10302.9"
"1337","10370.18"
"1338","10426.03"
"1339","10465.27"
"1340","10497.44"
"1341","10532.77"
"1342","10571.84"
"1343","10600.01"
"1344","10601.27"
"1345","10569.02"
"1346","10516.67"
"1347","10460.18"
"1348","10411.52"
"1349","10370.87"
"1350","10336.27"
"1351","10305.71"
"1352","10276.69"
"1353","10246.64"
"1354","10215.3"
"1355","10194.77"
"1356","10201.27"
"1357","10246.35"
"1358","10307.53"
"1359","10347.26"
"1360","10332.43"
"1361","10274.35"
"1362","10209.8"
"1363","10173.62"
"1364","10169.15"
"1365","10176.77"
"1366","10177.06"
"1367","10166.15"
"1368","10154.37"
"1369","10152.24"
"1370","10159.52"
"1371","10163.55"
"1372","10151.28"
"1373","10123.57"
"1374","10101.03"
"1375","10105.58"
"1376","10140.23"
"1377","10174.72"
"1378","10175.55"
"1379","10131.38"
"1380","10078.83"
"1381","10060.69"
"1382","10098.68"
"1383","10158.48"
"1384","10196.6"
"1385","10184.58"
"1386","10142.78"
"1387","10101.46"
"1388","10083.92"
"1389","10086.15"
"1390","10097.39"
"1391","10107.75"
"1392","10111.61"
"1393","10104.61"
"1394","10083.8"
"1395","10054.2"
"1396","10023.7"
"1397","10000.31"
"1398","9993.063"
"1399","10011.4"
"1400","10061.2"
"1401","10119.67"
"1402","10150.13"
"1403","10120.6"
"1404","10044.93"
"1405","9962.342"
"1406","9910.2"
"1407","9901.349"
"1408","9933.236"
"1409","10001.57"
"1410","10082.18"
"1411","10136.86"
"1412","10129.93"
"1413","10069.71"
"1414","9999.183"
"1415","9960.446"
"1416","9962.846"
"1417","9987.282"
"1418","10014.06"
"1419","10031.16"
"1420","10033.81"
"1421","10018.09"
"1422","9993.24"
"1423","9982.137"
"1424","10007.32"
"1425","10064.7"
"1426","10120.63"
"1427","10140.81"
"1428","10118.29"
"1429","10078.58"
"1430","10048.68"
"1431","10041.98"
"1432","10054.8"
"1433","10082.28"
"1434","10116.31"
"1435","10144.52"
"1436","10154.55"
"1437","10148.2"
"1438","10146.66"
"1439","10172.09"
"1440","10223.19"
"1441","10265.36"
"1442","10262.02"
"1443","10206.62"
"1444","10136.21"
"1445","10090.95"
"1446","10089.75"
"1447","10120.05"
"1448","10166.76"
"1449","10215.24"
"1450","10251.52"
"1451","10261.88"
"1452","10242.55"
"1453","10204.67"
"1454","10160.58"
"1455","10119.57"
"1456","10086.5"
"1457","10065.78"
"1458","10058.37"
"1459","10060.2"
"1460","10066.77"
"1461","10072.72"
"1462","10071.49"
"1463","10056.55"
"1464","10027.48"
"1465","9992.302"
"1466","9959.544"
"1467","9932.479"
"1468","9907.42"
"1469","9880.335"
"1470","9852.297"
"1471","9830.86"
"1472","9823.584"
"1473","9824.818"
"1474","9813.075"
"1475","9767.016"
"1476","9696.588"
"1477","9646.904"
"1478","9662.89"
"1479","9736.834"
"1480","9805.938"
"1481","9807.577"
"1482","9740.5"
"1483","9662.78"
"1484","9632.138"
"1485","9653.179"
"1486","9683.451"
"1487","9681.418"
"1488","9647.155"
"1489","9614.267"
"1490","9614.522"
"1491","9641.15"
"1492","9659.374"
"1493","9637.499"
"1494","9587.609"
"1495","9550.194"
"1496","9561.19"
"1497","9606.002"
"1498","9641.014"
"1499","9628.03"
"1500","9577.936"
"1501","9526.296"
"1502","9504.463"
"1503","9512.107"
"1504","9535.102"
"1505","9559.38"
"1506","9571.733"
"1507","9559.255"
"1508","9516.077"
"1509","9471.95"
"1510","9467.873"
"1511","9528.457"
"1512","9609.249"
"1513","9647.561"
"1514","9603.343"
"1515","9515.441"
"1516","9439.876"
"1517","9415.328"
"1518","9430.81"
"1519","9466.495"
"1520","9503.812"
"1521","9527.127"
"1522","9521.344"
"1523","9485.148"
"1524","9443.624"
"1525","9424.536"
"1526","9434.986"
"1527","9449.84"
"1528","9441.847"
"1529","9409.947"
"1530","9386.297"
"1531","9403.857"
"1532","9462.755"
"1533","9529.472"
"1534","9570.685"
"1535","9582.12"
"1536","9583.354"
"1537","9592.512"
"1538","9601.904"
"1539","9587.003"
"1540","9527.483"
"1541","9441.857"
"1542","9368.488"
"1543","9339.917"
"1544","9350.293"
"1545","9378.675"
"1546","9406.33"
"1547","9425.26"
"1548","9430.656"
"1549","9418.755"
"1550","9389.52"
"1551","9343.748"
"1552","9289.311"
"1553","9252.492"
"1554","9262.397"
"1555","9323.698"
"1556","9393.565"
"1557","9424.242"
"1558","9398.059"
"1559","9341.049"
"1560","9282.339"
"1561","9240.692"
"1562","9223.627"
"1563","9237.05"
"1564","9269.882"
"1565","9297.364"
"1566","9296.757"
"1567","9270.477"
"1568","9235.793"
"1569","9208.208"
"1570","9189.52"
"1571","9175.696"
"1572","9163.505"
"1573","9153.552"
"1574","9147.592"
"1575","9146.576"
"1576","9148.825"
"1577","9152.134"
"1578","9155.9"
"1579","9163.145"
"1580","9177.277"
"1581","9194.543"
"1582","9199.974"
"1583","9178.314"
"1584","9134.242"
"1585","9094.398"
"1586","9084.857"
"1587","9105.954"
"1588","9138.221"
"1589","9163.513"
"1590","9180.425"
"1591","9196.396"
"1592","9216.809"
"1593","9234.9"
"1594","9239.607"
"1595","9225.149"
"1596","9205.104"
"1597","9197.456"
"1598","9209.248"
"1599","9221.618"
"1600","9212.232"
"1601","9177.875"
"1602","9145.162"
"1603","9142.248"
"1604","9170.424"
"1605","9203.059"
"1606","9213.847"
"1607","9197.504"
"1608","9163.188"
"1609","9121.13"
"1610","9087.17"
"1611","9079.661"
"1612","9110.398"
"1613","9162.068"
"1614","9209.32"
"1615","9235.127"
"1616","9244.989"
"1617","9248.158"
"1618","9253.004"
"1619","9266.384"
"1620","9294.368"
"1621","9326.114"
"1622","9332.675"
"1623","9287.759"
"1624","9209.398"
"1625","9145.626"
"1626","9137.367"
"1627","9173.061"
"1628","9219.318"
"1629","9249.847"
"1630","9266.535"
"1631","9278.163"
"1632","9289.126"
"1633","9293.787"
"1634","9285.276"
"1635","9264.62"
"1636","9243.758"
"1637","9234.723"
"1638","9236.918"
"1639","9239.138"
"1640","9231.868"
"1641","9222.96"
"1642","9229.015"
"1643","9260.807"
"1644","9301.813"
"1645","9327.641"
"1646","9323.154"
"1647","9297.073"
"1648","9261.931"
"1649","9231.002"
"1650","9218.651"
"1651","9238.147"
"1652","9280.806"
"1653","9318.856"
"1654","9327.689"
"1655","9315.116"
"1656","9305.214"
"1657","9314.037"
"1658","9321.686"
"1659","9298.416"
"1660","9235.284"
"1661","9172.477"
"1662","9156.407"
"1663","9196.063"
"1664","9251.046"
"1665","9279.718"
"1666","9271.906"
"1667","9240.938"
"1668","9201.102"
"1669","9169.163"
"1670","9162.932"
"1671","9191.419"
"1672","9233.682"
"1673","9262.496"
"1674","9261.54"
"1675","9234.027"
"1676","9185.526"
"1677","9128.515"
"1678","9082.242"
"1679","9062.823"
"1680","9055.284"
"1681","9028.143"
"1682","8961.321"
"1683","8884.906"
"1684","8842.493"
"1685","8855.724"
"1686","8898.54"
"1687","8939.012"
"1688","8957.865"
"1689","8950.267"
"1690","8913.675"
"1691","8861.657"
"1692","8817.502"
"1693","8800.07"
"1694","8805.944"
"1695","8824.957"
"1696","8841.104"
"1697","8824.835"
"1698","8746.24"
"1699","8627.281"
"1700","8551.388"
"1701","8595.023"
"1702","8719.834"
"1703","8817.503"
"1704","8806.213"
"1705","8734.887"
"1706","8690.94"
"1707","8720.719"
"1708","8779.547"
"1709","8811.904"
"1710","8801.639"
"1711","8775.804"
"1712","8761.283"
"1713","8762.31"
"1714","8770.753"
"1715","8778.722"
"1716","8779.886"
"1717","8768.334"
"1718","8742.345"
"1719","8708.014"
"1720","8672.477"
"1721","8646.423"
"1722","8643.752"
"1723","8674.391"
"1724","8719.104"
"1725","8746.029"
"1726","8734.702"
"1727","8699.758"
"1728","8662.33"
"1729","8633.912"
"1730","8612.48"
"1731","8595.071"
"1732","8579.557"
"1733","8564.381"
"1734","8550.16"
"1735","8547.902"
"1736","8571.63"
"1737","8619.244"
"1738","8655.494"
"1739","8643.078"
"1740","8588.836"
"1741","8541.459"
"1742","8543.515"
"1743","8582.043"
"1744","8620.177"
"1745","8632.166"
"1746","8624.632"
"1747","8609.905"
"1748","8596.948"
"1749","8590.463"
"1750","8593.927"
"1751","8601.338"
"1752","8601.274"
"1753","8587.385"
"1754","8572.838"
"1755","8575.201"
"1756","8595.501"
"1757","8608.554"
"1758","8589.282"
"1759","8545.155"
"1760","8506.483"
"1761","8497.761"
"1762","8513.746"
"1763","8540.531"
"1764","8566.535"
"1765","8584.576"
"1766","8588.183"
"1767","8574.918"
"1768","8545.596"
"1769","8503.215"
"1770","8461.97"
"1771","8439.746"
"1772","8442.007"
"1773","8448.375"
"1774","8436.916"
"1775","8416.835"
"1776","8424.552"
"1777","8486.567"
"1778","8566.805"
"1779","8606.97"
"1780","8578.882"
"1781","8519.552"
"1782","8473.307"
"1783","8460.751"
"1784","8481.435"
"1785","8529.919"
"1786","8576.502"
"1787","8583.003"
"1788","8540.343"
"1789","8500.66"
"1790","8520.055"
"1791","8587.261"
"1792","8633.891"
"1793","8605.542"
"1794","8531.912"
"1795","8470.189"
"1796","8451.703"
"1797","8458.091"
"1798","8466.105"
"1799","8463.819"
"1800","8447.908"
"1801","8417.713"
"1802","8383.748"
"1803","8359.688"
"1804","8356.464"
"1805","8380.475"
"1806","8435.521"
"1807","8500.245"
"1808","8537.143"
"1809","8522.331"
"1810","8482.965"
"1811","8457.39"
"1812","8461.511"
"1813","8481.44"
"1814","8500.737"
"1815","8498.991"
"1816","8453.796"
"1817","8365.062"
"1818","8294.363"
"1819","8310.699"
"1820","8406.557"
"1821","8497.04"
"1822","8509.6"
"1823","8466.626"
"1824","8425.301"
"1825","8413.902"
"1826","8403.507"
"1827","8362.2"
"1828","8309.636"
"1829","8302.89"
"1830","8375.484"
"1831","8464.09"
"1832","8482.767"
"1833","8408.796"
"1834","8304.551"
"1835","8233.022"
"1836","8212.556"
"1837","8239.909"
"1838","8302.516"
"1839","8364.996"
"1840","8390.682"
"1841","8384.716"
"1842","8388.759"
"1843","8432"
"1844","8478.771"
"1845","8474.964"
"1846","8406.953"
"1847","8322.534"
"1848","8270.318"
"1849","8259.059"
"1850","8276.446"
"1851","8309.896"
"1852","8346.668"
"1853","8374.274"
"1854","8386.19"
"1855","8381.193"
"1856","8362.901"
"1857","8356.443"
"1858","8392.478"
"1859","8464.116"
"1860","8510.24"
"1861","8476.965"
"1862","8404.496"
"1863","8378.611"
"1864","8434.253"
"1865","8487.212"
"1866","8443.962"
"1867","8327.313"
"1868","8249.332"
"1869","8286.797"
"1870","8374.289"
"1871","8415.245"
"1872","8389.906"
"1873","8368.044"
"1874","8409.345"
"1875","8481.524"
"1876","8518.448"
"1877","8492.279"
"1878","8441.779"
"1879","8408.264"
"1880","8392.694"
"1881","8373.539"
"1882","8340.311"
"1883","8311.474"
"1884","8308.341"
"1885","8324.125"
"1886","8329.563"
"1887","8306.977"
"1888","8284.627"
"1889","8300.327"
"1890","8356.155"
"1891","8414.543"
"1892","8440.049"
"1893","8420.344"
"1894","8351.262"
"1895","8253.779"
"1896","8186.57"
"1897","8201.091"
"1898","8269.143"
"1899","8326.113"
"1900","8336.204"
"1901","8321.668"
"1902","8309.837"
"1903","8308.094"
"1904","8311.77"
"1905","8315.933"
"1906","8315.42"
"1907","8305.55"
"1908","8289.645"
"1909","8277.183"
"1910","8274.987"
"1911","8280.404"
"1912","8288.773"
"1913","8295.315"
"1914","8295.121"
"1915","8288.104"
"1916","8294.449"
"1917","8338.405"
"1918","8405.083"
"1919","8434.899"
"1920","8382.945"
"1921","8292.911"
"1922","8235.845"
"1923","8236.032"
"1924","8254.945"
"1925","8255.1"
"1926","8232.913"
"1927","8197.678"
"1928","8165.178"
"1929","8161.1"
"1930","8204.223"
"1931","8258.174"
"1932","8263.296"
"1933","8206.734"
"1934","8156.371"
"1935","8177.067"
"1936","8244.658"
"1937","8292.637"
"1938","8282.741"
"1939","8230.42"
"1940","8158.583"
"1941","8103.025"
"1942","8105.996"
"1943","8174.586"
"1944","8245.463"
"1945","8255.018"
"1946","8216.318"
"1947","8183.776"
"1948","8186.909"
"1949","8202.691"
"1950","8203.771"
"1951","8184.458"
"1952","8151.048"
"1953","8112.553"
"1954","8083.345"
"1955","8076.935"
"1956","8091.777"
"1957","8118.007"
"1958","8142.318"
"1959","8144.602"
"1960","8108.443"
"1961","8059.352"
"1962","8045.104"
"1963","8084.271"
"1964","8137.35"
"1965","8161.009"
"1966","8138.365"
"1967","8066.132"
"1968","7965.906"
"1969","7904.788"
"1970","7941.696"
"1971","8032.859"
"1972","8087.252"
"1973","8069.68"
"1974","8039.115"
"1975","8051.454"
"1976","8079.17"
"1977","8060.648"
"1978","7979.168"
"1979","7885.18"
"1980","7827.987"
"1981","7817.107"
"1982","7847.42"
"1983","7906.093"
"1984","7970.329"
"1985","8016.557"
"1986","8021.103"
"1987","7961.882"
"1988","7863.26"
"1989","7800.673"
"1990","7826.532"
"1991","7889.445"
"1992","7915.059"
"1993","7892.896"
"1994","7870.714"
"1995","7881.584"
"1996","7904.517"
"1997","7909.51"
"1998","7892.535"
"1999","7868.693"
"2000","7849.033"
"2001","7833.316"
"2002","7820.813"
"2003","7823.158"
"2004","7858.903"
"2005","7915.561"
"2006","7921.166"
"2007","7815.164"
"2008","7669.535"
"2009","7612.929"
"2010","7680.262"
"2011","7770.522"
"2012","7791.059"
"2013","7748.798"
"2014","7682.723"
"2015","7631.895"
"2016","7635.442"
"2017","7706.622"
"2018","7764.889"
"2019","7715.86"
"2020","7582.034"
"2021","7476.911"
"2022","7470.475"
"2023","7517.493"
"2024","7558.733"
"2025","7571.146"
"2026","7551.612"
"2027","7508.512"
"2028","7469.558"
"2029","7461.258"
"2030","7490.984"
"2031","7558.206"
"2032","7636.402"
"2033","7668.794"
"2034","7618.653"
"2035","7532.384"
"2036","7472.981"
"2037","7453.063"
"2038","7446.036"
"2039","7431.138"
"2040","7404.151"
"2041","7365.083"
"2042","7329.409"
"2043","7320.089"
"2044","7342.218"
"2045","7373.827"
"2046","7395.688"
"2047","7413.436"
"2048","7439.572"
"2049","7470.039"
"2050","7485.074"
"2051","7469.833"
"2052","7425.529"
"2053","7357.924"
"2054","7289.648"
"2055","7252.861"
"2056","7254.411"
"2057","7258.23"
"2058","7233.007"
"2059","7196.047"
"2060","7180.012"
"2061","7193.63"
"2062","7221.702"
"2063","7249.171"
"2064","7264.586"
"2065","7259.303"
"2066","7246.69"
"2067","7252.478"
"2068","7277.479"
"2069","7281.766"
"2070","7232.408"
"2071","7150.889"
"2072","7075.18"
"2073","7031.43"
"2074","7035.01"
"2075","7087.658"
"2076","7157.078"
"2077","7207.534"
"2078","7220.542"
"2079","7186.764"
"2080","7127.042"
"2081","7102.982"
"2082","7151.872"
"2083","7203.218"
"2084","7167.934"
"2085","7067.405"
"2086","7001.828"
"2087","7018.666"
"2088","7059.887"
"2089","7065.422"
"2090","7034.112"
"2091","6985.755"
"2092","6937.051"
"2093","6901.628"
"2094","6887.784"
"2095","6889.886"
"2096","6900.086"
"2097","6911.253"
"2098","6916.698"
"2099","6914.304"
"2100","6907.785"
"2101","6900.764"
"2102","6895.202"
"2103","6890.647"
"2104","6864.472"
"2105","6781.21"
"2106","6658.733"
"2107","6599.335"
"2108","6674.104"
"2109","6784.265"
"2110","6793.614"
"2111","6695.718"
"2112","6579.449"
"2113","6505.62"
"2114","6478.394"
"2115","6494.495"
"2116","6544.057"
"2117","6614.143"
"2118","6676.542"
"2119","6690.426"
"2120","6645.067"
"2121","6593.654"
"2122","6584.305"
"2123","6588.822"
"2124","6554.297"
"2125","6478.104"
"2126","6403.055"
"2127","6357.021"
"2128","6330.666"
"2129","6310.258"
"2130","6286.233"
"2131","6251.244"
"2132","6211.993"
"2133","6188.235"
"2134","6200.168"
"2135","6267.668"
"2136","6395.301"
"2137","6495.617"
"2138","6453.555"
"2139","6290.436"
"2140","6151.486"
"2141","6125.728"
"2142","6169.778"
"2143","6223.545"
"2144","6231.615"
"2145","6145.248"
"2146","6006.509"
"2147","5934.005"
"2148","5974.28"
"2149","6026.117"
"2150","6000.48"
"2151","5957.951"
"2152","5997.144"
"2153","6087.756"
"2154","6103.704"
"2155","6017.919"
"2156","5977.777"
"2157","6092.041"
"2158","6233.088"
"2159","6227.891"
"2160","6098.834"
"2161","5990.57"
"2162","5966.454"
"2163","5971.075"
"2164","5958.714"
"2165","5946.87"
"2166","5960.375"
"2167","5973.574"
"2168","5937.154"
"2169","5859.514"
"2170","5814.291"
"2171","5847.937"
"2172","5928.63"
"2173","6008.78"
"2174","6020.036"
"2175","5894.053"
"2176","5705.008"
"2177","5647.424"
"2178","5782.299"
"2179","5915.925"
"2180","5880.781"
"2181","5742.853"
"2182","5623.764"
"2183","5566.203"
"2184","5564.266"
"2185","5595.967"
"2186","5619.276"
"2187","5605.47"
"2188","5567.969"
"2189","5524.436"
"2190","5470.557"
"2191","5395.216"
"2192","5328.707"
"2193","5337.467"
"2194","5445.075"
"2195","5593.626"
"2196","5718.247"
"2197","5762.57"
"2198","5681.833"
"2199","5525.47"
"2200","5394.63"
"2201","5338.947"
"2202","5347.335"
"2203","5393.98"
"2204","5425.824"
"2205","5395.032"
"2206","5304.921"
"2207","5177.965"
"2208","5062.527"
"2209","5024.101"
"2210","5070.826"
"2211","5129.154"
"2212","5141.715"
"2213","5117.378"
"2214","5077.112"
"2215","5041.777"
"2216","5030.648"
"2217","5036.943"
"2218","5033.25"
"2219","5015.136"
"2220","5015.525"
"2221","5044.215"
"2222","5025.023"
"2223","4890.363"
"2224","4757.244"
"2225","4808.615"
"2226","4990.861"
"2227","5051.978"
"2228","4908.993"
"2229","4766.106"
"2230","4780.28"
"2231","4864.125"
"2232","4895.455"
"2233","4860.983"
"2234","4793.07"
"2235","4715.584"
"2236","4645.298"
"2237","4597.704"
"2238","4586.566"
"2239","4613.24"
"2240","4641.804"
"2241","4635.424"
"2242","4596.417"
"2243","4541.971"
"2244","4486.627"
"2245","4442.738"
"2246","4412.128"
"2247","4382.357"
"2248","4345.944"
"2249","4310.837"
"2250","4284.746"
"2251","4261.61"
"2252","4231.392"
"2253","4188.602"
"2254","4130.984"
"2255","4069.385"
"2256","4028.935"
"2257","4021.401"
"2258","4030.148"
"2259","4035.358"
"2260","4018.324"
"2261","3963.954"
"2262","3883.03"
"2263","3797.593"
"2264","3719.847"
"2265","3653.831"
"2266","3602.945"
"2267","3569.967"
"2268","3545.269"
"2269","3486.707"
"2270","3370.407"
"2271","3290.43"
"2272","3357.574"
"2273","3484.333"
"2274","3478.891"
"2275","3337.03"
"2276","3239.95"
"2277","3264.706"
"2278","3296.055"
"2279","3246.315"
"2280","3170.718"
"2281","3131.725"
"2282","3077.762"
"2283","2929.494"
"2284","2744.041"
"2285","2657.065"
"2286","2654.158"
"2287","2563.501"
"2288","2340.979"
"2289","2182.965"
"2290","2225.062"
"2291","2336.329"
"2292","2354.051"
"2293","2228.478"
"2294","1964.564"
"2295","1730.897"
"2296","1779.594"
"2297","2039.55"
"2298","2122.498"
"2299","1893.744"
"2300","1654.737"
