,"Scan 01133"
"400","9407.036"
"401","9412.892"
"402","9412.066"
"403","9398.785"
"404","9379.153"
"405","9363.064"
"406","9360.332"
"407","9378.462"
"408","9406.762"
"409","9425.818"
"410","9416.31"
"411","9361.144"
"412","9270.612"
"413","9174.006"
"414","9100.783"
"415","9079.042"
"416","9111.034"
"417","9173.84"
"418","9243.634"
"419","9297.091"
"420","9324.474"
"421","9334.28"
"422","9336.248"
"423","9339.982"
"424","9349.674"
"425","9359.601"
"426","9363.007"
"427","9353.21"
"428","9327.458"
"429","9292.809"
"430","9257.765"
"431","9230.782"
"432","9218.683"
"433","9222.95"
"434","9243.937"
"435","9281.983"
"436","9335.382"
"437","9393.09"
"438","9441.502"
"439","9467.104"
"440","9459.243"
"441","9423.845"
"442","9372.895"
"443","9318.309"
"444","9271.178"
"445","9236.79"
"446","9217.697"
"447","9216.424"
"448","9234.599"
"449","9264.998"
"450","9295.296"
"451","9313.191"
"452","9307.534"
"453","9281.339"
"454","9247.525"
"455","9219.133"
"456","9208.336"
"457","9213.928"
"458","9223.572"
"459","9224.672"
"460","9205.277"
"461","9165.984"
"462","9119.572"
"463","9079.245"
"464","9057.678"
"465","9054.614"
"466","9055.366"
"467","9044.579"
"468","9007.434"
"469","8945.57"
"470","8881.419"
"471","8838.611"
"472","8840.216"
"473","8889.11"
"474","8959.77"
"475","9024.681"
"476","9056.791"
"477","9047.132"
"478","9014.629"
"479","8980.499"
"480","8965.654"
"481","8977.975"
"482","9003.604"
"483","9026.688"
"484","9031.58"
"485","9011.989"
"486","8978.249"
"487","8942.35"
"488","8916.146"
"489","8904.774"
"490","8900.899"
"491","8895.854"
"492","8881.067"
"493","8852.747"
"494","8816.241"
"495","8777.908"
"496","8744.036"
"497","8716.626"
"498","8689.353"
"499","8654.952"
"500","8606.26"
"501","8542.266"
"502","8473.919"
"503","8413.501"
"504","8373.136"
"505","8355.88"
"506","8347.505"
"507","8331.896"
"508","8293.151"
"509","8226.855"
"510","8149.796"
"511","8080.97"
"512","8039.119"
"513","8029.974"
"514","8036.434"
"515","8039.161"
"516","8019.106"
"517","7970.289"
"518","7908.244"
"519","7850.444"
"520","7814.081"
"521","7805.656"
"522","7815.419"
"523","7832.298"
"524","7845.357"
"525","7846.99"
"526","7834.207"
"527","7804.367"
"528","7755.037"
"529","7690.663"
"530","7624.25"
"531","7569.281"
"532","7538.776"
"533","7534.827"
"534","7547.492"
"535","7566.254"
"536","7580.917"
"537","7587.057"
"538","7585.801"
"539","7578.495"
"540","7566.51"
"541","7551.72"
"542","7536.409"
"543","7522.867"
"544","7513.128"
"545","7506.042"
"546","7498.231"
"547","7486.286"
"548","7467.35"
"549","7443.996"
"550","7421.967"
"551","7407.016"
"552","7403.94"
"553","7410.178"
"554","7419.668"
"555","7426.361"
"556","7425.494"
"557","7420.135"
"558","7416.311"
"559","7420.022"
"560","7435.114"
"561","7455.277"
"562","7471.215"
"563","7473.672"
"564","7456.341"
"565","7423.444"
"566","7381.572"
"567","7337.286"
"568","7297.166"
"569","7267.907"
"570","7256.194"
"571","7268.636"
"572","7304.246"
"573","7346.49"
"574","7377.008"
"575","7377.756"
"576","7345.1"
"577","7297.445"
"578","7255.003"
"579","7237.367"
"580","7248.533"
"581","7274.709"
"582","7301.184"
"583","7314.057"
"584","7312.431"
"585","7306.324"
"586","7306.058"
"587","7320.708"
"588","7346.302"
"589","7370.936"
"590","7382.642"
"591","7371.654"
"592","7343.384"
"593","7309.748"
"594","7282.639"
"595","7271.379"
"596","7273.443"
"597","7282.854"
"598","7293.66"
"599","7300.932"
"600","7302.863"
"601","7298.253"
"602","7285.933"
"603","7267.746"
"604","7251.784"
"605","7246.868"
"606","7261.553"
"607","7293.273"
"608","7324.097"
"609","7335.032"
"610","7308.273"
"611","7248.731"
"612","7182.358"
"613","7135.808"
"614","7133.015"
"615","7169.343"
"616","7222.704"
"617","7270.835"
"618","7294.504"
"619","7293.218"
"620","7273.792"
"621","7243.03"
"622","7207.43"
"623","7172.388"
"624","7143.024"
"625","7124.429"
"626","7118.633"
"627","7120.653"
"628","7124.539"
"629","7124.425"
"630","7117.646"
"631","7106.058"
"632","7091.864"
"633","7077.321"
"634","7066.034"
"635","7062.779"
"636","7072.355"
"637","7098.284"
"638","7132.496"
"639","7160.746"
"640","7168.765"
"641","7146.705"
"642","7106.497"
"643","7066.795"
"644","7046.189"
"645","7054.735"
"646","7078.957"
"647","7101.375"
"648","7104.759"
"649","7084.102"
"650","7053.718"
"651","7029.593"
"652","7026.906"
"653","7045.665"
"654","7071.914"
"655","7091.218"
"656","7091.295"
"657","7078.796"
"658","7070.312"
"659","7082.477"
"660","7125.921"
"661","7184.087"
"662","7232.733"
"663","7247.739"
"664","7218.207"
"665","7164.649"
"666","7112.099"
"667","7085.066"
"668","7090.664"
"669","7113.511"
"670","7136.776"
"671","7144.769"
"672","7136.568"
"673","7121.717"
"674","7109.966"
"675","7109.257"
"676","7116.754"
"677","7125.6"
"678","7128.949"
"679","7122.983"
"680","7112.812"
"681","7105.17"
"682","7106.699"
"683","7119.433"
"684","7138.491"
"685","7158.424"
"686","7173.995"
"687","7182.962"
"688","7185.453"
"689","7181.657"
"690","7172.542"
"691","7164.143"
"692","7164.491"
"693","7181.608"
"694","7218.002"
"695","7259.706"
"696","7289.712"
"697","7291.315"
"698","7261.612"
"699","7217.758"
"700","7178.442"
"701","7161.093"
"702","7166.088"
"703","7181.409"
"704","7194.78"
"705","7196.13"
"706","7187.562"
"707","7175.397"
"708","7165.948"
"709","7162.96"
"710","7163.827"
"711","7164.982"
"712","7162.986"
"713","7158.292"
"714","7155.903"
"715","7161.073"
"716","7178.324"
"717","7205.165"
"718","7235.192"
"719","7261.967"
"720","7280.608"
"721","7292.324"
"722","7299.819"
"723","7305.772"
"724","7310.784"
"725","7311.881"
"726","7305.737"
"727","7289.467"
"728","7266.99"
"729","7247.634"
"730","7240.868"
"731","7253.568"
"732","7277.977"
"733","7301.197"
"734","7310.378"
"735","7300.766"
"736","7286.406"
"737","7283.981"
"738","7309.356"
"739","7359.281"
"740","7410.931"
"741","7440.635"
"742","7428.631"
"743","7383.776"
"744","7327.759"
"745","7282.277"
"746","7262.436"
"747","7264.526"
"748","7281.505"
"749","7306.385"
"750","7333.675"
"751","7359.675"
"752","7380.795"
"753","7393.84"
"754","7398.986"
"755","7398.144"
"756","7393.233"
"757","7386.936"
"758","7384.357"
"759","7391.086"
"760","7412.544"
"761","7447.975"
"762","7488.708"
"763","7525.563"
"764","7549.88"
"765","7557.706"
"766","7547.59"
"767","7518.108"
"768","7471.961"
"769","7425.136"
"770","7396.27"
"771","7403.505"
"772","7447.813"
"773","7508.575"
"774","7563.821"
"775","7594.009"
"776","7600.118"
"777","7593.528"
"778","7585.685"
"779","7585.954"
"780","7597.584"
"781","7622.701"
"782","7663.228"
"783","7715.34"
"784","7768.717"
"785","7812.699"
"786","7837.795"
"787","7842.82"
"788","7830.24"
"789","7802.547"
"790","7764.845"
"791","7728.708"
"792","7706.676"
"793","7710.568"
"794","7737.813"
"795","7772.42"
"796","7797.899"
"797","7801.34"
"798","7789.634"
"799","7776.502"
"800","7775.583"
"801","7792.637"
"802","7818.532"
"803","7842.481"
"804","7854.499"
"805","7855.03"
"806","7851.908"
"807","7853.111"
"808","7864.656"
"809","7884.845"
"810","7910.092"
"811","7936.798"
"812","7960.658"
"813","7976.396"
"814","7978.68"
"815","7963.913"
"816","7942.841"
"817","7933.246"
"818","7952.917"
"819","8007.935"
"820","8074.442"
"821","8123.888"
"822","8129.169"
"823","8090.674"
"824","8033.511"
"825","7983.653"
"826","7962.229"
"827","7966.635"
"828","7987.011"
"829","8013.53"
"830","8038.357"
"831","8056.803"
"832","8064.451"
"833","8057.892"
"834","8043.177"
"835","8031.573"
"836","8034.389"
"837","8056.822"
"838","8087.256"
"839","8111.221"
"840","8114.946"
"841","8098.707"
"842","8075.739"
"843","8059.758"
"844","8061.455"
"845","8076.976"
"846","8098.092"
"847","8116.697"
"848","8131.005"
"849","8148.638"
"850","8177.98"
"851","8225.229"
"852","8278.378"
"853","8316.35"
"854","8318.057"
"855","8275.584"
"856","8212.218"
"857","8155.749"
"858","8132.525"
"859","8147.189"
"860","8187.612"
"861","8241.233"
"862","8296.542"
"863","8345.977"
"864","8382.905"
"865","8400.914"
"866","8400.069"
"867","8387.9"
"868","8372.351"
"869","8360.745"
"870","8356.818"
"871","8363.005"
"872","8381.676"
"873","8410.656"
"874","8440.181"
"875","8459.77"
"876","8460.534"
"877","8447.989"
"878","8435.276"
"879","8435.58"
"880","8455.218"
"881","8484.122"
"882","8509.837"
"883","8520.84"
"884","8518.678"
"885","8514.553"
"886","8519.889"
"887","8542.435"
"888","8577.586"
"889","8618.137"
"890","8657.041"
"891","8690.724"
"892","8719.051"
"893","8742.039"
"894","8760.106"
"895","8775.523"
"896","8791.1"
"897","8809.542"
"898","8829.393"
"899","8843.809"
"900","8845.588"
"901","8829.483"
"902","8802.483"
"903","8776.276"
"904","8762.455"
"905","8764.834"
"906","8774.372"
"907","8780.813"
"908","8775.664"
"909","8764.839"
"910","8761.335"
"911","8778.131"
"912","8818.343"
"913","8864.675"
"914","8897.318"
"915","8898.735"
"916","8875.708"
"917","8849.733"
"918","8842.491"
"919","8864.282"
"920","8896.676"
"921","8916.77"
"922","8903.661"
"923","8863.765"
"924","8823.229"
"925","8808.648"
"926","8836.213"
"927","8890.674"
"928","8950.865"
"929","8996.338"
"930","9018.995"
"931","9021.105"
"932","9005.269"
"933","8974.737"
"934","8935.099"
"935","8892.449"
"936","8852.935"
"937","8823.722"
"938","8812.941"
"939","8828.758"
"940","8874.33"
"941","8932.654"
"942","8981.666"
"943","9000.023"
"944","8984.917"
"945","8953.038"
"946","8922.013"
"947","8905.994"
"948","8903.689"
"949","8909.502"
"950","8917.866"
"951","8924.185"
"952","8924.951"
"953","8916.721"
"954","8898.109"
"955","8877.638"
"956","8866.803"
"957","8876.723"
"958","8905.789"
"959","8937.094"
"960","8952.817"
"961","8940.569"
"962","8915.47"
"963","8901.331"
"964","8921.313"
"965","8975.32"
"966","9034.319"
"967","9067.447"
"968","9051.112"
"969","8999.537"
"970","8939.196"
"971","8896.207"
"972","8882.982"
"973","8894.68"
"974","8925.355"
"975","8967.567"
"976","9006.129"
"977","9023.327"
"978","9001.951"
"979","8942.965"
"980","8870.043"
"981","8808.305"
"982","8778.793"
"983","8781.732"
"984","8810.718"
"985","8859.149"
"986","8914.003"
"987","8954.431"
"988","8959.115"
"989","8914.703"
"990","8846.792"
"991","8792.861"
"992","8789.392"
"993","8841.903"
"994","8920.04"
"995","8991.429"
"996","9030.31"
"997","9041.229"
"998","9037.395"
"999","9031.725"
"1000","9029.356"
"1001","9026.969"
"1002","9020.823"
"1003","9008.777"
"1004","8995.42"
"1005","8987.106"
"1006","8990.182"
"1007","9007.307"
"1008","9031.867"
"1009","9055.808"
"1010","9071.694"
"1011","9078.521"
"1012","9079.069"
"1013","9076.181"
"1014","9072.84"
"1015","9072.328"
"1016","9077.964"
"1017","9092.169"
"1018","9110.604"
"1019","9125.842"
"1020","9130.57"
"1021","9124.139"
"1022","9115.882"
"1023","9115.958"
"1024","9132.698"
"1025","9164.655"
"1026","9207.113"
"1027","9255.25"
"1028","9301.405"
"1029","9334.783"
"1030","9344.428"
"1031","9325.449"
"1032","9295.419"
"1033","9277.095"
"1034","9291.512"
"1035","9332.857"
"1036","9374.308"
"1037","9388.498"
"1038","9362.9"
"1039","9321.649"
"1040","9294.455"
"1041","9307.354"
"1042","9353"
"1043","9406.287"
"1044","9442.116"
"1045","9448.431"
"1046","9434.363"
"1047","9410.992"
"1048","9389.104"
"1049","9377.856"
"1050","9385.862"
"1051","9421.102"
"1052","9475.646"
"1053","9524.893"
"1054","9543.44"
"1055","9518.008"
"1056","9474.67"
"1057","9447.474"
"1058","9467.304"
"1059","9527.433"
"1060","9596.566"
"1061","9643.124"
"1062","9652.283"
"1063","9641.094"
"1064","9630.182"
"1065","9636.731"
"1066","9656.587"
"1067","9677.456"
"1068","9687.306"
"1069","9682.248"
"1070","9667.449"
"1071","9648.549"
"1072","9631.213"
"1073","9621.183"
"1074","9624.221"
"1075","9645.111"
"1076","9677.59"
"1077","9708.418"
"1078","9724.343"
"1079","9720.423"
"1080","9706.264"
"1081","9692.943"
"1082","9688.84"
"1083","9687.897"
"1084","9679.267"
"1085","9652.866"
"1086","9614.52"
"1087","9584.934"
"1088","9585.38"
"1089","9624.362"
"1090","9677.47"
"1091","9715.037"
"1092","9711.604"
"1093","9675.329"
"1094","9630.484"
"1095","9601.056"
"1096","9595.932"
"1097","9604.745"
"1098","9615.877"
"1099","9619.56"
"1100","9612.617"
"1101","9593.33"
"1102","9560.855"
"1103","9524.25"
"1104","9498.738"
"1105","9499.463"
"1106","9529.104"
"1107","9570.365"
"1108","9604.125"
"1109","9615.277"
"1110","9606.565"
"1111","9585.693"
"1112","9560.251"
"1113","9536.223"
"1114","9518.396"
"1115","9511.494"
"1116","9516.168"
"1117","9525.469"
"1118","9531.624"
"1119","9528.63"
"1120","9519.558"
"1121","9510.354"
"1122","9506.591"
"1123","9507.601"
"1124","9507.648"
"1125","9500.887"
"1126","9487.208"
"1127","9477.921"
"1128","9485.693"
"1129","9518.704"
"1130","9561.366"
"1131","9590.24"
"1132","9583.354"
"1133","9543.236"
"1134","9492.488"
"1135","9454.232"
"1136","9440.135"
"1137","9439.53"
"1138","9439.173"
"1139","9429.86"
"1140","9422.758"
"1141","9435.4"
"1142","9483.399"
"1143","9553.818"
"1144","9611.979"
"1145","9622.922"
"1146","9576.534"
"1147","9506.332"
"1148","9450.261"
"1149","9437.533"
"1150","9459.42"
"1151","9496.922"
"1152","9532.139"
"1153","9560.284"
"1154","9585.089"
"1155","9610.355"
"1156","9635.625"
"1157","9654.234"
"1158","9659.034"
"1159","9646.188"
"1160","9623.205"
"1161","9600.011"
"1162","9585.793"
"1163","9583.317"
"1164","9592.082"
"1165","9611.52"
"1166","9640.065"
"1167","9675.026"
"1168","9713.646"
"1169","9751.001"
"1170","9776.828"
"1171","9780.044"
"1172","9753.051"
"1173","9708.64"
"1174","9666.99"
"1175","9647.311"
"1176","9653.191"
"1177","9675.832"
"1178","9706.091"
"1179","9735.462"
"1180","9756.497"
"1181","9761.838"
"1182","9748.122"
"1183","9726.719"
"1184","9712.406"
"1185","9718.064"
"1186","9739.967"
"1187","9765.856"
"1188","9783.722"
"1189","9790.048"
"1190","9790.318"
"1191","9790.433"
"1192","9794.535"
"1193","9802.939"
"1194","9815.457"
"1195","9831.764"
"1196","9850.898"
"1197","9871.707"
"1198","9892.907"
"1199","9911.771"
"1200","9924.663"
"1201","9928.033"
"1202","9921.356"
"1203","9907.838"
"1204","9890.912"
"1205","9874.081"
"1206","9861.03"
"1207","9855.475"
"1208","9859.528"
"1209","9867.087"
"1210","9869.374"
"1211","9858.565"
"1212","9837.985"
"1213","9818.172"
"1214","9809.536"
"1215","9813.698"
"1216","9821.441"
"1217","9822.897"
"1218","9813.516"
"1219","9801.355"
"1220","9796.309"
"1221","9805.887"
"1222","9826.13"
"1223","9849.648"
"1224","9869.317"
"1225","9880.857"
"1226","9881.631"
"1227","9869.401"
"1228","9851.848"
"1229","9847.298"
"1230","9874.507"
"1231","9936.536"
"1232","10005.45"
"1233","10049.67"
"1234","10048.46"
"1235","10022.37"
"1236","10001.67"
"1237","10012.37"
"1238","10048.25"
"1239","10088.53"
"1240","10113.45"
"1241","10121.95"
"1242","10128.2"
"1243","10146.58"
"1244","10180.73"
"1245","10218.9"
"1246","10248.13"
"1247","10260.67"
"1248","10262.13"
"1249","10260.2"
"1250","10260.76"
"1251","10260.98"
"1252","10255.45"
"1253","10239.71"
"1254","10218.4"
"1255","10200.94"
"1256","10196.54"
"1257","10208.77"
"1258","10236.09"
"1259","10276.68"
"1260","10325.71"
"1261","10373.67"
"1262","10410.63"
"1263","10429.76"
"1264","10432.26"
"1265","10420.69"
"1266","10399.09"
"1267","10378.5"
"1268","10372"
"1269","10390.36"
"1270","10424.56"
"1271","10455.74"
"1272","10465.89"
"1273","10452.51"
"1274","10425.84"
"1275","10396.48"
"1276","10373.6"
"1277","10364.49"
"1278","10376.26"
"1279","10407.23"
"1280","10436.91"
"1281","10442.35"
"1282","10409.38"
"1283","10355.03"
"1284","10303.31"
"1285","10274.78"
"1286","10269.32"
"1287","10279.13"
"1288","10296.84"
"1289","10319.49"
"1290","10346.71"
"1291","10378.11"
"1292","10411.31"
"1293","10442.18"
"1294","10466.6"
"1295","10485.99"
"1296","10509.54"
"1297","10546.97"
"1298","10600.18"
"1299","10654.15"
"1300","10691.61"
"1301","10699.4"
"1302","10678.32"
"1303","10632.11"
"1304","10567.49"
"1305","10507.3"
"1306","10479.73"
"1307","10507.92"
"1308","10571.15"
"1309","10626.35"
"1310","10633.25"
"1311","10595.42"
"1312","10549.52"
"1313","10531.94"
"1314","10547.45"
"1315","10566.24"
"1316","10557.02"
"1317","10509.38"
"1318","10446.09"
"1319","10392.82"
"1320","10366.88"
"1321","10366.28"
"1322","10386.35"
"1323","10420.51"
"1324","10455.65"
"1325","10477.33"
"1326","10474.38"
"1327","10452.27"
"1328","10421.63"
"1329","10392.56"
"1330","10371.29"
"1331","10362.28"
"1332","10369.18"
"1333","10386.37"
"1334","10402.39"
"1335","10406.09"
"1336","10393.37"
"1337","10366.2"
"1338","10326.86"
"1339","10279.97"
"1340","10232.94"
"1341","10193.31"
"1342","10167.16"
"1343","10158.24"
"1344","10170.06"
"1345","10199.49"
"1346","10229.14"
"1347","10239.82"
"1348","10222.76"
"1349","10199.55"
"1350","10197.25"
"1351","10235.03"
"1352","10300.75"
"1353","10374.53"
"1354","10437.86"
"1355","10479.57"
"1356","10490.93"
"1357","10466.03"
"1358","10419.29"
"1359","10374.17"
"1360","10352.14"
"1361","10354.89"
"1362","10372.78"
"1363","10396.17"
"1364","10417.79"
"1365","10432.03"
"1366","10433.74"
"1367","10425.56"
"1368","10417.34"
"1369","10418.76"
"1370","10427.23"
"1371","10426.06"
"1372","10398.14"
"1373","10345.01"
"1374","10294.77"
"1375","10277.3"
"1376","10301.52"
"1377","10339.49"
"1378","10359.61"
"1379","10344.17"
"1380","10305.52"
"1381","10259.92"
"1382","10223.01"
"1383","10208.8"
"1384","10231.05"
"1385","10292.55"
"1386","10360.69"
"1387","10395.64"
"1388","10370"
"1389","10305.37"
"1390","10235.41"
"1391","10188.93"
"1392","10171.49"
"1393","10181.73"
"1394","10216.66"
"1395","10264.05"
"1396","10308.4"
"1397","10335.41"
"1398","10339.03"
"1399","10316.62"
"1400","10267.98"
"1401","10212.27"
"1402","10178.03"
"1403","10190.16"
"1404","10237.97"
"1405","10291.08"
"1406","10321.15"
"1407","10325.63"
"1408","10318.18"
"1409","10312.06"
"1410","10312.14"
"1411","10317.35"
"1412","10326.28"
"1413","10334.06"
"1414","10333.18"
"1415","10316.72"
"1416","10290.36"
"1417","10270.73"
"1418","10274.11"
"1419","10301.79"
"1420","10340.75"
"1421","10377.77"
"1422","10407.03"
"1423","10430.46"
"1424","10450.29"
"1425","10468.44"
"1426","10486.5"
"1427","10506.02"
"1428","10529.86"
"1429","10562.31"
"1430","10607.66"
"1431","10666.49"
"1432","10734.76"
"1433","10808.09"
"1434","10880.1"
"1435","10941.8"
"1436","10984.17"
"1437","11006.09"
"1438","11017.16"
"1439","11027.71"
"1440","11042.29"
"1441","11057.31"
"1442","11068.54"
"1443","11071.4"
"1444","11060.75"
"1445","11031.63"
"1446","10990.4"
"1447","10960.2"
"1448","10965.1"
"1449","11007.46"
"1450","11057.09"
"1451","11081.49"
"1452","11067.04"
"1453","11028.36"
"1454","10982.31"
"1455","10939.93"
"1456","10903.72"
"1457","10875.38"
"1458","10853.49"
"1459","10831.95"
"1460","10804.39"
"1461","10767.55"
"1462","10722.6"
"1463","10671.05"
"1464","10613.59"
"1465","10549.77"
"1466","10479.2"
"1467","10406.89"
"1468","10345.08"
"1469","10306.14"
"1470","10289.96"
"1471","10280.57"
"1472","10261.3"
"1473","10226.9"
"1474","10185.74"
"1475","10146.97"
"1476","10118.44"
"1477","10106.53"
"1478","10116.97"
"1479","10140.82"
"1480","10153.76"
"1481","10131.95"
"1482","10077.98"
"1483","10020.04"
"1484","9986.144"
"1485","9981.644"
"1486","9991.77"
"1487","10001.18"
"1488","9996.669"
"1489","9966.768"
"1490","9901.797"
"1491","9816.277"
"1492","9742.294"
"1493","9709.795"
"1494","9718.693"
"1495","9749.414"
"1496","9782.852"
"1497","9807.979"
"1498","9818.416"
"1499","9809.618"
"1500","9792.169"
"1501","9784.268"
"1502","9799.77"
"1503","9820.948"
"1504","9816.31"
"1505","9762.912"
"1506","9689.873"
"1507","9645.739"
"1508","9666.414"
"1509","9723.616"
"1510","9768.8"
"1511","9767.038"
"1512","9740.932"
"1513","9728.226"
"1514","9752.801"
"1515","9790.175"
"1516","9805.347"
"1517","9779.056"
"1518","9737.128"
"1519","9713.372"
"1520","9725.471"
"1521","9753.278"
"1522","9771.35"
"1523","9768.045"
"1524","9758.197"
"1525","9759.378"
"1526","9772.773"
"1527","9773.996"
"1528","9737.043"
"1529","9658.816"
"1530","9565.29"
"1531","9483.792"
"1532","9428.604"
"1533","9400.642"
"1534","9399.697"
"1535","9416.977"
"1536","9436.621"
"1537","9443.88"
"1538","9439.714"
"1539","9435.338"
"1540","9441.678"
"1541","9465.593"
"1542","9511.871"
"1543","9581.068"
"1544","9646.859"
"1545","9672.327"
"1546","9632.855"
"1547","9562.447"
"1548","9512.532"
"1549","9516.458"
"1550","9543.671"
"1551","9549.548"
"1552","9511.871"
"1553","9466.972"
"1554","9460.445"
"1555","9510.94"
"1556","9584.689"
"1557","9642.227"
"1558","9663.483"
"1559","9656.574"
"1560","9631.813"
"1561","9598.622"
"1562","9565.459"
"1563","9540.377"
"1564","9525.498"
"1565","9518.172"
"1566","9515.6"
"1567","9514.894"
"1568","9513.103"
"1569","9507.742"
"1570","9499.565"
"1571","9490.7"
"1572","9482.715"
"1573","9474.479"
"1574","9464.062"
"1575","9451.863"
"1576","9445.894"
"1577","9455.669"
"1578","9480.7"
"1579","9497.962"
"1580","9481.694"
"1581","9429.047"
"1582","9373.169"
"1583","9349.469"
"1584","9367.618"
"1585","9408.938"
"1586","9453.471"
"1587","9484.33"
"1588","9486.99"
"1589","9450.755"
"1590","9398.958"
"1591","9372.934"
"1592","9403.282"
"1593","9458.444"
"1594","9484.889"
"1595","9447.319"
"1596","9377.416"
"1597","9322.142"
"1598","9311.427"
"1599","9334.805"
"1600","9375.959"
"1601","9419.416"
"1602","9451.038"
"1603","9457.411"
"1604","9440.474"
"1605","9418.121"
"1606","9407.896"
"1607","9413.053"
"1608","9427.024"
"1609","9444.123"
"1610","9466.462"
"1611","9499.623"
"1612","9544.78"
"1613","9583.582"
"1614","9592.28"
"1615","9561.135"
"1616","9518.24"
"1617","9497.75"
"1618","9511.682"
"1619","9534.724"
"1620","9538.769"
"1621","9517.248"
"1622","9486.643"
"1623","9463.628"
"1624","9453.072"
"1625","9451.854"
"1626","9457.193"
"1627","9469.668"
"1628","9491.25"
"1629","9520.785"
"1630","9544.869"
"1631","9547.141"
"1632","9524.228"
"1633","9502.549"
"1634","9512.034"
"1635","9552.563"
"1636","9582.487"
"1637","9560.096"
"1638","9495.686"
"1639","9443.376"
"1640","9451.721"
"1641","9509.9"
"1642","9577.139"
"1643","9619.603"
"1644","9636.75"
"1645","9637.639"
"1646","9631.832"
"1647","9630.131"
"1648","9643.435"
"1649","9675.688"
"1650","9720.545"
"1651","9770.756"
"1652","9817.866"
"1653","9852.385"
"1654","9866.067"
"1655","9861.619"
"1656","9847.231"
"1657","9829.247"
"1658","9805.619"
"1659","9772.008"
"1660","9727.629"
"1661","9680.104"
"1662","9638.141"
"1663","9604.464"
"1664","9573.923"
"1665","9541.396"
"1666","9509.944"
"1667","9488.743"
"1668","9484.467"
"1669","9486.008"
"1670","9474.946"
"1671","9441.896"
"1672","9408.337"
"1673","9402.066"
"1674","9426.953"
"1675","9444.011"
"1676","9411.75"
"1677","9333.226"
"1678","9255.098"
"1679","9220"
"1680","9217.186"
"1681","9207.585"
"1682","9163.814"
"1683","9110.402"
"1684","9085.849"
"1685","9105.687"
"1686","9135.563"
"1687","9135.573"
"1688","9096.589"
"1689","9044.619"
"1690","9005.556"
"1691","8983.302"
"1692","8968.477"
"1693","8952.676"
"1694","8933.107"
"1695","8908.694"
"1696","8881.808"
"1697","8862.852"
"1698","8862.959"
"1699","8879.544"
"1700","8893.76"
"1701","8888.157"
"1702","8870.892"
"1703","8865.702"
"1704","8889.799"
"1705","8928.298"
"1706","8956.866"
"1707","8962.883"
"1708","8959.688"
"1709","8963.547"
"1710","8975.01"
"1711","8977.393"
"1712","8955.367"
"1713","8914.851"
"1714","8873.36"
"1715","8845.434"
"1716","8832.958"
"1717","8834.582"
"1718","8845.132"
"1719","8852.342"
"1720","8844.091"
"1721","8826.68"
"1722","8823.105"
"1723","8850.735"
"1724","8882.503"
"1725","8872.098"
"1726","8797.709"
"1727","8712.733"
"1728","8683.998"
"1729","8733.103"
"1730","8818.236"
"1731","8894.149"
"1732","8932.512"
"1733","8916.253"
"1734","8839.921"
"1735","8752.776"
"1736","8720.247"
"1737","8768.536"
"1738","8843.063"
"1739","8881.423"
"1740","8868.098"
"1741","8832.035"
"1742","8801.737"
"1743","8789.773"
"1744","8801.861"
"1745","8837.419"
"1746","8877.821"
"1747","8901.477"
"1748","8897.993"
"1749","8871.143"
"1750","8826.914"
"1751","8784.264"
"1752","8769.552"
"1753","8797.617"
"1754","8839.179"
"1755","8854.766"
"1756","8827.556"
"1757","8776.643"
"1758","8723.898"
"1759","8685.393"
"1760","8673.115"
"1761","8693.82"
"1762","8730.028"
"1763","8757.24"
"1764","8760.528"
"1765","8742.947"
"1766","8709.797"
"1767","8670.616"
"1768","8638.38"
"1769","8623.825"
"1770","8625.013"
"1771","8635.744"
"1772","8649.363"
"1773","8658.273"
"1774","8655.261"
"1775","8642.491"
"1776","8630.342"
"1777","8626.25"
"1778","8619.103"
"1779","8591.255"
"1780","8542.989"
"1781","8513.307"
"1782","8543.489"
"1783","8621.241"
"1784","8686.704"
"1785","8689.137"
"1786","8639.999"
"1787","8572.802"
"1788","8518.739"
"1789","8504"
"1790","8551.575"
"1791","8639.09"
"1792","8705.685"
"1793","8703.676"
"1794","8662.004"
"1795","8634.592"
"1796","8642.874"
"1797","8645.933"
"1798","8599.805"
"1799","8520.688"
"1800","8470.55"
"1801","8494.456"
"1802","8554.846"
"1803","8591.1"
"1804","8580.098"
"1805","8560.342"
"1806","8572.291"
"1807","8612.142"
"1808","8647.727"
"1809","8654.754"
"1810","8639.642"
"1811","8615.769"
"1812","8593.189"
"1813","8577.538"
"1814","8572.794"
"1815","8571.325"
"1816","8559.654"
"1817","8528.829"
"1818","8482.588"
"1819","8427.157"
"1820","8376.092"
"1821","8350.359"
"1822","8366.03"
"1823","8407.827"
"1824","8448.968"
"1825","8472.609"
"1826","8481.6"
"1827","8480.989"
"1828","8474.338"
"1829","8464.128"
"1830","8453.253"
"1831","8446.302"
"1832","8448.148"
"1833","8457.583"
"1834","8465.202"
"1835","8462.848"
"1836","8457.18"
"1837","8462.022"
"1838","8483.286"
"1839","8507.01"
"1840","8516.848"
"1841","8509.149"
"1842","8491.338"
"1843","8468.11"
"1844","8429.492"
"1845","8361.696"
"1846","8280.065"
"1847","8244.075"
"1848","8307.152"
"1849","8433.945"
"1850","8542.134"
"1851","8574.616"
"1852","8542.196"
"1853","8467.446"
"1854","8385.877"
"1855","8344.528"
"1856","8375.487"
"1857","8439.364"
"1858","8476.7"
"1859","8462.853"
"1860","8423.497"
"1861","8386.536"
"1862","8365.529"
"1863","8367.079"
"1864","8389.78"
"1865","8413.732"
"1866","8417.495"
"1867","8396.652"
"1868","8359.849"
"1869","8316.426"
"1870","8277.026"
"1871","8252.37"
"1872","8245.306"
"1873","8249.506"
"1874","8258.773"
"1875","8270.924"
"1876","8285.254"
"1877","8300.894"
"1878","8316.676"
"1879","8331.307"
"1880","8342.587"
"1881","8347.815"
"1882","8346.461"
"1883","8343.584"
"1884","8344.912"
"1885","8352.696"
"1886","8366.403"
"1887","8382.196"
"1888","8384.216"
"1889","8354.477"
"1890","8295.586"
"1891","8232.999"
"1892","8189.684"
"1893","8168.454"
"1894","8165.391"
"1895","8176.482"
"1896","8197.608"
"1897","8224.378"
"1898","8250.543"
"1899","8269.027"
"1900","8278.379"
"1901","8288.381"
"1902","8308.614"
"1903","8332.048"
"1904","8341.613"
"1905","8329.347"
"1906","8311.456"
"1907","8306.296"
"1908","8305.388"
"1909","8279.625"
"1910","8217.268"
"1911","8166.656"
"1912","8185.427"
"1913","8259.411"
"1914","8306.242"
"1915","8266.863"
"1916","8192.32"
"1917","8160.912"
"1918","8196.695"
"1919","8261.737"
"1920","8318.021"
"1921","8345.076"
"1922","8328.429"
"1923","8272.146"
"1924","8205.179"
"1925","8155.592"
"1926","8134.832"
"1927","8147.762"
"1928","8178.832"
"1929","8181.135"
"1930","8117.867"
"1931","8043.204"
"1932","8049.681"
"1933","8151.558"
"1934","8228.08"
"1935","8168.029"
"1936","8044.949"
"1937","8019.83"
"1938","8146.929"
"1939","8278.74"
"1940","8265.878"
"1941","8140.334"
"1942","8027.259"
"1943","8000.672"
"1944","8030.534"
"1945","8076.292"
"1946","8115.465"
"1947","8135.325"
"1948","8129.543"
"1949","8104.89"
"1950","8070.698"
"1951","8044.886"
"1952","8050.063"
"1953","8091.946"
"1954","8140.774"
"1955","8165.386"
"1956","8164.436"
"1957","8152.971"
"1958","8140.854"
"1959","8126.854"
"1960","8108.789"
"1961","8088.249"
"1962","8068.812"
"1963","8050.935"
"1964","8028.891"
"1965","7997.884"
"1966","7967.493"
"1967","7954.501"
"1968","7967.709"
"1969","8001.078"
"1970","8045.42"
"1971","8079.757"
"1972","8077.921"
"1973","8040.475"
"1974","8012.86"
"1975","8034.52"
"1976","8073.927"
"1977","8070.625"
"1978","8007.877"
"1979","7934.317"
"1980","7897.054"
"1981","7902.078"
"1982","7940.104"
"1983","7988.417"
"1984","8006.981"
"1985","7968"
"1986","7910.027"
"1987","7890.217"
"1988","7913.872"
"1989","7929.254"
"1990","7900.278"
"1991","7865.932"
"1992","7881.334"
"1993","7946.015"
"1994","8008.806"
"1995","8031.958"
"1996","8026.927"
"1997","8014.382"
"1998","8005.947"
"1999","8006.563"
"2000","8010.245"
"2001","7984.186"
"2002","7899.058"
"2003","7802.932"
"2004","7788.181"
"2005","7874.725"
"2006","7942.758"
"2007","7881.773"
"2008","7765.111"
"2009","7744.797"
"2010","7851.288"
"2011","7938.751"
"2012","7884.08"
"2013","7754.676"
"2014","7676.078"
"2015","7685.481"
"2016","7725.188"
"2017","7744.758"
"2018","7737.491"
"2019","7707.831"
"2020","7679.493"
"2021","7691.182"
"2022","7755.596"
"2023","7819.417"
"2024","7825.007"
"2025","7771.287"
"2026","7688.191"
"2027","7606.193"
"2028","7556.035"
"2029","7561.186"
"2030","7600.953"
"2031","7638.913"
"2032","7659.012"
"2033","7669"
"2034","7675.071"
"2035","7672.383"
"2036","7654.238"
"2037","7625.724"
"2038","7601.1"
"2039","7587.915"
"2040","7577.06"
"2041","7559.117"
"2042","7542.833"
"2043","7545.697"
"2044","7562.823"
"2045","7555.47"
"2046","7495.694"
"2047","7423.014"
"2048","7395.493"
"2049","7422.628"
"2050","7467.822"
"2051","7499.799"
"2052","7508.063"
"2053","7487.85"
"2054","7455.336"
"2055","7438.59"
"2056","7442.347"
"2057","7431.726"
"2058","7380.11"
"2059","7326.631"
"2060","7329.79"
"2061","7382.438"
"2062","7411.854"
"2063","7375.329"
"2064","7327.133"
"2065","7331.899"
"2066","7378.384"
"2067","7411.968"
"2068","7405.4"
"2069","7376.891"
"2070","7345.495"
"2071","7313.351"
"2072","7277.875"
"2073","7247.25"
"2074","7239.421"
"2075","7262.238"
"2076","7296.6"
"2077","7320.569"
"2078","7324.577"
"2079","7305.346"
"2080","7269.069"
"2081","7234.695"
"2082","7216.863"
"2083","7209.419"
"2084","7202.307"
"2085","7202.075"
"2086","7227.006"
"2087","7273.91"
"2088","7297.626"
"2089","7258.817"
"2090","7180.333"
"2091","7106.289"
"2092","7056.591"
"2093","7027.361"
"2094","7014.744"
"2095","7017.548"
"2096","7034.443"
"2097","7059.362"
"2098","7084.12"
"2099","7107.349"
"2100","7136.4"
"2101","7168.306"
"2102","7162.176"
"2103","7076.698"
"2104","6957.497"
"2105","6902.588"
"2106","6938.243"
"2107","6976.153"
"2108","6945.455"
"2109","6896.535"
"2110","6906.128"
"2111","6954.402"
"2112","6950.969"
"2113","6866.17"
"2114","6786.683"
"2115","6791.356"
"2116","6851.813"
"2117","6907.147"
"2118","6930.627"
"2119","6924.158"
"2120","6898.215"
"2121","6879.33"
"2122","6888.465"
"2123","6902.502"
"2124","6884.972"
"2125","6846.497"
"2126","6840.142"
"2127","6883.214"
"2128","6909.635"
"2129","6856.507"
"2130","6750.106"
"2131","6649.059"
"2132","6588.304"
"2133","6580.625"
"2134","6619.926"
"2135","6659.329"
"2136","6655.924"
"2137","6625.55"
"2138","6604.277"
"2139","6594.836"
"2140","6569.721"
"2141","6525.696"
"2142","6514.616"
"2143","6578.058"
"2144","6657.834"
"2145","6665.799"
"2146","6605.186"
"2147","6556.499"
"2148","6560.412"
"2149","6573.655"
"2150","6554.257"
"2151","6516.87"
"2152","6492.396"
"2153","6490.077"
"2154","6502.736"
"2155","6512.279"
"2156","6482.593"
"2157","6398.271"
"2158","6338.754"
"2159","6396.163"
"2160","6520.496"
"2161","6573.568"
"2162","6516.127"
"2163","6451.986"
"2164","6454.381"
"2165","6456.818"
"2166","6379.441"
"2167","6279.503"
"2168","6279.388"
"2169","6371.951"
"2170","6403.535"
"2171","6295.702"
"2172","6181.474"
"2173","6193.794"
"2174","6258.308"
"2175","6230.591"
"2176","6127.676"
"2177","6103.396"
"2178","6203.664"
"2179","6266.233"
"2180","6165.096"
"2181","6028.531"
"2182","6034.625"
"2183","6156.912"
"2184","6245.579"
"2185","6223.263"
"2186","6109.54"
"2187","5945.125"
"2188","5812.188"
"2189","5785.243"
"2190","5835.889"
"2191","5895.432"
"2192","5935.878"
"2193","5965.1"
"2194","5979.144"
"2195","5950.009"
"2196","5868.9"
"2197","5816.431"
"2198","5880.224"
"2199","5989.836"
"2200","5989.893"
"2201","5865.901"
"2202","5768.209"
"2203","5783.169"
"2204","5819.031"
"2205","5780.732"
"2206","5699.368"
"2207","5644.577"
"2208","5635.354"
"2209","5655.077"
"2210","5689.99"
"2211","5731.47"
"2212","5763.399"
"2213","5746.785"
"2214","5652.472"
"2215","5542.52"
"2216","5509.502"
"2217","5551.123"
"2218","5589.226"
"2219","5585.873"
"2220","5570.418"
"2221","5571.159"
"2222","5593.288"
"2223","5633.194"
"2224","5658.356"
"2225","5626.677"
"2226","5546.897"
"2227","5470.559"
"2228","5424.249"
"2229","5391.393"
"2230","5353.267"
"2231","5297.365"
"2232","5218.384"
"2233","5152.402"
"2234","5149.031"
"2235","5189.584"
"2236","5199.991"
"2237","5158.822"
"2238","5129.086"
"2239","5156.201"
"2240","5209.582"
"2241","5247.057"
"2242","5244.722"
"2243","5188.406"
"2244","5102.878"
"2245","5040.776"
"2246","5019.843"
"2247","5009.411"
"2248","4984.986"
"2249","4947.007"
"2250","4901.279"
"2251","4860.801"
"2252","4837.937"
"2253","4813.506"
"2254","4750.834"
"2255","4658.741"
"2256","4596.226"
"2257","4594.42"
"2258","4623.091"
"2259","4641.693"
"2260","4598.837"
"2261","4454.958"
"2262","4280.464"
"2263","4190.479"
"2264","4205.028"
"2265","4265.535"
"2266","4315.212"
"2267","4303.525"
"2268","4216.369"
"2269","4134.756"
"2270","4130.236"
"2271","4148.485"
"2272","4104.773"
"2273","4001.882"
"2274","3891.495"
"2275","3808.938"
"2276","3772.509"
"2277","3776.484"
"2278","3775.217"
"2279","3728.195"
"2280","3623.087"
"2281","3466.757"
"2282","3344.099"
"2283","3352.235"
"2284","3418.637"
"2285","3372.606"
"2286","3216.972"
"2287","3136.894"
"2288","3186.972"
"2289","3174.133"
"2290","2983.051"
"2291","2819.574"
"2292","2885.42"
"2293","3009.637"
"2294","2923.176"
"2295","2687.521"
"2296","2551.654"
"2297","2545.721"
"2298","2482.866"
"2299","2308.951"
"2300","2201.472"
